1680167610.00
64.000000
-0.00
-0.00
-0.00
-0.00
-0.00
-0.00
-0.00
-0.00
-0.00
-0.00
0.00
0.01
0.01
-0.00
-0.03
-0.05
-0.05
0.00
0.13
0.36
0.66
1.01
1.37
1.72
2.06
2.40
2.79
3.24
3.80
4.42
5.06
5.66
6.20
6.68
7.15
7.68
8.31
9.14
10.09
11.04
11.88
12.56
13.14
13.76
14.65
15.96
17.91
20.32
22.90
25.38
27.58
29.57
31.68
34.32
37.81
42.54
48.15
54.10
59.83
64.97
69.58
74.14
79.34
85.71
93.76
103.00
112.62
121.73
129.77
136.75
143.30
150.75
157.77
166.64
177.95
191.79
206.97
220.57
228.25
225.36
208.53
176.87
132.76
80.05
23.07
-34.94
-92.44
-149.16
-205.23
-260.37
-313.74
-363.88
-409.84
-450.91
-486.50
-515.74
-537.22
-549.21
-549.93
-538.32
-514.14
-478.57
-433.74
-382.27
-326.78
-269.54
-212.27
-156.22
-102.44
-51.78
-5.23
36.33
72.25
102.25
126.48
145.43
159.83
170.37
177.69
182.18
184.12
183.75
181.34
177.24
171.86
165.61
158.84
151.79
144.60
137.35
130.08
122.84
115.68
108.68
101.91
95.43
89.26
83.42
77.92
72.77
67.99
63.57
59.53
55.88
52.60
49.69
47.15
44.97
43.14
41.68
40.57
39.81
39.39
39.30
39.48
39.88
40.40
40.88
41.16
41.03
40.28
38.70
36.13
32.45
27.61
21.63
14.66
6.96
-1.17
-9.32
-17.06
-23.96
-29.62
-33.73
-36.05
-36.50
-35.12
-32.09
-27.70
-22.33
-16.38
-10.28
-4.38
1.03
5.75
9.66
12.70
14.92
16.43
17.36
17.88
18.10
18.19
18.27
18.38
18.57
18.88
19.38
20.11
21.15
22.58
24.49
26.99
30.01
33.50
37.42
41.74
46.42
51.41
56.69
62.27
68.22
74.37
80.62
86.97
93.41
99.97
106.69
113.61
120.76
128.18
135.51
142.49
148.80
154.12
158.09
160.26
160.06
156.76
151.71
145.42
138.25
130.47
122.31
113.95
105.61
97.43
89.59
82.27
75.29
68.56
62.00
55.58
49.26
43.04
36.96
31.09
25.55
20.23
15.09
10.16
5.45
1.03
-3.06
-6.71
-9.84
-12.35
-14.30
-15.75
-16.75
-17.37
-17.68
-17.72
-17.54
-17.16
-16.59
-15.90
-15.23
-14.64
-14.22
-14.02
-14.02
-14.16
-14.38
-14.63
-14.92
-15.35
-16.05
-17.13
-18.66
-20.58
-22.73
-24.85
-26.66
-27.97
-28.74
-29.02
-28.96
-28.60
-27.92
-26.73
-24.78
-21.97
-18.47
-14.80
-11.70
-9.95
-10.09
-12.22
-16.03
-20.93
-26.47
-32.53
-39.54
-48.23
-59.35
-73.23
-89.48
-107.17
-125.21
-142.70
-159.41
-175.70
-192.25
-209.83
-229.14
-250.93
-275.97
-304.54
-335.61
-366.22
-391.76
-407.22
-409.15
-397.14
-374.07
-344.55
-312.78
-280.80
-248.18
-213.32
-175.10
-134.11
-92.62
-53.52
-19.21
8.89
30.04
43.70
49.45
47.64
40.17
31.10
26.14
31.03
49.44
81.25
122.08
164.18
198.71
218.57
220.70
207.10
183.96
159.39
140.36
130.57
129.48
133.47
137.81
138.76
134.50
124.80
109.95
89.95
64.56
33.95
-0.33
-34.97
-65.44
-87.03
-96.31
-92.23
-76.60
-53.93
-30.56
-13.19
-7.34
-15.85
-37.90
-69.02
-101.97
-128.30
-140.27
-132.78
-104.88
-60.35
-7.23
44.18
83.98
105.21
105.40
86.26
52.03
7.38
-43.93
-98.84
-153.95
-204.78
-246.07
-273.38
-285.21
-284.06
-275.98
-268.31
-266.83
-273.55
-286.23
-299.65
-307.97
-307.16
-296.28
-277.47
-254.66
-231.85
-211.64
-194.59
-179.53
-164.43
-147.67
-128.49
-107.00
-83.65
-58.47
-31.07
-0.69
33.35
71.16
112.37
156.70
204.72
257.95
317.80
383.72
451.57
513.54
560.26
584.21
582.95
560.17
524.18
484.41
447.87
417.30
391.57
367.53
342.24
313.96
282.19
246.91
207.94
164.89
117.60
66.50
12.71
-42.12
-96.84
-151.47
-207.36
-266.21
-328.14
-390.00
-445.07
-484.71
-501.53
-492.44
-459.86
-410.37
-351.67
-289.96
-229.04
-171.43
-120.10
-79.20
-52.88
-42.87
-46.65
-57.45
-66.54
-66.52
-53.62
-27.81
8.72
53.49
104.45
158.99
212.45
257.52
285.63
289.83
267.59
221.82
159.68
89.92
20.22
-43.96
-99.18
-143.07
-173.98
-191.74
-198.57
-199.36
-200.18
-205.73
-217.10
-231.07
-241.73
-243.23
-232.41
-210.06
-179.90
-146.47
-113.16
-81.16
-49.95
-18.50
13.51
44.98
73.74
97.48
114.85
126.11
133.15
138.70
145.17
153.50
162.81
171.05
176.15
177.32
175.42
172.50
170.54
170.30
171.00
170.86
168.20
162.37
154.01
144.67
136.23
130.07
126.81
126.16
127.17
128.70
129.78
129.84
128.85
127.12
125.04
122.80
120.38
117.73
114.99
112.40
110.13
107.80
104.38
98.50
89.16
76.69
63.06
51.52
45.38
46.65
55.39
70.00
88.18
107.91
127.76
146.40
161.90
171.44
171.91
161.16
139.11
107.99
71.45
33.15
-4.28
-39.39
-71.20
-98.47
-119.65
-133.50
-140.03
-140.90
-139.05
-137.70
-139.22
-144.69
-153.99
-166.40
-181.21
-197.73
-214.97
-231.11
-243.13
-247.31
-240.32
-220.52
-189.05
-150.13
-110.59
-78.27
-59.81
-58.30
-72.05
-94.61
-116.65
-128.91
-124.77
-101.52
-60.02
-3.46
63.48
134.44
200.91
252.81
280.72
279.66
252.26
209.06
165.32
135.37
127.21
140.42
167.39
197.45
221.28
233.71
234.19
225.26
210.59
193.32
175.33
157.38
139.70
122.87
107.92
95.94
87.48
81.80
76.96
70.50
60.34
45.30
25.09
-0.13
-29.91
-62.88
-96.08
-124.75
-143.38
-147.90
-137.62
-116.10
-90.05
-66.90
-52.01
-47.05
-49.98
-56.47
-61.67
-61.35
-52.32
-32.47
-1.17
40.06
86.80
132.02
167.57
186.65
186.08
167.53
136.78
101.32
67.57
38.82
14.88
-6.62
-28.26
-51.30
-75.45
-99.44
-122.10
-143.29
-163.87
-185.41
-209.87
-239.36
-275.81
-320.34
-372.02
-426.89
-478.02
-517.08
-537.11
-535.25
-513.97
-480.07
-441.97
-406.65
-377.84
-355.95
-339.41
-326.30
-315.18
-305.06
-294.86
-283.06
-268.07
-248.77
-224.95
-197.29
-166.96
-135.06
-102.01
-67.68
-31.56
6.93
47.80
90.65
134.55
178.67
222.61
266.84
312.62
361.35
413.35
466.63
516.42
555.93
578.46
579.86
560.48
525.31
482.35
439.90
403.91
376.68
356.96
341.62
327.37
312.14
295.49
278.13
261.13
244.78
228.41
210.18
187.90
160.06
126.38
88.22
47.99
8.48
-28.08
-60.58
-89.27
-115.76
-142.75
-173.46
-210.52
-254.56
-303.02
-349.76
-386.00
-402.76
-394.19
-360.39
-308.64
-251.77
-204.25
-176.97
-173.55
-189.05
-212.59
-231.87
-237.70
-226.70
-200.56
-163.20
-117.73
-65.08
-5.21
60.06
124.90
180.26
216.82
229.15
218.15
190.39
154.28
115.47
74.58
28.27
-26.30
-87.25
-146.41
-191.80
-212.53
-203.36
-166.55
-110.49
-46.67
13.73
61.73
91.54
100.52
89.08
60.00
17.31
-35.16
-94.53
-158.21
-222.49
-281.26
-326.61
-351.54
-353.09
-334.24
-303.03
-269.25
-240.52
-220.03
-206.69
-197.16
-188.50
-179.54
-170.83
-163.41
-157.68
-152.96
-147.71
-140.27
-129.33
-114.49
-96.04
-74.78
-51.80
-28.25
-4.98
17.58
39.63
61.98
85.76
112.11
141.96
175.88
213.84
254.95
296.97
336.26
368.53
390.18
399.92
399.52
392.90
384.04
374.51
362.33
342.86
311.44
266.51
211.36
153.58
102.59
66.05
47.22
44.12
50.69
59.46
64.21
62.10
53.96
43.28
34.52
31.29
35.39
46.61
63.20
82.29
100.51
114.65
122.33
122.74
116.79
106.30
92.89
76.99
58.04
35.80
11.75
-10.56
-26.93
-34.82
-35.33
-33.10
-34.07
-42.19
-57.25
-75.09
-89.99
-97.62
-97.05
-90.77
-83.17
-78.64
-80.25
-89.28
-105.32
-126.51
-149.88
-171.70
-188.30
-196.94
-196.57
-188.02
-173.56
-156.26
-139.21
-125.03
-115.41
-110.64
-109.38
-108.73
-105.06
-95.25
-77.82
-53.66
-25.67
2.31
26.95
46.24
59.63
67.64
71.09
70.96
68.47
65.24
63.27
64.24
68.64
75.22
81.20
83.45
79.87
70.70
58.42
46.81
39.27
37.42
40.42
45.69
50.10
51.54
49.79
46.45
44.03
44.69
49.25
56.95
65.94
74.15
80.12
83.23
83.71
82.14
79.10
75.10
70.63
66.24
62.57
60.03
58.75
58.51
58.83
59.32
59.78
60.36
61.43
63.42
66.65
71.13
76.53
82.38
88.51
95.46
104.61
117.59
135.20
156.30
177.45
193.67
200.36
195.05
178.51
154.17
126.50
98.93
72.50
46.02
17.26
-15.17
-50.49
-85.67
-116.59
-139.84
-154.23
-161.04
-163.10
-163.61
-165.25
-169.94
-179.13
-193.64
-212.91
-233.93
-250.86
-256.31
-244.15
-212.74
-166.60
-115.32
-70.03
-39.07
-25.15
-25.39
-33.66
-43.92
-52.36
-57.77
-60.42
-60.71
-58.68
-54.61
-49.89
-47.23
-49.44
-57.77
-70.99
-86.17
-100.62
-113.72
-127.16
-143.25
-162.43
-181.86
-195.97
-198.95
-187.38
-161.73
-125.54
-83.74
-40.67
0.68
38.33
70.66
96.16
113.99
124.88
131.57
138.36
149.82
169.31
197.58
232.47
269.38
302.51
326.50
337.98
336.35
323.64
303.69
280.58
257.61
236.80
219.14
205.25
195.70
190.82
190.11
191.91
193.40
191.54
184.12
170.68
152.50
132.09
112.19
94.98
81.81
73.13
68.68
67.40
67.46
66.47
61.93
52.08
36.56
16.64
-5.37
-27.04
-46.94
-65.38
-84.60
-108.17
-139.84
-181.60
-231.94
-285.02
-331.41
-360.41
-363.26
-336.04
-281.45
-208.63
-131.18
-63.72
-18.11
-0.55
-10.33
-40.64
-81.07
-120.59
-150.27
-164.48
-160.93
-140.03
-104.39
-58.82
-10.68
30.49
54.65
53.73
24.77
-28.40
-95.14
-160.60
-210.05
-233.10
-226.56
-194.37
-145.19
-88.55
-32.07
19.86
65.58
105.15
139.54
170.13
198.26
224.31
246.74
261.71
264.37
251.05
221.58
179.79
132.11
84.91
42.06
4.24
-30.28
-63.95
-98.87
-136.52
-177.88
-223.17
-270.86
-316.98
-355.32
-379.00
-382.98
-365.94
-330.85
-283.57
-230.56
-176.77
-124.79
-75.55
-29.46
12.55
49.20
79.76
105.09
127.92
152.40
182.98
222.96
273.07
330.59
389.38
441.05
477.28
492.39
485.18
459.16
420.99
377.87
335.34
296.23
261.03
229.16
200.03
173.19
147.94
122.88
96.07
66.02
32.52
-2.77
-36.82
-65.99
-87.42
-99.96
-104.36
-103.01
-99.09
-95.75
-95.33
-99.12
-107.39
-119.80
-135.94
-155.87
-180.27
-209.87
-244.18
-280.40
-313.15
-335.83
-343.03
-332.56
-306.27
-268.95
-226.46
-183.98
-145.73
-115.71
-98.25
-97.65
-116.69
-154.66
-206.80
-264.90
-319.90
-364.70
-396.08
-415.06
-426.10
-435.67
-450.16
-473.72
-506.09
-542.09
-572.60
-587.53
-579.48
-546.55
-492.99
-427.18
-358.61
-293.62
-234.57
-180.26
-127.97
-75.46
-22.37
29.62
77.95
119.55
153.55
180.26
200.71
216.11
227.26
234.38
236.51
232.42
220.61
203.18
184.38
169.87
165.14
174.47
200.55
243.86
303.73
377.33
463.46
552.61
627.16
665.51
652.29
587.42
484.60
374.93
269.23
169.42
74.09
-15.89
-94.45
-153.63
-183.28
-179.22
-147.59
-105.43
-70.70
-56.95
-68.75
-101.61
-146.06
-193.03
-237.57
-278.04
-314.08
-340.96
-351.73
-340.59
-304.73
-246.34
-171.46
-88.81
-7.59
63.44
119.31
159.24
186.92
212.07
244.79
291.08
349.10
409.71
460.46
491.80
499.98
487.48
464.26
439.91
420.47
407.64
400.84
400.01
406.90
423.88
452.21
495.50
553.15
619.97
687.23
745.32
787.07
809.28
812.35
768.30
663.94
502.96
306.71
104.46
-79.60
-232.47
-351.23
-439.18
-502.35
-542.69
-562.88
-567.28
-561.84
-553.02
-545.63
-541.60
-540.59
-540.97
-537.23
-525.27
-505.11
-478.14
-447.65
-417.09
-388.72
-363.73
-342.61
-323.17
-303.81
-284.29
-265.69
-250.12
-239.39
-234.10
-233.86
-237.66
-243.08
-247.99
-251.03
-251.55
-249.54
-246.46
-242.83
-238.66
-233.71
-227.15
-218.35
-207.00
-193.16
-177.33
-160.22
-142.30
-123.98
-105.66
-87.63
-70.18
-53.47
-37.56
-22.48
-8.22
5.45
18.70
31.67
44.43
56.95
69.11
80.70
91.45
100.96
108.99
115.26
119.57
121.78
121.84
119.87
116.02
110.60
103.90
96.32
88.21
79.93
71.73
63.77
56.20
49.06
42.32
35.95
29.87
24.04
18.43
12.98
7.68
2.56
-2.32
-6.91
-11.11
-14.82
-17.92
-20.35
-22.03
-22.97
-23.20
-22.84
-22.04
-20.97
-19.86
-18.86
-18.10
-17.65
-17.46
-17.42
-17.37
-17.07
-16.29
-14.85
-12.64
-9.60
-5.82
-1.39
3.47
8.53
13.58
18.46
23.03
27.29
31.27
35.11
38.97
42.98
47.20
51.88
57.16
63.05
69.38
75.88
82.18
88.01
93.05
97.09
100.22
102.43
103.66
103.67
102.17
98.81
93.40
85.84
76.18
65.29
54.06
43.30
33.63
25.53
19.35
15.41
13.93
14.95
20.10
30.52
46.61
67.94
93.38
121.45
150.83
180.45
209.41
240.75
277.02
319.74
368.86
422.90
479.57
536.62
592.35
645.35
700.59
762.47
833.53
913.64
999.80
1087.19
1171.08
1248.43
1318.62
1391.16
1475.12
1575.41
1689.61
1807.70
1915.47
2000.29
2055.87
2032.00
1898.55
1642.73
1274.96
828.27
348.83
-117.83
-537.44
-890.83
-1172.61
-1379.28
-1514.17
-1585.23
-1603.83
-1583.62
-1538.64
-1481.13
-1420.47
-1362.97
-1306.24
-1246.83
-1181.93
-1110.85
-1035.59
-959.99
-888.19
-823.42
-767.62
-717.62
-669.90
-621.59
-571.41
-520.04
-469.48
-422.13
-379.88
-343.79
-312.27
-283.42
-255.56
-227.78
-200.18
-173.57
-148.97
-127.24
-108.80
-93.02
-79.09
-66.22
-53.92
-42.10
-30.96
-20.82
-11.97
-4.50
1.62
6.56
10.56
13.86
16.70
19.24
21.61
23.80
25.78
27.41
28.52
28.94
28.49
27.00
24.44
20.82
16.22
10.85
4.98
-1.12
-7.12
-12.75
-17.79
-22.04
-25.46
-28.02
-29.77
-30.76
-31.10
-30.85
-30.05
-28.76
-26.91
-24.54
-21.64
-18.16
-14.01
-9.19
-3.67
2.48
9.15
16.22
23.34
30.18
36.55
42.30
47.37
51.83
55.83
59.59
63.44
67.23
70.96
74.65
78.26
81.80
85.26
88.68
92.16
95.91
99.49
102.70
105.47
107.74
109.50
110.76
111.56
112.05
112.56
112.59
112.08
111.22
110.29
109.55
109.00
108.15
105.66
105.49
108.44
114.48
122.98
132.90
142.94
151.74
158.09
161.11
160.41
155.19
145.43
131.60
114.50
95.03
73.99
51.98
29.37
6.49
-17.03
-41.19
-65.55
-89.38
-111.64
-131.22
-147.04
-158.19
-163.90
-164.03
-158.51
-147.53
-131.69
-112.15
-90.70
-69.56
-51.01
-36.85
-28.10
-24.63
-25.24
-28.27
-32.30
-36.73
-41.97
-49.17
-59.53
-73.75
-91.52
-111.79
-133.17
-154.75
-176.57
-199.56
-225.34
-255.71
-292.51
-337.06
-389.34
-446.89
-504.15
-552.97
-584.60
-592.71
-575.69
-537.38
-485.43
-428.39
-372.83
-322.16
-277.19
-237.66
-203.60
-175.48
-153.40
-136.11
-120.80
-104.02
-82.93
-56.44
-25.15
9.10
44.30
79.16
113.31
147.15
181.54
217.71
256.92
299.87
345.50
390.03
426.92
448.25
447.44
421.71
373.14
307.74
233.33
157.41
86.27
25.23
-21.07
-49.05
-57.61
-49.55
-31.75
-13.11
-1.31
0.26
-6.64
-16.71
-24.20
-25.77
-21.65
-14.96
-9.50
-7.75
-9.81
-13.49
-15.42
-12.42
-2.72
13.50
33.99
55.00
72.29
82.32
83.45
76.56
64.93
53.09
45.46
44.79
51.32
62.64
74.62
82.82
84.02
77.38
64.49
48.64
33.43
21.50
13.88
10.19
9.41
10.68
13.68
18.41
24.67
31.74
38.28
42.71
43.72
40.96
35.07
27.48
19.82
13.10
7.29
1.21
-6.96
-18.89
-35.26
-55.16
-76.17
-94.93
-108.14
-113.56
-110.48
-99.73
-83.11
-62.84
-41.20
-20.39
-2.57
10.53
18.07
20.74
20.98
22.36
28.26
40.49
58.26
78.26
95.61
105.35
103.81
89.80
64.83
33.03
0.11
-28.04
-46.77
-53.83
-49.77
-37.37
-20.50
-2.96
12.52
24.67
33.51
40.22
46.80
55.70
69.39
89.68
116.74
148.55
180.88
208.10
224.65
226.73
213.56
187.79
154.81
121.30
93.61
76.27
71.08
76.77
89.21
102.31
109.52
105.50
87.66
56.57
15.38
-31.53
-79.75
-125.45
-165.55
-197.77
-221.13
-236.80
-248.25
-260.47
-278.00
-302.61
-332.16
-361.37
-384.25
-396.71
-397.87
-389.48
-374.29
-354.56
-331.68
-306.71
-281.20
-257.43
-237.59
-222.50
-210.78
-198.89
-182.85
-159.79
-129.13
-92.52
-53.33
-15.19
19.05
48.24
73.36
96.27
119.17
143.79
171.21
201.08
231.68
260.24
283.64
300.22
309.32
312.35
312.86
316.33
327.83
350.00
381.38
416.15
446.27
462.53
458.09
431.07
385.77
330.41
274.18
224.53
180.71
145.47
121.37
110.78
110.84
118.73
130.59
141.92
148.00
145.31
133.54
114.16
90.08
64.41
39.90
17.19
-5.12
-29.56
-58.12
-90.55
-125.27
-159.83
-191.89
-219.51
-242.65
-262.97
-283.14
-305.69
-332.09
-363.12
-398.16
-434.46
-465.98
-485.35
-486.29
-466.16
-427.02
-375.13
-319.12
-267.10
-224.17
-190.63
-164.77
-145.34
-132.54
-126.69
-126.53
-128.67
-128.41
-121.09
-102.39
-71.50
-31.82
10.47
50.04
84.69
115.37
144.88
176.81
216.56
267.45
328.36
393.32
453.57
500.24
526.36
528.95
497.66
434.62
357.17
289.08
244.73
223.39
215.62
212.65
209.13
204.69
202.99
206.04
211.21
211.83
199.29
168.60
118.66
52.40
-24.11
-101.01
-168.51
-219.85
-252.85
-269.32
-273.89
-273.17
-273.95
-281.75
-298.11
-320.98
-345.45
-364.76
-371.68
-360.71
-331.30
-288.13
-240.69
-198.71
-168.59
-151.05
-141.44
-132.00
-115.65
-89.28
-53.29
-11.35
32.94
77.85
123.83
172.21
223.16
275.97
320.39
349.20
355.70
337.61
298.31
245.92
189.81
137.26
91.42
51.37
15.62
-17.14
-46.45
-70.80
-89.03
-101.23
-108.35
-111.22
-109.91
-102.95
-89.62
-70.52
-48.24
-26.84
-10.47
-1.87
-1.43
-7.02
-13.91
-16.79
-11.23
4.31
27.36
51.57
68.61
71.13
55.60
24.30
-15.56
-54.00
-81.62
-92.42
-85.33
-63.92
-34.79
-5.48
17.63
30.44
31.65
22.70
7.01
-10.89
-26.55
-36.81
-40.52
-38.77
-34.08
-29.24
-25.92
-24.13
-22.33
-18.44
-10.93
0.70
15.71
32.80
50.27
66.34
79.07
86.59
87.59
81.97
71.25
58.19
45.88
36.47
30.60
27.34
24.81
21.12
14.99
6.22
-4.49
-15.60
-25.25
-31.60
-33.34
-30.22
-23.01
-13.41
-3.37
5.03
10.10
10.36
4.80
-7.07
-24.91
-47.34
-72.16
-96.71
-118.54
-135.73
-147.01
-151.54
-148.88
-138.96
-122.33
-100.33
-74.92
-48.32
-22.57
0.66
19.99
34.34
42.90
45.45
42.57
35.59
26.34
16.49
7.14
-1.44
-9.46
-17.25
-24.59
-30.57
-33.64
-32.12
-24.77
-11.34
7.23
29.18
52.27
74.43
93.98
109.53
119.72
123.17
118.65
105.64
84.75
57.84
27.53
-3.30
-32.10
-56.94
-76.50
-90.17
-98.04
-100.99
-100.47
-98.07
-94.82
-90.87
-85.40
-77.35
-66.18
-52.61
-38.65
-26.94
-19.74
-17.90
-20.67
-26.09
-32.20
-37.91
-43.35
-49.15
-55.28
-60.12
-60.62
-53.60
-37.53
-13.54
14.68
42.42
65.74
82.48
92.25
95.55
93.12
85.74
74.65
61.87
49.72
39.94
32.75
26.78
19.88
10.39
-1.88
-15.35
-27.01
-33.29
-31.04
-18.36
4.62
35.27
68.73
99.01
120.79
131.31
131.24
124.22
115.22
108.36
105.29
104.71
103.15
96.49
81.57
57.54
26.04
-9.37
-44.45
-75.42
-99.69
-116.05
-124.61
-126.64
-124.30
-120.22
-116.77
-115.23
-115.35
-115.39
-113.25
-107.73
-99.25
-89.51
-80.17
-71.33
-61.03
-46.22
-24.51
4.31
37.89
72.80
106.68
139.88
175.25
215.71
261.01
305.72
340.09
353.46
338.81
295.87
231.60
157.52
86.02
27.18
-12.89
-31.88
-30.60
-12.26
17.91
53.32
87.13
113.66
129.42
132.96
124.35
104.29
74.36
37.18
-3.07
-40.82
-70.30
-86.81
-87.99
-73.98
-47.10
-11.20
28.94
67.74
99.61
119.58
124.44
113.19
87.19
49.37
3.31
-46.95
-96.51
-139.27
-168.55
-179.06
-169.56
-144.60
-113.90
-89.43
-81.24
-94.15
-126.32
-170.23
-215.08
-249.93
-266.51
-261.13
-235.61
-196.54
-153.14
-113.80
-83.11
-60.77
-43.32
-27.68
-13.56
-3.99
-2.17
-8.31
-17.67
-21.83
-12.71
13.53
55.01
105.71
158.76
209.28
254.70
293.30
322.13
336.69
332.58
308.09
265.82
212.05
154.50
99.30
49.28
4.12
-37.96
-77.93
-114.75
-145.67
-167.77
-179.91
-183.93
-184.38
-186.79
-195.31
-210.17
-227.36
-240.10
-241.82
-229.08
-203.02
-168.51
-131.51
-96.33
-64.18
-33.82
-3.73
25.78
51.81
70.11
77.49
73.93
62.86
49.55
38.48
31.27
26.41
20.78
12.01
0.17
-11.96
-20.35
-21.78
-15.65
-4.45
7.31
14.75
14.71
6.71
-7.02
-22.69
-36.37
-45.42
-49.21
-48.99
-47.07
-45.73
-46.25
-48.47
-51.10
-52.33
-50.60
-45.20
-36.23
-24.52
-11.34
1.76
13.07
20.85
23.89
22.11
16.91
11.03
7.35
7.70
11.76
17.10
20.24
18.43
11.19
0.68
-8.99
-13.49
-10.00
1.75
19.50
39.38
57.39
70.58
77.57
78.68
75.25
69.07
61.81
54.74
48.78
44.57
42.55
42.80
44.87
47.65
49.52
48.89
45.14
39.01
32.57
28.36
28.23
32.28
38.61
44.05
45.68
42.22
34.63
25.55
17.94
13.63
12.69
13.76
15.18
16.20
17.30
19.80
24.62
31.40
38.23
42.37
41.43
34.32
21.76
5.83
-10.72
-25.31
-36.13
-42.55
-45.06
-45.09
-44.53
-45.04
-47.36
-50.81
-53.60
-53.30
-47.93
-36.94
-21.74
-5.68
6.77
11.58
6.78
-6.42
-23.60
-38.51
-45.45
-41.64
-28.32
-10.35
5.94
15.41
15.99
9.08
-1.68
-12.30
-20.06
-24.25
-25.99
-27.68
-32.10
-41.62
-57.59
-79.55
-104.94
-129.30
-147.55
-155.78
-153.24
-142.94
-130.53
-121.65
-119.32
-122.13
-125.15
-122.29
-109.00
-83.92
-48.47
-5.64
41.31
88.85
132.47
166.17
183.47
179.96
156.00
118.39
78.87
50.62
43.93
62.96
104.86
161.52
222.45
277.80
320.39
346.10
353.26
341.75
312.33
267.10
210.38
149.59
94.31
54.41
36.34
40.54
60.90
86.58
106.09
111.12
98.31
68.73
26.00
-25.26
-79.34
-128.54
-162.94
-172.41
-150.80
-99.98
-31.15
38.22
90.46
114.46
109.00
81.66
44.02
6.10
-27.10
-55.94
-83.81
-114.34
-149.33
-187.98
-227.26
-262.74
-290.12
-306.40
-311.13
-306.53
-296.79
-286.38
-278.69
-275.32
-276.47
-281.83
-290.89
-302.69
-314.84
-323.28
-323.00
-309.85
-282.43
-242.80
-195.87
-147.36
-101.93
-61.70
-26.36
5.95
37.28
68.62
99.41
127.81
151.74
169.88
182.28
190.28
195.97
201.08
206.42
211.81
216.72
221.09
225.78
232.25
241.82
254.87
270.46
286.61
300.94
311.48
316.81
315.91
307.76
291.19
265.03
228.73
183.23
131.26
76.88
24.30
-23.41
-64.72
-99.63
-128.76
-152.68
-171.76
-186.79
-199.68
-213.36
-230.69
-252.68
-277.09
-298.48
-309.70
-304.44
-279.42
-235.54
-177.34
-111.66
-45.74
14.15
63.61
100.44
124.45
137.06
141.28
141.51
143.22
152.11
172.17
203.42
240.78
274.92
296.02
298.25
282.90
258.02
234.47
220.30
216.76
218.12
215.14
200.28
171.33
131.72
87.99
46.05
8.73
-24.37
-55.25
-85.62
-115.93
-145.60
-174.43
-202.85
-231.35
-259.09
-282.64
-296.37
-294.58
-274.29
-237.33
-190.10
-141.22
-98.23
-65.29
-42.61
-27.86
-18.19
-11.61
-7.22
-4.63
-3.22
-1.98
-0.02
2.89
5.94
7.30
4.68
-3.83
-18.91
-39.29
-61.52
-80.74
-92.10
-92.49
-81.96
-63.63
-42.50
-23.38
-9.11
0.26
6.90
13.74
23.17
36.19
52.50
71.08
90.63
109.82
127.13
140.76
148.92
150.41
145.17
134.78
122.27
111.40
105.48
106.15
112.43
120.89
126.82
125.89
116.11
98.57
76.83
55.17
36.52
21.13
6.61
-10.58
-33.59
-63.74
-100.56
-142.49
-187.63
-234.04
-279.20
-319.53
-350.53
-368.02
-369.83
-357.26
-334.73
-307.94
-281.29
-256.03
-230.34
-201.24
-167.26
-130.00
-94.30
-66.18
-50.43
-48.55
-58.16
-73.78
-88.53
-96.19
-92.56
-76.29
-48.84
-13.75
24.54
61.87
95.32
123.61
146.60
164.74
178.43
187.80
193.00
194.45
193.06
189.94
185.92
180.98
174.53
165.82
154.75
142.34
130.41
120.85
114.42
110.24
106.25
100.08
90.08
76.04
59.28
41.79
25.27
10.53
-2.59
-14.51
-25.46
-35.28
-43.48
-49.50
-53.16
-54.88
-55.62
-56.82
-59.45
-64.53
-72.97
-85.25
-100.74
-117.76
-133.94
-146.89
-155.42
-158.80
-158.51
-157.66
-159.07
-163.22
-167.54
-167.81
-159.77
-141.42
-110.96
-70.07
-23.31
23.99
68.19
108.34
144.46
177.25
206.33
234.79
263.93
292.22
316.84
336.00
350.61
362.43
374.95
391.09
418.31
459.97
512.14
564.73
606.00
627.38
624.79
601.71
531.05
409.01
257.68
112.91
0.10
-75.96
-116.66
-137.58
-148.36
-154.55
-154.35
-147.86
-142.02
-145.37
-164.92
-202.92
-257.65
-321.82
-385.90
-435.78
-460.80
-457.14
-427.59
-378.99
-319.60
-259.03
-205.93
-168.04
-147.47
-142.36
-147.20
-153.33
-150.68
-130.73
-90.79
-34.90
26.34
80.51
115.92
124.99
106.38
65.04
10.42
-47.12
-98.91
-140.04
-168.63
-185.06
-190.47
-185.91
-172.41
-151.75
-127.43
-104.09
-86.52
-77.83
-78.43
-85.80
-95.94
-105.18
-111.53
-114.98
-116.61
-117.52
-117.99
-117.24
-113.73
-105.88
-92.56
-73.63
-50.03
-23.88
1.97
24.71
42.47
54.97
63.40
69.66
75.30
80.78
85.44
88.26
88.77
87.71
86.96
88.68
94.28
103.77
115.63
127.38
136.67
142.02
143.23
141.13
136.95
131.66
125.51
118.08
108.60
96.53
82.02
66.04
50.12
35.87
24.36
15.75
9.30
3.71
-2.22
-9.00
-16.23
-22.83
-27.58
-29.72
-29.29
-26.90
-23.34
-19.17
-14.56
-9.44
-3.92
1.49
5.94
8.48
8.50
5.93
1.29
-4.46
-10.05
-14.20
-15.81
-14.24
-9.52
-2.42
5.78
13.76
20.54
25.74
29.49
32.03
33.49
33.75
32.67
30.36
27.36
24.51
22.63
22.10
22.67
23.58
23.87
22.88
20.50
17.08
13.30
9.64
6.26
2.87
-0.92
-5.47
-10.66
-16.14
-21.39
-26.02
-29.85
-32.81
-34.87
-35.81
-35.41
-33.60
-30.54
-26.63
-22.32
-18.05
-14.02
-10.35
-7.10
-4.28
-1.87
0.35
2.74
5.77
9.63
14.37
19.73
25.32
30.80
35.65
39.45
41.99
43.65
45.33
48.17
52.70
58.13
62.49
63.34
59.16
50.30
38.96
28.11
20.02
15.35
13.30
12.67
12.92
14.48
18.03
23.68
30.55
37.11
41.94
44.41
44.61
42.64
38.24
30.54
18.74
2.96
-15.50
-34.44
-51.70
-65.93
-77.06
-85.97
-93.92
-101.98
-110.45
-118.65
-125.00
-127.39
-124.13
-114.69
-100.29
-83.65
-68.01
-56.04
-49.01
-46.71
-48.12
-52.16
-58.07
-65.14
-72.37
-78.36
-81.77
-82.05
-79.98
-77.63
-77.57
-81.84
-91.20
-104.77
-120.06
-133.38
-140.52
-137.95
-124.08
-100.26
-70.77
-41.69
-18.73
-5.25
-0.86
-1.87
-2.91
1.01
13.15
34.57
64.42
100.37
139.05
176.27
207.56
228.91
237.62
232.76
215.14
187.04
151.80
113.42
76.15
43.95
19.74
4.85
-1.15
0.20
7.33
19.61
37.50
61.73
92.08
126.32
160.52
189.80
210.08
219.36
218.16
208.91
194.79
178.36
160.52
140.47
116.21
85.75
48.35
5.36
-39.66
-81.57
-114.73
-134.70
-139.35
-129.44
-108.57
-82.33
-57.07
-38.46
-30.03
-32.23
-42.69
-56.96
-69.80
-76.79
-75.53
-66.21
-51.19
-33.79
-16.95
-2.69
8.45
17.61
27.02
38.89
54.19
72.12
90.55
107.33
120.53
129.50
135.28
139.96
145.17
151.04
156.24
158.66
157.03
150.02
136.59
116.32
89.52
57.29
21.50
-14.94
-51.49
-81.42
-96.80
-94.33
-77.05
-50.68
-20.14
11.41
42.43
71.42
95.89
112.07
116.57
108.12
88.24
59.93
25.63
-12.08
-52.11
-94.75
-142.01
-196.31
-258.38
-325.42
-390.43
-443.11
-471.99
-468.56
-430.85
-366.14
-290.00
-221.81
-178.58
-169.53
-193.50
-239.67
-291.90
-333.99
-354.56
-349.45
-321.10
-276.40
-223.70
-170.55
-122.29
-81.98
-50.44
-26.71
-8.79
5.30
16.57
24.25
26.22
20.34
6.05
-14.36
-35.99
-52.78
-59.49
-53.11
-33.42
-2.81
34.21
71.36
101.30
116.96
113.55
90.34
51.55
5.21
-39.39
-74.43
-95.47
-101.81
-95.53
-79.92
-58.36
-33.67
-8.20
15.92
36.77
52.77
63.01
67.73
68.35
67.32
67.47
71.26
80.05
93.64
110.44
128.13
144.63
159.01
171.73
184.47
199.66
219.70
246.12
278.54
313.90
346.22
367.73
371.12
352.40
313.11
260.61
205.91
159.84
129.24
114.86
112.08
113.69
113.24
107.39
96.27
82.31
68.38
56.49
47.45
41.21
37.60
36.56
37.91
40.94
44.25
45.92
44.35
38.85
30.14
20.16
11.39
6.06
5.25
8.57
14.34
20.39
24.90
27.28
28.24
29.32
31.99
36.59
42.04
46.25
47.24
44.22
38.13
31.26
26.19
24.62
26.53
30.21
32.85
31.54
24.22
10.19
-9.46
-32.02
-53.58
-69.98
-78.09
-76.87
-67.99
-55.33
-43.75
-37.21
-37.47
-43.46
-52.05
-59.30
-61.98
-58.65
-49.73
-37.08
-23.01
-9.59
1.80
10.37
15.75
17.79
16.61
12.95
8.14
3.96
1.66
1.20
0.91
-1.96
-9.70
-22.81
-39.38
-55.76
-68.23
-74.63
-75.14
-71.77
-67.16
-63.31
-60.95
-59.74
-58.96
-58.03
-56.91
-55.84
-55.04
-54.39
-53.41
-51.34
-47.56
-41.79
-34.28
-25.83
-17.56
-10.65
-6.15
-4.72
-6.55
-11.43
-18.71
-27.52
-36.91
-45.97
-53.85
-59.74
-62.84
-62.49
-58.47
-51.43
-43.09
-36.06
-32.90
-34.91
-41.18
-48.56
-52.75
-50.33
-40.37
-24.99
-8.26
5.76
14.70
18.58
18.95
17.63
15.67
13.48
11.44
10.00
9.29
8.11
3.52
-8.24
-29.79
-60.52
-95.97
-129.08
-152.95
-163.49
-160.48
-146.95
-127.41
-106.14
-86.35
-70.51
-60.79
-59.15
-66.72
-82.77
-104.21
-126.18
-143.72
-153.77
-156.27
-153.63
-148.76
-142.79
-134.08
-119.05
-94.19
-58.49
-14.38
33.04
78.25
117.55
150.04
177.27
201.55
224.66
247.35
269.92
293.19
318.71
347.82
379.87
411.23
435.30
444.66
433.91
401.86
351.95
290.56
224.55
159.68
100.53
51.42
16.89
0.50
2.63
18.71
39.58
54.61
56.01
42.06
17.11
-11.15
-36.11
-55.45
-71.71
-90.33
-116.38
-151.68
-193.62
-235.88
-270.12
-288.24
-284.42
-256.59
-207.39
-144.24
-78.19
-21.56
15.25
26.82
14.19
-15.82
-53.19
-88.47
-115.40
-131.78
-138.27
-136.47
-127.41
-111.63
-90.68
-68.03
-49.15
-39.85
-44.10
-62.37
-91.28
-124.53
-154.59
-174.44
-178.69
-164.35
-130.98
-80.72
-18.03
50.67
117.85
176.05
219.50
245.59
255.81
255.64
253.02
255.83
269.28
293.83
324.91
354.49
373.85
376.51
360.20
327.46
284.38
238.46
196.08
160.78
132.76
109.86
89.12
68.33
46.73
24.71
2.91
-18.57
-40.34
-63.34
-88.06
-114.10
-140.41
-166.12
-191.22
-216.29
-241.32
-264.40
-281.93
-290.26
-287.99
-277.43
-263.61
-251.09
-240.82
-229.31
-211.12
-183.28
-148.66
-115.61
-93.88
-89.10
-99.18
-114.96
-124.70
-119.43
-96.04
-57.03
-8.02
44.98
96.70
142.13
175.92
192.38
187.07
158.88
110.97
50.19
-14.85
-76.21
-128.47
-169.44
-199.76
-221.96
-239.20
-254.07
-267.52
-278.39
-283.69
-279.63
-262.97
-232.04
-187.48
-132.71
-74.29
-21.64
14.71
26.39
10.97
-25.55
-69.66
-104.96
-118.55
-106.18
-73.02
-30.07
11.83
46.76
74.59
98.20
119.54
137.57
149.37
153.42
152.03
151.30
157.96
175.51
201.85
229.88
250.79
258.04
250.01
230.05
204.47
179.59
159.40
144.79
133.97
124.00
112.36
98.04
81.85
65.86
52.40
42.98
37.95
36.62
37.83
40.47
43.61
46.20
46.97
44.24
36.50
23.18
5.14
-15.08
-33.93
-48.14
-55.90
-57.47
-54.95
-51.32
-49.01
-49.18
-51.42
-54.40
-56.75
-57.68
-57.08
-55.09
-51.75
-46.76
-39.91
-31.48
-22.53
-14.71
-9.58
-7.91
-9.19
-11.93
-14.35
-15.30
-14.93
-14.75
-17.00
-23.70
-35.79
-52.64
-72.07
-90.87
-105.63
-113.64
-113.40
-105.08
-90.22
-71.38
-51.34
-32.46
-16.28
-3.55
5.48
10.87
12.93
12.51
11.15
11.01
14.32
22.47
35.35
51.23
67.34
80.88
89.82
93.70
93.59
91.65
90.28
91.26
94.92
100.12
104.59
105.85
102.29
93.70
81.21
66.60
51.49
36.83
22.91
9.79
-2.26
-12.61
-20.76
-26.78
-31.47
-36.05
-41.72
-49.10
-58.02
-67.54
-76.35
-83.22
-87.31
-88.35
-86.69
-83.45
-80.50
-80.18
-84.65
-94.68
-108.64
-122.15
-129.23
-124.51
-105.97
-76.37
-42.80
-14.32
1.66
2.06
-10.72
-30.15
-48.30
-58.67
-58.04
-47.05
-29.29
-9.91
6.04
15.01
15.67
9.03
-2.35
-15.39
-27.54
-37.13
-43.37
-46.27
-46.45
-45.30
-44.85
-47.26
-53.93
-64.79
-78.20
-91.58
-102.83
-111.42
-118.42
-125.63
-134.27
-144.11
-153.63
-160.93
-164.68
-164.55
-160.72
-153.05
-140.68
-122.33
-97.28
-66.42
-32.22
1.95
32.97
59.16
80.71
99.44
117.95
138.82
163.73
193.40
227.19
262.62
295.92
323.16
341.61
350.76
352.45
349.36
344.05
337.83
330.04
319.20
304.28
285.51
263.98
240.77
215.41
186.73
153.68
115.82
74.48
32.84
-4.72
-34.07
-49.00
-48.78
-37.04
-17.17
6.16
28.34
45.39
54.15
52.22
37.96
10.73
-27.14
-69.80
-109.83
-140.56
-158.87
-166.26
-167.37
-166.35
-164.28
-157.91
-141.81
-113.66
-76.76
-39.84
-13.54
-5.63
-17.81
-45.48
-79.94
-110.66
-129.35
-130.94
-114.58
-83.66
-45.30
-9.10
15.18
19.87
2.55
-35.33
-88.36
-148.31
-205.32
-249.24
-271.41
-266.47
-234.88
-181.34
-115.59
-48.47
11.58
61.00
101.21
136.39
173.63
207.69
235.92
252.43
252.14
233.73
200.63
159.75
118.41
81.24
48.24
17.46
-14.65
-50.01
-87.58
-123.99
-155.34
-178.98
-194.28
-202.60
-204.71
-201.45
-192.98
-179.09
-160.33
-138.59
-116.94
-98.73
-86.51
-79.87
-76.20
-71.08
-59.89
-39.63
-10.09
26.07
64.10
98.56
125.40
142.66
150.99
153.12
152.69
152.99
156.12
162.66
171.83
182.31
192.62
201.71
209.17
215.32
220.94
226.85
233.55
241.01
248.71
255.89
261.96
266.66
270.09
272.67
274.86
277.03
279.11
280.45
279.62
274.91
265.08
250.21
232.30
215.07
202.97
200.07
209.10
230.78
264.15
306.95
355.98
407.30
456.35
498.18
528.06
542.40
539.21
518.54
482.34
433.93
377.21
315.60
251.90
187.99
124.74
62.07
-0.82
-64.98
-131.25
-199.81
-270.35
-341.60
-411.45
-477.29
-536.39
-586.01
-623.76
-647.75
-656.50
-650.24
-630.27
-599.03
-560.27
-518.95
-480.57
-450.02
-430.71
-423.74
-430.25
-449.23
-477.86
-512.61
-550.80
-591.27
-634.13
-680.38
-731.10
-790.15
-857.10
-924.92
-981.49
-1014.44
-1015.83
-984.44
-925.40
-847.76
-767.34
-694.47
-630.77
-571.47
-511.36
-448.62
-384.57
-321.60
-261.26
-211.59
-175.63
-149.94
-127.42
-102.83
-75.66
-48.52
-24.64
44.58
175.22
347.26
518.17
654.09
743.54
790.97
806.63
800.89
782.26
749.17
701.96
645.69
588.84
538.09
495.85
461.30
432.48
407.37
378.66
342.66
300.83
258.52
220.27
187.69
160.11
136.15
114.36
90.48
62.92
32.78
5.13
-15.39
-26.32
-27.14
-18.25
-1.19
20.69
44.88
69.41
93.07
114.74
132.90
145.75
154.84
158.68
155.91
146.59
131.65
112.66
90.84
66.95
41.44
15.65
-9.72
-33.30
-52.94
-66.99
-74.39
-75.24
-70.33
-60.86
-46.97
-29.67
-9.61
13.75
40.26
69.13
99.11
129.63
153.50
168.27
173.09
169.50
161.88
154.29
149.36
147.80
148.68
150.13
151.14
149.80
133.06
93.95
32.63
-43.53
-124.31
-201.39
-270.05
-325.28
-369.26
-403.55
-427.03
-438.91
-439.57
-430.66
-414.71
-394.48
-371.88
-348.85
-326.21
-303.11
-279.12
-254.59
-230.63
-208.60
-189.49
-173.25
-159.63
-147.48
-134.83
-120.29
-103.40
-84.72
-65.34
-46.37
-28.54
-12.47
1.83
14.90
27.17
38.69
49.23
58.34
65.73
71.18
74.62
76.29
76.59
75.91
74.49
72.41
69.73
66.53
62.95
59.08
55.16
51.32
47.65
44.10
40.59
36.94
32.96
28.49
23.37
17.57
11.07
3.99
-3.50
-11.14
-18.64
-25.75
-32.18
-37.71
-42.15
-45.41
-47.41
-48.15
-47.70
-46.12
-43.56
-40.12
-35.94
-31.16
-25.92
-20.38
-14.70
-9.08
-3.67
1.32
5.84
9.76
13.05
15.68
17.68
19.08
19.92
20.36
20.51
20.63
20.90
21.54
22.65
24.21
26.07
28.01
29.83
31.33
32.54
33.54
34.49
35.57
36.79
38.02
39.12
39.96
40.61
41.44
43.02
45.96
50.77
57.52
65.92
75.44
85.47
95.67
106.06
117.05
129.11
142.60
157.35
172.87
188.42
203.38
217.55
231.26
245.19
260.25
277.47
297.70
321.45
348.27
376.26
402.01
421.20
429.87
425.84
409.60
384.08
353.42
321.50
290.73
261.93
234.91
209.41
185.57
163.91
144.86
128.22
113.27
99.00
84.76
70.56
57.00
44.92
34.84
26.69
19.72
13.05
5.90
-1.91
-9.93
-17.47
-23.78
-28.53
-31.83
-34.16
-36.05
-38.03
-40.30
-42.85
-45.50
-47.91
-49.88
-51.29
-52.22
-52.89
-53.74
-55.19
-57.61
-61.16
-65.63
-70.46
-74.76
-77.50
-77.82
-75.32
-70.27
-63.49
-56.18
-49.03
-41.91
-33.34
-21.03
-2.59
23.37
56.29
93.84
132.17
167.20
195.29
213.57
219.98
213.23
193.41
162.42
124.46
85.37
51.10
25.57
9.25
-0.85
-9.41
-20.25
-34.54
-50.43
-64.42
-73.74
-77.90
-78.96
-80.10
-83.90
-90.84
-99.34
-106.72
-110.96
-111.63
-109.93
-107.83
-106.54
-106.01
-104.93
-101.67
-95.39
-86.56
-76.72
-67.41
-59.33
-51.95
-44.07
-34.95
-25.14
-16.44
-10.94
-9.79
-12.44
-17.05
-21.56
-24.72
-26.30
-26.20
-23.40
-15.76
-0.74
22.97
53.97
87.84
118.04
137.53
140.40
123.19
85.89
32.74
-27.70
-83.67
-122.61
-134.72
-116.13
-70.61
-8.83
54.59
105.18
132.33
131.66
105.45
61.38
10.15
-37.26
-72.06
-89.32
-88.67
-73.97
-52.14
-31.26
-18.51
-17.89
-28.73
-45.70
-60.63
-65.74
-56.79
-34.74
-5.36
23.03
42.55
48.30
39.73
20.44
-3.10
-23.77
-35.98
-37.36
-29.19
-15.44
-0.85
11.11
19.19
23.99
26.66
27.64
26.53
22.81
16.82
10.14
4.83
2.08
1.29
0.16
-3.88
-12.33
-24.59
-38.09
-49.43
-55.91
-56.38
-51.33
-41.77
-28.07
-10.01
12.17
36.25
57.24
68.40
64.03
42.50
8.05
-29.71
-59.98
-75.04
-73.01
-57.59
-35.39
-12.62
6.83
21.25
31.40
37.70
39.92
38.19
34.38
32.47
37.39
52.75
79.18
117.07
164.19
216.70
270.24
321.04
366.72
405.98
437.60
459.70
474.75
484.48
489.80
491.13
489.46
487.49
489.22
498.38
516.78
549.65
597.67
655.84
713.66
758.33
779.32
771.95
738.19
646.38
485.08
262.93
9.06
-239.21
-452.57
-617.60
-734.30
-809.93
-854.05
-869.84
-860.76
-831.74
-789.79
-742.68
-696.66
-655.15
-619.30
-589.06
-559.20
-525.79
-487.43
-445.77
-404.17
-365.71
-331.80
-302.40
-276.83
-251.36
-223.29
-191.83
-158.35
-125.51
-96.02
-71.59
-52.67
-39.17
-29.25
-21.30
-14.33
-8.10
-2.81
1.21
4.16
6.63
9.23
12.93
18.34
25.56
34.29
43.97
53.65
62.81
71.31
79.25
86.88
94.51
102.45
111.08
120.71
130.90
141.32
151.54
161.05
169.25
175.34
178.29
176.53
172.50
166.69
159.46
151.11
141.90
132.21
122.40
112.93
104.28
96.98
90.84
85.82
81.73
78.28
75.11
71.74
67.71
62.66
56.42
48.58
39.13
28.33
16.67
4.85
-6.40
-16.35
-24.33
-29.83
-32.82
-33.36
-31.66
-28.07
-22.97
-16.84
-10.07
-3.02
4.00
10.66
16.72
21.98
26.31
29.63
31.85
32.98
33.05
32.16
30.41
27.99
25.07
21.88
18.61
15.38
12.29
9.35
6.53
3.72
0.79
-2.36
-5.84
-9.70
-13.93
-18.45
-23.16
-27.86
-32.31
-36.29
-39.58
-41.99
-43.37
-43.64
-42.79
-40.90
-38.11
-34.55
-30.45
-26.00
-21.42
-16.90
-12.56
-8.48
-4.64
-0.98
2.61
6.18
9.79
13.34
16.69
19.65
21.98
23.49
23.98
23.33
20.55
15.02
6.75
-3.51
-14.86
-26.70
-38.55
-50.33
-61.85
-73.64
-85.95
-98.43
-110.21
-120.39
-128.51
-134.26
-137.77
-139.15
-140.68
-144.13
-149.83
-156.60
-163.13
-168.82
-173.31
-177.19
-180.71
-189.80
-208.59
-236.71
-269.50
-301.79
-330.78
-354.91
-376.01
-395.70
-426.97
-478.45
-548.52
-625.61
-696.51
-753.73
-794.21
-824.18
-850.00
-894.50
-970.04
-1069.12
-1167.36
-1239.43
-1272.85
-1265.30
-1230.45
-1182.37
-1156.76
-1177.87
-1247.33
-1346.45
-1452.26
-1550.46
-1630.08
-1693.34
-1583.65
-1221.81
-649.10
-8.65
560.98
996.11
1265.92
1435.55
1548.58
1628.62
1661.30
1633.18
1550.14
1433.91
1310.08
1195.81
1104.30
1036.53
995.95
964.91
923.88
862.24
783.85
700.63
623.87
564.93
523.84
498.18
471.47
430.21
372.11
305.75
241.08
185.93
144.82
115.47
96.64
82.41
69.07
57.39
51.15
53.37
63.85
80.37
97.46
110.85
116.36
110.14
94.47
75.86
61.61
56.60
62.37
77.37
99.60
126.88
155.93
181.86
197.45
195.76
173.54
134.09
87.34
46.51
23.02
22.51
44.01
81.08
125.31
169.20
207.24
235.57
251.10
251.18
234.23
201.12
155.28
102.17
47.92
-2.47
-46.61
-85.04
-120.28
-154.90
-189.54
-222.07
-248.12
-263.14
-264.49
-252.83
-232.01
-207.33
-183.75
-164.45
-150.71
-142.27
-137.90
-135.64
-132.59
-125.00
-109.01
-82.14
-45.02
-2.06
39.38
71.12
86.89
84.17
64.69
32.99
-5.86
-48.09
-91.67
-135.05
-175.55
-208.42
-227.72
-228.59
-209.39
-172.74
-124.49
-71.63
-20.03
26.45
65.81
96.76
117.96
128.11
126.75
115.49
98.32
81.01
69.45
68.18
79.14
101.68
133.26
170.48
210.10
249.33
285.82
317.32
341.58
356.36
359.81
350.94
329.88
298.20
258.68
214.88
170.35
127.82
88.69
53.13
20.54
-9.63
-37.23
-61.37
-80.72
-94.16
-101.34
-102.92
-100.42
-95.98
-92.05
-90.77
-93.70
-101.30
-112.50
-125.04
-135.89
-142.31
-142.60
-136.48
-124.69
-108.38
-88.38
-64.88
-37.76
-7.09
26.33
60.94
94.62
125.32
151.23
171.17
184.51
191.15
191.39
185.65
174.44
158.22
137.41
112.47
83.98
52.61
19.39
-14.45
-47.55
-78.81
-107.86
-135.49
-163.82
-195.63
-232.76
-274.54
-317.01
-353.81
-378.58
-387.63
-381.29
-363.28
-338.39
-309.91
-278.63
-243.71
-204.62
-162.80
-121.79
-85.72
-57.33
-36.59
-20.69
-5.46
12.76
35.96
64.22
96.19
130.41
166.10
203.22
241.55
279.62
314.12
340.50
354.34
353.19
337.61
310.94
278.02
243.65
211.52
184.03
162.51
147.19
137.07
129.85
122.08
110.33
92.62
69.46
43.88
20.62
4.30
-2.09
1.70
12.95
26.71
37.27
39.71
31.32
12.05
-15.69
-47.88
-79.91
-107.60
-128.00
-139.84
-143.77
-141.81
-136.44
-129.73
-122.70
-115.55
-108.34
-101.71
-97.01
-95.62
-97.88
-102.34
-106.08
-105.92
-99.78
-87.75
-71.64
-53.98
-36.71
-20.46
-4.81
10.92
26.91
42.53
56.40
66.95
72.87
73.37
68.24
57.84
42.76
23.73
1.47
-23.62
-51.26
-81.25
-113.18
-146.11
-178.13
-206.37
-227.13
-236.68
-232.45
-214.14
-184.50
-149.06
-114.76
-87.92
-72.24
-67.74
-70.87
-75.99
-77.29
-70.76
-55.27
-32.47
-5.60
21.94
48.05
72.43
96.27
121.55
149.93
181.99
217.09
253.35
288.06
318.24
341.03
354.20
356.61
348.33
330.46
304.93
273.73
238.62
200.86
161.23
120.38
79.34
39.82
4.05
-26.10
-50.29
-70.17
-88.68
-108.19
-128.44
-145.84
-154.79
-150.37
-131.09
-100.15
-64.19
-30.28
-3.24
15.66
27.72
34.65
37.06
34.16
24.66
8.08
-14.30
-39.70
-64.03
-82.67
-91.10
-85.43
-63.05
-23.10
33.05
101.48
175.59
246.62
304.82
341.25
350.20
330.89
288.24
231.54
171.74
118.39
77.47
50.84
37.24
33.85
37.45
45.29
55.17
65.63
75.88
85.67
94.91
103.12
109.24
111.39
107.20
94.24
70.94
37.89
-1.22
-39.57
-68.85
-82.35
-78.24
-61.03
-40.28
-26.89
-28.43
-46.43
-76.55
-111.58
-145.41
-175.85
-204.57
-235.09
-269.97
-308.93
-349.28
-387.23
-419.86
-446.30
-467.90
-487.17
-506.68
-528.18
-551.79
-575.47
-594.68
-602.80
-592.75
-559.71
-503.43
-429.24
-346.63
-265.72
-193.50
-131.43
-75.71
-19.63
43.20
116.36
199.18
286.86
371.56
443.68
494.23
517.73
514.94
493.72
466.39
444.89
435.43
436.26
439.25
434.97
418.14
390.27
358.22
329.88
309.91
297.88
289.65
280.33
267.01
249.53
229.11
206.39
180.49
149.36
111.09
65.37
13.93
-39.64
-91.23
-137.60
-177.18
-210.53
-239.49
-266.35
-292.85
-319.57
-345.99
-371.38
-395.91
-420.99
-448.29
-478.03
-507.27
-529.75
-537.82
-525.59
-491.95
-441.48
-382.92
-325.63
-276.72
-239.32
-213.14
-196.36
-187.16
-184.42
-187.16
-193.86
-202.12
-209.27
-213.28
-213.51
-210.68
-206.49
-202.55
-199.73
-197.80
-195.66
-191.95
-185.68
-176.66
-165.49
-153.15
-140.54
-128.03
-115.37
-101.85
-86.73
-69.62
-50.68
-30.71
-10.74
8.15
25.13
39.75
51.90
61.67
69.23
74.70
78.11
79.41
78.63
75.84
71.31
65.41
58.76
52.14
46.57
43.15
42.75
45.97
52.85
62.95
75.51
89.69
104.89
120.73
137.11
153.79
170.40
186.19
200.27
211.91
220.98
228.17
234.66
241.76
250.21
259.71
268.82
275.53
277.79
274.19
264.59
249.96
232.47
215.30
202.78
199.60
209.62
233.76
268.48
306.02
336.48
351.37
346.82
324.91
292.16
256.36
223.12
194.22
168.24
142.62
115.66
87.13
57.44
26.17
-8.46
-48.61
-94.42
-142.38
-185.37
-214.55
-223.08
-208.86
-175.14
-128.49
-76.10
-23.72
24.38
64.10
90.62
99.07
86.74
55.31
11.48
-34.71
-73.26
-97.14
-103.77
-94.65
-74.21
-48.04
-21.49
1.57
19.60
33.28
44.37
53.83
60.35
60.42
50.48
29.45
0.81
-28.02
-48.48
-54.49
-44.78
-22.85
5.51
34.91
61.82
84.59
102.06
112.65
114.48
106.53
89.74
67.34
43.78
22.96
6.75
-5.33
-15.22
-24.87
-34.91
-44.79
-53.47
-60.45
-66.41
-72.86
-81.27
-92.08
-104.46
-116.83
-127.63
-135.83
-140.71
-141.27
-135.83
-122.30
-99.12
-66.26
-25.52
20.03
67.10
112.72
154.03
187.81
210.45
219.12
213.38
196.64
175.78
159.18
153.89
162.84
184.06
211.42
236.89
252.93
254.43
239.42
208.99
166.82
118.24
69.78
28.21
-0.59
-12.90
-8.74
6.86
24.44
32.71
22.99
-6.39
-47.94
-86.95
-107.21
-97.95
-58.87
-0.40
60.53
107.26
129.37
125.21
100.83
66.35
32.23
6.53
-6.38
-5.86
5.43
22.56
39.65
51.73
56.11
52.90
44.35
33.14
21.00
7.64
-8.97
-31.75
-63.15
-103.54
-150.11
-196.62
-234.59
-255.29
-252.44
-223.86
-171.97
-102.90
-24.95
52.81
121.56
173.56
203.19
207.83
188.75
151.06
102.32
50.50
1.84
-40.45
-76.10
-106.68
-134.75
-162.81
-192.78
-225.76
-261.52
-298.33
-333.08
-361.68
-379.80
-383.83
-371.71
-343.42
-301.15
-248.81
-191.27
-133.28
-78.50
-28.86
15.63
56.29
94.68
131.44
165.68
195.04
216.67
228.43
229.73
221.68
206.84
188.02
167.26
145.57
122.99
99.21
73.87
46.72
17.34
-14.53
-48.55
-83.04
-114.39
-137.76
-148.53
-144.12
-125.27
-95.92
-61.82
-28.69
-0.65
20.28
33.93
41.38
44.32
44.73
44.55
45.08
46.33
46.87
44.46
37.04
24.09
7.17
-10.73
-26.47
-38.30
-46.84
-54.77
-65.79
-83.20
-108.59
-141.08
-177.38
-212.22
-239.35
-253.01
-249.37
-227.86
-191.69
-147.04
-101.24
-60.41
-27.46
-1.67
20.31
42.62
68.01
96.82
127.38
157.04
183.73
207.02
228.18
249.48
272.86
298.39
323.51
343.35
352.02
344.70
319.62
278.79
227.27
171.56
117.40
68.54
26.57
-8.71
-38.58
-64.99
-90.27
-116.44
-144.29
-172.76
-198.84
-218.36
-227.40
-223.27
-204.99
-173.75
-133.01
-88.45
-47.50
-17.45
-3.23
-5.41
-19.91
-39.74
-57.88
-69.88
-74.47
-72.90
-67.07
-58.43
-47.99
-36.76
-26.16
-17.68
-11.87
-7.84
-3.73
2.21
10.38
19.55
27.59
32.69
34.39
33.81
32.96
33.51
36.06
39.90
43.54
45.72
45.94
44.66
42.92
41.75
41.75
42.87
44.51
45.39
43.89
38.44
27.99
12.62
-6.19
-25.62
-41.97
-51.73
-52.51
-43.92
-27.85
-8.01
11.33
27.07
38.42
47.32
57.34
71.91
92.55
117.94
144.33
166.99
181.80
186.31
179.95
163.61
139.03
108.44
74.42
39.74
7.20
-20.81
-42.70
-58.03
-67.51
-72.83
-76.24
-80.09
-86.14
-95.06
-106.11
-117.24
-125.84
-129.76
-128.31
-122.22
-113.37
-103.63
-94.17
-85.32
-76.92
-69.12
-62.52
-58.09
-56.09
-55.68
-54.74
-50.91
-42.88
-31.33
-18.97
-9.62
-6.72
-11.97
-24.79
-42.67
-62.09
-79.43
-91.67
-96.49
-92.16
-77.60
-52.74
-19.08
19.80
58.74
92.26
116.18
128.96
131.97
128.49
122.28
116.15
111.46
108.61
107.40
107.07
105.60
99.41
84.06
56.45
17.28
-27.54
-68.10
-93.99
-98.66
-82.10
-50.72
-14.66
16.32
35.91
42.39
37.73
25.30
8.13
-11.94
-33.97
-56.99
-79.16
-98.05
-111.58
-119.10
-122.27
-124.03
-126.95
-131.10
-133.56
-129.46
-114.88
-89.27
-56.18
-21.80
8.29
31.61
49.52
65.54
82.53
99.96
113.19
115.13
99.57
64.88
16.01
-36.14
-77.92
-97.46
-88.38
-51.30
7.02
76.29
145.68
205.90
250.30
275.32
280.50
268.37
243.87
213.30
182.91
157.67
140.51
132.15
131.23
134.55
137.42
134.46
121.12
95.04
56.88
9.97
-41.09
-91.64
-137.62
-175.65
-202.75
-216.79
-217.47
-207.23
-191.27
-176.15
-167.17
-165.97
-169.71
-172.34
-167.75
-152.83
-129.07
-101.54
-76.31
-57.57
-46.49
-42.04
-43.01
-49.62
-63.49
-85.45
-113.28
-140.83
-159.54
-162.57
-148.91
-124.93
-102.43
-93.68
-105.70
-137.13
-178.66
-217.08
-240.71
-243.52
-226.28
-194.77
-156.31
-116.60
-78.34
-41.71
-6.02
28.91
62.31
93.33
121.91
149.23
177.00
205.79
233.81
256.81
269.60
268.44
252.91
226.24
194.01
162.36
136.04
117.83
108.66
108.10
114.58
125.34
136.41
143.10
141.40
129.35
107.84
80.19
50.66
22.81
-1.83
-23.73
-44.30
-64.20
-82.11
-94.80
-98.40
-90.54
-71.76
-45.88
-18.78
3.68
17.63
22.23
19.47
13.27
8.05
7.52
13.68
26.34
43.14
60.18
73.08
78.60
75.94
67.30
57.17
50.58
50.84
57.65
66.78
71.70
66.55
48.95
21.19
-11.01
-41.30
-65.41
-82.56
-94.50
-103.41
-109.99
-113.03
-110.61
-101.80
-87.80
-71.43
-55.86
-43.04
-32.95
-24.26
-15.48
-5.93
3.84
12.39
18.33
21.02
21.03
19.90
19.36
20.48
23.24
26.55
28.74
28.42
24.89
18.44
10.12
1.23
-7.13
-14.29
-20.15
-25.01
-29.33
-33.39
-37.26
-40.66
-43.18
-44.48
-44.23
-42.16
-38.14
-32.12
-24.35
-15.16
-4.72
7.31
21.41
37.90
55.95
73.14
85.86
90.44
84.70
69.02
46.56
21.74
-0.57
-16.48
-23.80
-22.16
-12.97
0.78
14.94
25.65
28.85
23.38
10.82
-5.26
-21.09
-34.55
-45.79
-56.57
-67.17
-78.40
-87.32
-89.87
-82.67
-64.79
-38.17
-6.61
25.30
54.92
75.55
82.71
73.12
46.80
8.58
-32.14
-64.00
-77.73
-67.03
-37.08
5.21
52.03
97.85
140.62
181.03
220.49
242.97
266.17
284.00
293.69
294.52
288.18
277.65
265.22
250.73
231.18
205.12
168.00
122.27
75.08
35.40
10.03
0.14
0.79
3.21
0.98
-12.26
-35.42
-62.92
-87.35
-102.66
-106.32
-100.05
-89.28
-80.08
-80.71
-95.15
-122.48
-156.34
-186.13
-200.31
-190.57
-155.81
-102.72
-45.37
1.61
28.29
33.26
23.35
9.53
1.06
1.01
5.76
7.16
-1.86
-23.49
-54.05
-86.03
-112.14
-128.56
-136.12
-138.69
-140.36
-143.36
-147.27
-150.28
-150.98
-149.79
-148.67
-149.64
-153.16
-157.31
-158.67
-153.95
-141.94
-124.22
-104.48
-87.06
-75.32
-70.43
-71.18
-74.75
-77.89
-78.21
-75.00
-69.45
-64.28
-62.92
-68.70
-83.98
-109.53
-143.97
-183.56
-222.59
-254.30
-272.58
-273.49
-256.49
-224.23
-181.37
-132.82
-82.30
-31.91
17.35
64.74
109.33
149.91
185.55
216.20
242.91
267.46
292.02
318.70
349.18
384.09
422.19
459.93
491.55
510.49
511.55
492.92
457.12
410.08
358.87
309.06
263.30
221.45
181.95
143.62
106.59
72.22
42.14
17.11
-3.48
-21.51
-39.48
-59.84
-84.25
-113.39
-147.13
-184.77
-224.90
-265.37
-303.07
-334.40
-356.42
-368.27
-372.17
-372.93
-375.80
-383.64
-394.93
-403.77
-402.12
-383.25
-344.79
-290.05
-227.17
-166.76
-118.66
-89.24
-80.06
-88.04
-107.26
-131.18
-154.41
-173.26
-185.15
-187.61
-177.94
-154.11
-116.29
-67.78
-14.57
36.60
80.60
115.41
141.77
161.90
177.60
189.30
196.32
197.78
193.68
185.70
177.34
173.40
178.40
194.56
220.31
250.40
277.77
296.50
304.07
301.36
290.86
274.31
251.50
221.68
186.22
150.32
122.12
108.98
113.10
129.41
147.26
155.19
145.87
118.53
77.64
29.81
-18.86
-63.61
-100.08
-123.62
-130.16
-118.50
-92.32
-60.36
-33.62
-21.34
-27.62
-50.54
-83.82
-120.09
-153.49
-180.90
-201.39
-214.81
-220.75
-218.05
-205.18
-180.84
-144.94
-99.43
-48.33
2.79
48.18
83.11
104.93
112.98
108.19
92.31
67.66
37.20
4.33
-27.30
-54.57
-75.75
-91.05
-102.50
-113.12
-125.75
-141.60
-159.41
-175.21
-183.35
-178.22
-156.62
-119.72
-73.44
-26.88
10.95
34.59
44.46
46.52
49.67
61.98
87.51
125.14
169.19
211.66
244.60
262.07
261.18
242.45
209.72
169.62
130.41
99.96
83.19
80.01
84.96
89.16
84.17
66.01
37.56
7.80
-11.74
-11.51
12.91
59.96
123.51
195.01
265.20
324.95
365.83
381.31
368.26
328.53
268.71
198.48
127.64
63.59
10.05
-32.42
-64.99
-89.40
-107.27
-120.16
-129.70
-137.32
-143.86
-149.30
-153.20
-155.01
-154.96
-154.28
-155.10
-159.95
-171.33
-191.43
-221.60
-261.62
-308.46
-355.96
-395.49
-418.33
-418.81
-396.48
-356.45
-307.22
-257.38
-212.62
-174.53
-141.46
-110.36
-78.73
-45.48
-10.85
24.30
59.26
93.78
128.12
162.63
197.19
230.61
260.89
285.81
303.65
313.73
316.04
310.66
297.04
274.13
240.78
196.93
144.50
87.74
32.54
-14.95
-49.50
-67.71
-68.30
-52.09
-21.92
17.45
59.58
97.28
123.87
134.62
128.00
105.99
73.49
36.97
2.72
-24.45
-42.24
-51.20
-54.37
-56.15
-60.07
-66.67
-73.04
-74.16
-66.12
-48.72
-26.13
-5.26
7.50
9.37
1.79
-11.49
-27.22
-44.32
-63.18
-83.65
-104.30
-122.48
-135.31
-140.76
-138.77
-131.48
-122.44
-115.33
-112.28
-115.33
-125.80
-143.39
-164.77
-184.36
-196.19
-195.94
-181.79
-153.24
-113.43
-67.18
-19.27
28.07
73.71
115.43
148.76
167.89
169.48
151.30
115.02
66.01
13.99
-25.98
-40.16
-23.97
3.54
29.82
49.13
64.69
77.32
87.18
91.00
83.29
58.96
16.98
-36.76
-94.26
-146.63
-188.30
-205.72
-191.29
-147.76
-88.04
-27.27
26.00
65.95
98.85
128.69
156.51
178.26
187.63
176.87
142.25
85.35
10.22
-72.81
-151.55
-213.64
-251.64
-262.65
-248.38
-214.43
-169.68
-125.02
-88.46
-64.60
-52.89
-51.18
-56.38
-66.53
-81.08
-100.28
-123.60
-146.42
-162.02
-162.80
-145.01
-106.79
-49.59
21.60
98.49
172.29
231.86
268.51
279.16
264.95
234.58
199.86
170.69
150.49
125.79
85.41
24.72
-37.86
-94.52
-141.47
-182.34
-218.72
-251.95
-281.99
-305.25
-317.02
-313.81
-297.63
-271.72
-240.49
-208.00
-177.64
-151.04
-126.66
-101.68
-73.69
-43.93
-13.97
14.03
38.45
58.33
74.48
90.28
109.95
136.28
167.43
198.88
224.46
239.18
241.09
232.48
219.39
208.67
205.34
210.62
223.41
241.22
261.09
279.31
291.34
292.51
279.71
253.43
218.79
184.71
160.57
152.42
160.55
179.90
202.77
222.40
235.35
242.20
246.25
251.62
260.97
274.47
289.52
301.35
304.59
294.88
270.31
231.87
183.24
129.27
75.11
25.37
-16.04
-46.02
-62.62
-65.51
-56.44
-39.05
-18.13
1.73
17.20
26.72
30.02
27.49
19.30
5.37
-14.58
-40.53
-71.80
-106.59
-141.92
-173.86
-198.13
-210.70
-208.24
-189.08
-154.16
-107.74
-56.98
-10.40
23.93
40.70
38.53
20.40
-7.95
-40.63
-73.64
-105.05
-133.67
-158.01
-175.64
-184.51
-184.55
-179.09
-174.75
-179.11
-197.07
-223.45
-246.37
-251.71
-231.63
-188.73
-132.67
-74.02
-20.06
26.12
64.54
95.61
120.14
137.34
145.92
145.50
137.07
122.52
103.77
81.71
54.93
20.04
-27.13
-86.49
-152.67
-215.73
-264.31
-289.87
-289.84
-268.42
-233.88
-194.85
-157.73
-125.60
-99.71
-81.06
-70.99
-70.52
-79.84
-97.79
-121.66
-148.86
-175.01
-194.33
-200.23
-187.15
-152.61
-98.99
-33.25
35.56
95.67
137.48
154.05
142.52
105.20
50.61
-7.96
-56.02
-81.43
-81.79
-61.25
-28.72
7.06
41.06
73.12
105.07
129.22
150.90
161.15
151.97
118.75
63.06
-7.43
-81.20
-146.47
-194.25
-219.05
-222.70
-209.25
-184.46
-153.96
-122.27
-92.54
-66.84
-46.61
-31.66
-22.73
-17.96
-13.50
-4.33
13.94
42.97
80.46
120.29
154.93
175.61
176.56
155.76
115.57
62.52
6.02
-43.51
-77.17
-89.58
-81.01
-56.19
-22.68
11.63
40.91
62.41
76.16
83.57
86.53
86.73
86.11
86.91
90.73
97.39
103.83
104.59
93.82
68.32
29.98
-14.07
-53.73
-79.60
-86.46
-74.74
-49.76
-19.09
10.25
33.82
50.18
60.13
65.32
66.78
64.31
56.81
43.48
25.21
5.42
-10.61
-17.64
-12.76
3.10
25.53
48.40
66.44
77.14
81.45
82.80
85.64
93.81
109.57
133.13
162.86
195.53
226.86
252.29
267.95
271.40
262.18
241.76
212.96
179.26
144.14
110.82
82.16
60.52
47.40
42.84
45.06
50.79
56.39
59.44
59.83
59.78
62.56
70.68
84.51
101.88
119.14
132.38
138.91
137.85
130.25
118.39
104.73
91.17
78.02
64.04
46.86
24.33
-4.26
-37.24
-70.76
-99.79
-119.68
-127.64
-123.61
-111.04
-95.94
-84.57
-80.68
-83.79
-89.63
-92.51
-88.47
-77.01
-61.73
-47.65
-37.45
-29.54
-19.01
-1.27
24.50
54.09
80.36
95.01
91.18
66.40
23.51
-29.94
-83.67
-126.74
-149.82
-146.88
-118.92
-74.68
-28.07
6.32
17.65
1.54
-39.17
-99.97
-166.52
-220.22
-247.93
-248.28
-228.93
-199.52
-167.04
-135.23
-105.91
-79.90
-58.84
-44.68
-37.86
-36.27
-36.25
-34.16
-28.03
-17.91
-5.12
8.09
17.73
20.31
14.38
0.32
-20.87
-48.19
-81.49
-120.71
-165.44
-213.39
-259.43
-295.53
-313.93
-310.52
-285.77
-245.03
-196.11
-146.62
-101.34
-62.02
-28.42
0.59
25.44
47.32
66.91
84.44
99.68
112.22
120.79
125.90
128.63
129.84
132.82
140.80
155.52
176.52
201.65
226.59
248.74
266.06
262.25
227.61
162.59
78.01
-11.53
-86.08
-145.50
-192.50
-229.17
-256.66
-274.64
-281.47
-276.91
-262.96
-243.20
-222.91
-204.89
-191.11
-183.15
-180.26
-181.09
-184.74
-190.97
-199.60
-210.92
-222.94
-233.21
-239.74
-240.26
-233.30
-219.08
-199.29
-176.43
-153.61
-132.48
-114.03
-98.84
-86.71
-77.06
-69.49
-63.81
-59.88
-57.70
-56.65
-55.97
-55.07
-53.40
-50.58
-46.56
-41.59
-35.95
-29.98
-23.78
-17.25
-10.30
-2.86
5.04
13.21
21.24
28.61
34.72
39.01
40.97
40.29
36.91
31.00
22.95
13.28
2.66
-8.26
-18.73
-28.10
-35.78
-41.23
-44.13
-44.30
-41.73
-36.60
-29.21
-19.84
-8.76
3.76
17.47
31.94
46.62
60.75
73.43
83.90
91.68
96.85
99.92
101.75
103.29
105.25
107.94
111.22
114.80
118.43
122.29
126.81
132.69
140.45
150.20
161.57
173.79
186.13
198.23
210.29
222.93
237.02
253.49
273.21
296.87
324.45
354.83
385.11
410.96
427.66
431.77
422.55
402.33
375.66
347.43
321.17
298.16
277.92
259.30
241.66
225.00
209.63
195.47
181.67
167.03
150.59
132.39
113.58
96.11
81.60
70.59
62.09
54.21
44.70
31.97
15.69
-3.01
-21.98
-39.04
-52.63
-62.15
-67.64
-69.64
-68.76
-65.63
-60.75
-54.51
-47.41
-39.84
-31.93
-22.94
-12.14
0.67
14.84
28.80
40.93
50.06
55.88
59.34
63.65
71.41
83.35
98.12
113.12
126.12
136.23
143.31
148.43
155.88
168.10
184.53
202.09
217.05
227.62
234.74
240.34
248.05
265.80
297.81
342.96
395.31
446.92
491.67
526.63
550.01
563.67
576.81
595.41
619.75
644.19
660.13
661.40
646.43
616.72
533.12
378.60
159.69
-91.67
-333.87
-536.04
-686.14
-774.44
-819.63
-837.35
-830.53
-800.07
-748.49
-681.81
-613.06
-551.84
-504.30
-474.96
-462.08
-455.63
-445.79
-426.00
-395.13
-356.95
-316.85
-280.18
-252.32
-234.12
-220.79
-207.36
-190.86
-171.29
-150.96
-131.94
-115.19
-101.44
-89.70
-78.51
-69.13
-66.01
-74.92
-100.18
-141.26
-192.21
-243.76
-285.47
-309.26
-312.12
-296.06
-266.07
-227.56
-184.44
-139.13
-93.51
-49.62
-10.14
22.20
45.48
59.41
65.30
65.65
62.98
59.18
55.11
50.69
45.43
39.09
32.10
25.69
21.46
20.86
24.33
31.23
39.81
47.88
53.54
55.65
54.03
49.17
41.94
33.15
23.52
13.60
3.95
-4.79
-11.91
-16.72
-18.83
-18.23
-15.46
-11.39
-7.22
-4.00
-2.65
-3.64
-7.10
-12.80
-20.36
-29.22
-38.69
-47.93
-55.89
-61.31
-63.06
-60.28
-52.81
-41.30
-27.23
-12.54
0.69
10.61
16.02
16.41
12.11
4.17
-5.91
-16.46
-26.01
-33.51
-38.32
-40.07
-38.67
-34.17
-27.02
-18.06
-8.68
-0.43
5.18
7.32
5.80
1.16
-5.58
-13.23
-20.52
-26.34
-29.69
-29.95
-26.86
-20.68
-12.16
-2.33
7.57
16.35
22.77
25.86
24.95
19.98
11.56
1.06
-9.74
-19.07
-25.62
-28.71
-28.26
-24.51
-17.65
-7.80
4.87
20.04
36.82
53.99
70.14
84.07
94.97
102.45
106.30
106.28
102.08
93.27
79.83
62.21
41.48
19.13
-3.31
-24.41
-43.07
-58.23
-69.02
-74.63
-74.73
-69.78
-61.21
-51.08
-41.53
-34.11
-29.32
-26.69
-25.03
-23.13
-20.05
-15.48
-9.78
-3.87
0.94
3.40
2.67
-1.20
-7.47
-14.89
-22.28
-29.11
-35.48
-41.72
-47.94
-53.51
-57.09
-57.17
-52.56
-42.88
-28.74
-11.55
7.01
25.42
42.71
58.37
72.07
83.33
91.40
95.40
94.90
90.27
82.86
74.65
67.42
62.19
58.78
56.27
53.44
49.58
44.57
38.88
33.28
28.51
25.09
23.12
22.34
22.23
22.35
22.46
22.62
23.22
24.69
27.33
31.01
35.16
38.92
41.55
42.61
42.14
40.52
38.32
36.12
34.29
32.94
31.79
30.26
27.50
22.55
14.54
2.94
-12.01
-29.05
-46.23
-61.53
-73.45
-81.50
-86.17
-88.75
-90.57
-92.10
-92.58
-90.74
-85.37
-75.87
-62.48
-45.89
-28.15
-12.06
-0.35
4.87
1.61
-11.36
-33.60
-62.21
-91.24
-115.12
-129.65
-132.61
-124.05
-106.97
-85.82
-64.30
-43.48
-20.25
7.47
39.98
75.44
109.47
134.28
140.14
118.41
65.28
-14.48
-112.58
-217.67
-316.75
-389.63
-417.19
-390.86
-319.27
-235.37
-155.02
-83.96
-22.95
29.64
72.76
103.72
119.79
120.16
107.36
88.74
69.83
54.41
45.11
43.75
50.56
63.89
80.63
97.18
111.77
121.38
123.47
117.28
103.99
85.52
63.50
39.18
14.18
-8.20
-25.56
-36.37
-40.06
-37.18
-29.44
-18.88
-6.76
7.50
26.55
52.52
85.71
123.97
162.66
196.17
219.61
230.31
228.43
216.59
198.24
176.51
153.94
132.21
112.39
94.93
79.56
65.28
50.86
35.44
18.86
1.90
-14.11
-27.93
-38.85
-46.78
-51.84
-54.05
-52.97
-48.22
-39.83
-28.65
-16.28
-4.57
4.84
11.20
14.41
14.87
13.06
9.13
2.91
-5.99
-17.86
-32.79
-50.30
-69.40
-88.50
-105.52
-118.09
-123.98
-121.79
-111.29
-94.18
-73.52
-53.30
-37.30
-28.18
-27.06
-33.39
-45.50
-60.98
-77.27
-91.79
-102.38
-107.36
-105.96
-98.36
-85.61
-69.28
-51.03
-32.34
-14.26
2.47
17.48
30.63
41.92
51.40
59.04
64.79
68.66
70.91
72.06
72.77
73.46
74.07
74.00
72.32
68.33
61.89
53.53
44.16
34.64
25.44
16.52
7.66
-1.29
-10.03
-17.92
-24.17
-28.14
-29.56
-28.60
-25.73
-21.43
-16.19
-10.37
-4.40
1.09
5.54
8.39
9.46
9.11
8.16
7.46
7.68
8.77
10.00
10.41
9.06
5.65
0.53
-5.31
-10.79
-14.90
-17.05
-17.04
-14.95
-11.05
-5.75
0.30
6.30
11.29
14.57
15.78
15.02
12.85
9.98
6.95
4.11
1.45
-1.15
-3.64
-5.86
-7.59
-8.56
-8.74
-8.37
-7.85
-7.68
-8.15
-9.26
-10.78
-12.36
-13.79
-15.09
-16.51
-18.25
-20.43
-22.86
-25.11
-26.72
-27.35
-26.82
-25.18
-22.52
-18.92
-14.45
-9.26
-3.63
1.96
6.94
10.83
13.29
14.36
14.30
13.54
12.40
11.06
9.45
7.39
4.78
1.63
-1.81
-5.12
-7.85
-9.58
-10.11
-9.54
-8.29
-7.02
-6.41
-6.84
-8.27
-10.34
-12.51
-14.43
-16.13
-17.91
-20.22
-23.27
-26.95
-30.91
-34.60
-37.59
-39.75
-41.34
-42.94
-45.35
-49.14
-54.56
-61.21
-68.20
-74.43
-79.11
-82.09
-83.70
-84.59
-85.06
-84.92
-83.32
-79.31
-72.14
-61.37
-46.74
-27.79
-4.22
23.55
53.47
81.89
104.85
119.89
127.73
131.92
136.76
144.53
153.90
160.45
159.47
148.91
130.64
109.65
91.06
77.66
68.95
62.33
55.23
46.72
37.87
30.61
26.40
25.16
25.46
25.29
23.47
20.30
17.49
17.28
21.26
29.76
41.30
53.32
63.21
69.55
72.67
74.15
75.89
79.08
83.81
88.78
91.83
90.97
85.33
75.56
63.41
50.87
39.42
29.72
20.81
10.20
-5.66
-30.13
-65.30
-111.20
-165.58
-224.40
-279.49
-320.34
-337.79
-328.80
-297.81
-253.47
-203.51
-152.09
-100.76
-50.12
-2.22
39.32
70.63
91.04
102.11
107.37
110.95
115.78
123.00
131.23
137.53
139.07
134.89
126.49
117.53
112.60
113.97
123.42
140.55
161.91
180.80
187.93
173.46
130.44
58.33
-35.12
-134.60
-222.07
-282.69
-309.20
-303.21
-272.76
-228.01
-177.22
-125.69
-76.01
-30.24
8.96
38.82
57.80
66.87
69.47
70.32
73.38
80.49
90.97
102.13
110.66
114.24
112.37
106.47
99.14
93.10
90.16
90.92
94.81
100.71
107.34
113.20
116.17
113.18
100.79
76.55
40.75
-2.85
-47.55
-85.98
-112.75
-126.28
-129.00
-125.66
-121.08
-118.17
-117.70
-118.97
-121.03
-123.59
-126.83
-130.73
-134.51
-136.62
-135.39
-129.87
-120.29
-107.77
-93.86
-79.68
-65.67
-51.71
-37.68
-23.84
-10.97
-0.16
7.71
12.25
13.83
13.59
13.02
13.58
16.17
20.82
26.66
32.38
36.57
38.40
37.90
35.70
32.62
29.23
25.58
21.27
15.88
9.41
2.55
-3.51
-7.52
-8.66
-6.92
-2.93
2.38
8.45
15.17
22.95
32.09
42.30
52.52
61.03
66.22
67.33
64.91
60.62
56.54
54.29
54.37
56.24
58.71
60.79
62.21
63.62
66.14
70.80
78.08
87.74
98.67
108.79
115.02
113.32
99.74
71.85
30.20
-20.84
-73.90
-120.61
-154.35
-172.22
-175.52
-168.37
-155.58
-140.80
-125.78
-111.00
-96.72
-83.67
-73.04
-65.87
-62.28
-61.21
-60.83
-59.44
-56.41
-52.30
-48.44
-46.08
-45.72
-46.71
-47.63
-46.85
-43.24
-36.80
-28.65
-20.47
-13.83
-9.66
-8.06
-8.61
-10.62
-13.55
-17.35
-22.31
-28.70
-36.42
-45.05
-53.96
-62.60
-70.21
-76.08
-80.08
-82.64
-84.48
-86.10
-87.93
-90.26
-93.36
-96.78
-99.45
-100.57
-99.68
-96.48
-90.37
-80.92
-67.90
-51.50
-31.45
-7.27
20.81
52.03
85.72
121.86
160.10
200.77
238.61
265.32
276.59
273.04
257.29
231.27
198.64
163.38
128.97
97.73
71.53
51.59
37.59
27.68
19.40
10.65
-0.29
-14.08
-29.99
-45.81
-58.90
-68.12
-74.57
-80.96
-90.32
-105.39
-127.09
-153.83
-181.64
-205.92
-223.13
-231.50
-230.51
-220.47
-202.52
-177.80
-146.86
-109.34
-64.43
-11.36
50.20
120.21
197.48
275.53
342.39
385.43
398.28
383.48
349.59
306.03
260.28
216.78
177.19
141.75
110.31
82.73
58.56
37.57
18.10
-0.72
-18.69
-35.02
-48.16
-56.35
-58.11
-53.39
-43.73
-31.95
-20.95
-13.08
-9.86
-10.49
-13.64
-17.78
-22.50
-28.45
-36.92
-48.51
-62.61
-77.44
-90.55
-99.59
-102.88
-100.09
-91.81
-79.04
-62.68
-43.72
-23.58
-4.26
11.57
21.56
23.74
17.48
3.38
-17.15
-43.09
-74.47
-112.34
-158.31
-207.78
-252.65
-282.91
-291.36
-277.23
-246.12
-205.87
-162.51
-118.45
-72.47
-22.54
31.69
86.80
138.73
181.87
211.64
226.16
225.93
213.89
194.30
171.96
150.94
134.29
123.96
119.24
119.70
123.27
127.73
132.22
138.23
148.93
167.57
195.28
229.30
261.64
278.78
266.78
216.86
129.07
12.17
-118.95
-247.46
-352.90
-413.91
-419.86
-376.86
-303.63
-220.56
-141.65
-73.22
-16.58
28.39
63.08
85.75
94.25
88.66
71.82
47.91
21.01
-5.66
-29.59
-47.96
-59.47
-63.88
-61.79
-54.71
-45.08
-35.58
-28.03
-22.67
-18.66
-15.44
-12.35
-8.20
-1.22
10.15
26.40
46.24
66.52
82.96
91.13
88.35
75.06
54.66
32.00
11.64
-3.53
-12.64
-16.44
-16.74
-15.22
-13.01
-10.48
-7.69
-4.61
-1.39
1.70
4.36
6.26
7.12
6.87
5.64
3.79
1.77
-0.09
-1.79
-3.59
-5.89
-9.03
-12.92
-17.14
-20.95
-23.74
-25.23
-25.57
-25.10
-24.23
-23.18
-21.83
-19.99
-17.55
-14.68
-11.82
-9.48
-7.95
-7.15
-6.61
-5.72
-4.08
-1.50
1.86
5.79
10.14
14.68
19.22
23.42
27.02
29.76
31.63
32.66
33.00
32.79
31.97
30.41
27.80
23.85
18.32
11.30
3.25
-5.01
-12.48
-18.36
-22.30
-24.36
-24.94
-24.50
-23.35
-21.60
-19.31
-16.72
-14.39
-13.08
-13.51
-16.11
-20.91
-27.60
-35.72
-44.87
-54.80
-65.38
-76.25
-86.88
-96.58
-104.79
-111.35
-116.58
-121.03
-125.17
-129.11
-132.47
-134.65
-134.93
-132.57
-126.71
-116.40
-100.55
-78.48
-50.26
-16.93
19.59
57.18
94.07
128.99
160.89
188.30
209.06
220.53
220.71
209.19
187.98
161.19
133.81
110.21
92.85
81.77
75.10
69.99
63.77
54.81
42.88
29.06
15.41
4.37
-2.00
-2.56
2.51
11.56
21.85
30.15
33.57
30.38
20.39
4.68
-14.94
-36.64
-59.03
-81.21
-102.47
-122.00
-138.71
-151.47
-159.49
-162.55
-160.95
-154.99
-144.78
-130.33
-111.99
-90.95
-69.40
-49.84
-34.30
-23.47
-16.74
-12.83
-10.79
-10.29
-11.31
-13.46
-15.62
-16.24
-14.09
-8.97
-1.70
6.52
15.14
24.83
37.28
54.54
77.88
106.98
139.72
172.65
202.03
224.79
239.10
244.76
242.92
235.27
222.92
206.19
185.01
160.08
133.58
108.66
88.52
75.77
71.33
74.12
81.94
92.26
102.98
112.62
119.23
120.31
114.22
100.39
79.69
54.55
28.41
4.94
-12.70
-23.85
-30.68
-36.73
-46.77
-66.25
-99.42
-147.22
-208.26
-271.01
-316.80
-332.85
-311.97
-255.34
-173.96
-86.08
-11.70
33.72
44.42
24.43
-14.68
-56.94
-87.22
-95.16
-76.73
-34.00
26.26
94.88
161.47
216.26
252.48
266.84
259.46
233.39
193.52
145.24
93.60
41.71
-9.32
-59.04
-106.75
-150.40
-186.65
-211.69
-222.76
-219.04
-201.91
-174.21
-138.89
-98.88
-57.57
-19.31
10.89
28.55
31.53
21.29
2.47
-18.52
-35.73
-45.43
-46.72
-40.80
-29.64
-14.78
3.57
26.50
55.55
91.03
130.10
165.50
186.15
180.31
140.27
66.49
-30.97
-134.96
-226.97
-292.99
-327.16
-331.31
-311.90
-275.75
-227.78
-171.07
-108.60
-44.93
13.57
60.55
92.23
108.81
114.59
115.83
118.18
124.54
134.47
144.97
152.33
154.07
149.80
141.05
130.06
118.66
107.43
95.88
83.11
68.59
52.58
36.16
20.75
7.59
-2.68
-10.05
-14.99
-18.17
-20.27
-21.87
-23.45
-25.30
-27.62
-30.38
-33.35
-36.27
-38.88
-41.01
-42.55
-43.56
-43.97
-43.72
-42.84
-41.61
-40.51
-40.05
-40.37
-41.06
-41.47
-40.97
-39.31
-36.66
-33.42
-29.96
-26.49
-23.11
-19.94
-17.15
-14.93
-13.18
-11.53
-9.53
-7.10
-4.53
-2.59
-2.12
-3.61
-6.93
-11.15
-15.07
-17.64
-18.55
-18.11
-17.28
-17.23
-19.01
-23.19
-29.15
-35.79
-41.87
-46.69
-50.20
-52.92
-55.40
-58.05
-60.79
-62.06
-59.97
-52.81
-39.95
-22.05
-0.80
21.62
43.03
61.77
78.55
95.17
114.06
136.95
164.24
195.20
228.42
262.34
287.35
295.33
281.77
248.97
204.31
156.21
111.27
73.20
42.99
19.09
1.05
-13.73
-26.52
-37.32
-45.37
-49.92
-51.16
-50.86
-51.88
-55.89
-62.74
-70.92
-78.71
-85.11
-90.50
-96.29
-104.19
-115.11
-127.78
-139.50
-146.84
-147.21
-139.81
-125.77
-107.61
-88.34
-70.43
-55.02
-42.02
-30.57
-19.68
-8.77
2.13
12.57
21.84
29.40
34.99
38.70
40.82
41.76
41.93
41.71
41.52
41.77
42.83
44.96
48.18
52.25
56.69
60.82
63.97
65.67
65.81
64.77
63.33
62.36
62.48
63.72
65.31
65.79
63.52
57.15
46.18
31.03
12.76
-7.44
-28.68
-50.36
-71.96
-92.61
-111.15
-126.28
-137.23
-143.92
-146.86
-146.82
-144.15
-138.68
-129.81
-117.27
-101.38
-83.40
-65.27
-49.06
-36.63
-28.99
-25.96
-25.90
-26.12
-23.58
-16.20
-3.85
11.49
26.32
37.21
42.17
41.41
37.01
31.88
28.40
27.55
28.81
30.37
29.83
24.81
13.56
-4.58
-28.76
-56.80
-85.59
-111.71
-132.28
-145.46
-150.69
-148.69
-141.18
-130.48
-118.96
-108.51
-100.12
-93.79
-88.68
-83.62
-77.75
-70.85
-63.31
-55.57
-47.70
-38.87
-27.49
-11.76
9.61
36.61
67.73
100.26
131.20
158.38
181.00
199.53
215.07
228.86
241.50
252.41
259.66
260.43
252.20
234.15
208.18
178.99
153.20
137.00
133.42
140.89
153.88
165.40
169.88
164.86
151.28
132.40
111.74
90.88
68.67
41.78
6.23
-40.73
-99.60
-168.49
-242.37
-310.98
-361.86
-385.41
-379.71
-350.55
-307.42
-259.53
-213.19
-170.44
-130.62
-87.76
-36.28
25.34
93.71
161.01
217.44
254.61
268.68
261.32
232.64
187.60
133.04
76.60
25.37
-15.33
-43.52
-60.87
-72.26
-83.62
-98.58
-117.23
-135.75
-148.34
-150.19
-139.80
-118.99
-91.68
-61.88
-31.47
-0.58
31.96
67.41
105.76
145.30
182.97
215.58
240.89
258.95
271.00
278.34
280.66
274.81
255.20
215.64
152.33
66.41
-34.64
-138.73
-232.26
-303.86
-347.09
-361.19
-349.71
-318.42
-273.50
-220.44
-164.33
-110.20
-62.72
-25.66
-0.78
12.59
17.13
16.53
14.15
11.97
10.26
8.09
3.99
-3.11
-13.12
-24.54
-34.88
-41.44
-42.36
-37.32
-27.54
-15.29
-2.95
7.91
16.90
24.62
32.02
39.53
46.80
52.86
56.63
57.51
55.71
52.11
47.81
43.76
40.35
37.48
34.86
32.35
30.08
28.58
28.60
30.83
35.74
43.46
53.84
66.53
80.77
95.00
106.66
112.48
109.33
95.54
71.72
40.74
6.88
-25.68
-53.89
-76.29
-92.60
-103.22
-108.64
-109.51
-106.79
-101.69
-95.61
-89.60
-84.19
-79.31
-74.71
-70.01
-65.00
-59.66
-54.13
-48.89
-44.63
-42.20
-42.21
-44.80
-49.29
-54.34
-58.30
-59.53
-57.04
-50.53
-40.46
-27.79
-13.68
0.67
14.10
25.50
33.93
38.70
39.75
37.67
33.74
29.48
26.09
24.15
23.42
23.21
22.77
21.90
20.93
20.66
21.92
25.08
30.09
36.48
43.62
50.92
57.73
63.32
66.74
67.15
63.97
57.46
48.59
38.71
29.05
20.14
11.90
3.93
-3.92
-11.22
-17.07
-20.69
-21.87
-21.22
-19.76
-18.49
-17.89
-17.90
-18.17
-18.36
-18.37
-18.21
-17.73
-16.55
-14.22
-10.46
-5.39
0.36
5.94
10.49
13.44
14.66
14.45
13.31
11.83
10.44
9.29
8.33
7.27
5.82
3.91
1.76
-0.15
-1.25
-1.22
-0.11
1.63
3.37
4.53
4.87
4.50
3.61
2.32
0.54
-1.96
-5.30
-9.38
-13.81
-17.89
-20.84
-22.10
-21.68
-20.17
-18.51
-17.70
-18.42
-20.95
-24.44
-27.47
-28.66
-27.47
-24.52
-21.22
-19.41
-20.32
-24.44
-30.32
-35.73
-38.65
-38.35
-35.56
-31.71
-28.71
-27.27
-27.09
-25.36
-18.49
-3.16
22.56
59.51
107.93
166.56
233.76
301.89
359.76
395.43
402.88
384.77
348.83
302.02
245.01
178.63
96.82
-1.41
-110.15
-218.59
-315.84
-395.53
-444.24
-457.20
-437.43
-394.30
-337.48
-274.60
-210.69
-149.43
-94.15
-47.43
-12.48
9.82
20.49
23.60
23.83
24.99
28.98
35.75
44.33
52.22
57.86
60.87
62.69
65.31
70.28
77.86
87.10
96.78
104.94
110.27
112.20
111.43
108.99
105.88
102.67
99.35
96.10
92.74
89.27
85.82
82.71
80.16
78.26
76.59
74.44
71.76
68.95
66.70
65.78
66.98
70.68
77.10
84.99
92.76
99.87
106.72
113.73
120.77
127.26
131.32
130.63
124.10
109.83
88.28
62.28
35.29
9.90
-11.90
-30.46
-46.28
-64.26
-88.41
-119.01
-152.72
-185.41
-214.57
-238.47
-258.90
-277.58
-301.48
-335.53
-379.42
-427.78
-473.92
-513.09
-541.43
-559.57
-530.21
-433.48
-276.67
-91.15
89.92
247.61
366.75
460.59
538.28
604.87
656.89
691.20
707.75
709.50
700.08
681.28
654.68
618.56
572.63
514.10
443.06
363.77
283.95
211.58
152.09
109.16
81.69
67.10
59.11
51.92
42.52
31.31
20.53
11.79
5.39
-2.04
-14.65
-36.42
-67.60
-103.42
-135.29
-154.30
-154.71
-135.38
-100.40
-56.55
-11.62
27.67
56.29
71.05
70.08
52.57
18.96
-29.47
-90.08
-159.14
-232.16
-304.39
-371.34
-429.63
-477.43
-514.77
-543.18
-565.20
-583.77
-601.87
-622.31
-646.93
-675.98
-707.00
-734.28
-749.91
-746.27
-719.21
-670.32
-606.99
-539.75
-478.36
-428.18
-388.72
-355.09
-321.07
-282.33
-238.02
-190.37
-142.79
-98.09
-57.55
-21.13
11.58
40.67
65.92
87.32
105.58
122.15
138.24
153.73
166.57
173.12
169.58
153.85
126.74
92.11
55.64
22.69
-3.73
-23.72
-39.78
-54.66
