1657715308.00
64.000000
-0.00
-0.00
-0.00
-0.00
-0.00
-0.00
-0.00
-0.00
-0.00
-0.00
0.00
0.01
0.01
-0.00
-0.03
-0.05
-0.05
0.00
0.13
0.36
0.66
1.01
1.37
1.72
2.06
2.40
2.79
3.24
3.80
4.42
5.06
5.66
6.20
6.68
7.15
7.68
8.31
9.14
10.09
11.04
11.88
12.56
13.14
13.76
14.65
15.96
17.91
20.32
22.90
25.38
27.58
29.57
31.68
34.32
37.81
42.54
48.15
54.10
59.83
64.97
69.58
74.14
79.34
85.71
93.76
103.00
112.62
121.73
129.77
136.75
143.30
150.75
157.77
166.64
177.95
191.79
206.97
220.57
228.25
225.36
208.53
176.87
132.76
80.05
23.07
-34.94
-92.44
-149.16
-205.23
-260.37
-313.74
-363.87
-409.83
-450.91
-486.50
-515.74
-537.23
-549.22
-549.96
-538.37
-514.21
-478.67
-433.88
-382.45
-327.02
-269.84
-212.63
-156.66
-102.95
-52.37
-5.90
35.58
71.43
101.35
125.50
144.38
158.69
169.15
176.37
180.75
182.57
182.07
179.51
175.23
169.65
163.18
156.15
148.81
141.30
133.69
126.02
118.33
110.69
103.16
95.80
88.68
81.83
75.25
68.95
62.95
57.25
51.86
46.78
42.03
37.59
33.45
29.61
26.07
22.81
19.83
17.11
14.67
12.48
10.54
8.83
7.35
6.07
4.97
4.05
3.27
2.62
2.09
1.65
1.30
1.01
0.79
0.61
0.47
0.37
0.28
0.23
0.18
0.15
0.13
0.13
0.13
0.14
0.16
0.18
0.21
0.25
0.29
0.33
0.37
0.42
0.46
0.51
0.56
0.61
0.66
0.72
0.78
0.85
0.92
1.00
1.09
1.19
1.29
1.42
1.55
1.71
1.88
2.07
2.28
2.52
2.78
3.07
3.39
3.74
4.11
4.53
4.98
5.47
5.99
6.56
7.17
7.81
8.50
9.24
10.02
10.85
11.72
12.63
13.60
14.62
15.71
16.86
18.06
19.32
20.59
21.84
22.98
23.94
24.60
24.82
24.51
23.55
21.90
19.52
16.46
12.77
8.63
4.20
-0.32
-4.71
-8.76
-12.31
-15.22
-17.41
-18.85
-19.54
-19.56
-18.99
-17.95
-16.57
-14.95
-13.22
-11.47
-9.71
-7.93
-6.15
-4.35
-2.52
-0.66
1.21
3.06
4.89
6.71
8.65
10.64
12.72
14.92
17.20
19.52
21.86
24.19
26.58
29.28
32.18
35.35
38.79
42.42
46.07
49.52
52.69
55.65
58.80
62.13
65.81
69.93
74.30
78.56
82.25
85.01
86.88
88.38
89.56
90.67
91.71
92.18
91.03
86.90
78.22
63.29
45.42
26.06
6.41
-12.84
-31.65
-50.42
-69.87
-90.79
-113.96
-139.77
-168.55
-199.04
-228.22
-251.82
-265.55
-266.72
-255.34
-234.17
-207.47
-179.95
-154.63
-132.51
-113.25
-96.14
-80.94
-67.86
-57.07
-48.24
-40.69
-33.39
-25.55
-17.05
-8.44
-0.69
5.39
9.57
12.28
14.25
16.36
19.13
22.52
25.92
28.47
29.41
28.47
25.88
22.20
18.18
14.42
11.30
8.99
7.55
7.00
7.35
8.58
10.53
12.97
15.47
17.62
19.08
19.65
19.43
18.66
17.73
16.91
16.34
15.96
15.62
15.31
15.15
15.40
16.28
17.84
19.86
21.99
23.81
25.05
25.64
25.61
25.05
24.10
22.84
21.38
19.77
17.98
15.96
13.63
11.03
8.31
5.81
3.83
2.61
2.11
2.15
2.34
2.37
1.98
1.07
-0.31
-2.03
-3.89
-5.69
-7.29
-8.68
-10.04
-11.73
-14.11
-17.34
-21.17
-24.88
-27.51
-28.17
-26.40
-22.38
-16.85
-10.84
-5.23
-0.54
3.10
5.85
7.94
9.49
10.57
11.17
11.34
11.20
10.98
10.94
11.26
12.05
13.27
14.76
16.31
17.74
18.97
20.01
20.93
21.71
22.28
22.44
22.02
20.99
19.48
17.78
16.22
15.02
14.18
13.55
12.88
12.04
11.00
9.90
8.90
8.08
7.40
6.67
5.70
4.35
2.61
0.55
-1.71
-4.07
-6.47
-8.86
-11.15
-13.24
-15.10
-16.79
-18.56
-20.77
-23.76
-27.65
-32.13
-36.49
-39.68
-40.71
-38.97
-34.48
-27.94
-20.52
-13.36
-7.30
-2.61
0.87
3.51
5.64
7.42
8.87
10.00
10.89
11.65
12.35
13.01
13.57
14.02
14.47
15.05
15.88
16.95
18.12
19.18
20.01
20.51
20.68
20.54
20.08
19.35
18.41
17.45
16.64
16.09
15.73
15.35
14.62
13.38
11.71
9.91
8.36
7.30
6.69
6.22
5.58
4.61
3.49
2.58
2.24
2.58
3.37
4.13
4.40
3.91
2.64
0.80
-1.32
-3.53
-5.73
-7.97
-10.34
-12.94
-15.87
-19.24
-23.07
-27.37
-32.04
-36.77
-41.07
-44.26
-45.67
-44.79
-41.51
-36.16
-29.45
-22.24
-15.43
-9.73
-5.68
-3.53
-3.23
-4.37
-6.22
-7.87
-8.44
-7.46
-5.11
-2.39
-0.92
-2.64
-8.87
-19.94
-34.75
-50.79
-64.73
-73.20
-74.40
-68.86
-59.21
-48.88
-40.84
-36.65
-36.10
-37.75
-39.54
-39.99
-38.73
-36.47
-34.04
-32.62
-33.76
-38.89
-48.75
-61.80
-74.95
-84.43
-87.12
-80.59
-65.63
-46.21
-27.10
-11.43
2.77
19.27
40.57
65.81
93.63
120.28
140.24
148.02
139.09
114.72
77.59
30.76
-21.18
-66.70
-94.17
-97.15
-76.86
-41.99
1.58
48.01
92.34
132.88
177.74
235.84
310.33
396.24
480.78
556.36
615.93
653.44
626.33
515.25
340.15
149.62
5.73
-94.01
-159.17
-195.37
-207.38
-196.49
-161.43
-108.00
-51.19
-10.21
-1.73
-25.15
-70.55
-124.99
-176.81
-213.99
-230.13
-225.90
-206.74
-180.65
-149.03
-113.04
-75.91
-41.80
-11.67
14.60
36.46
51.93
57.75
54.66
44.42
29.06
11.14
-5.38
-17.52
-24.75
-28.93
-33.22
-38.41
-44.13
-49.61
-54.32
-57.87
-60.53
-63.03
-66.05
-69.77
-73.11
-74.85
-74.34
-71.65
-67.57
-63.13
-59.23
-56.30
-54.13
-51.96
-48.73
-43.55
-36.21
-27.49
-18.97
-12.43
-9.00
-8.37
-8.62
-6.73
0.34
14.17
33.85
55.74
74.22
83.08
77.24
54.40
16.08
-32.14
-81.33
-121.13
-142.52
-140.86
-118.02
-82.61
-47.88
-27.70
-31.98
-63.29
-115.85
-177.50
-233.61
-271.49
-283.52
-268.25
-229.13
-172.34
-104.36
-30.57
45.11
119.75
191.57
260.29
327.43
395.45
465.83
536.64
601.25
649.50
671.13
659.65
614.71
541.82
450.08
349.48
249.26
157.77
82.62
29.91
2.15
-3.70
3.50
11.67
10.15
-6.04
-34.86
-69.38
-101.93
-128.32
-149.40
-169.41
-192.77
-221.10
-252.35
-282.20
-306.45
-323.07
-332.59
-337.01
-338.21
-336.93
-332.75
-324.76
-312.65
-297.00
-279.21
-260.73
-242.42
-224.20
-205.24
-184.48
-161.30
-135.90
-109.26
-82.87
-58.27
-36.61
-18.46
-3.82
7.72
16.73
23.78
29.31
33.63
36.87
39.14
40.53
41.22
41.45
41.55
41.81
42.41
43.37
44.52
45.57
46.23
46.33
45.90
45.16
44.38
43.86
43.76
44.13
44.87
45.78
46.53
46.79
46.23
44.65
42.11
38.88
35.36
31.89
28.61
25.42
22.06
18.22
13.71
8.52
2.75
-3.36
-9.55
-15.51
-20.91
-25.40
-28.65
-30.45
-30.79
-29.85
-27.97
-25.50
-22.72
-19.72
-16.45
-12.85
-8.93
-4.89
-1.02
2.41
5.29
7.71
9.98
12.43
15.26
18.46
21.84
25.15
28.22
30.99
33.47
35.64
37.37
38.47
38.77
38.29
37.30
36.25
35.55
35.43
35.80
36.35
36.76
36.79
36.40
35.74
34.96
34.13
33.21
32.07
30.63
28.88
26.95
25.06
23.44
22.21
21.35
20.69
19.99
19.03
17.71
16.03
14.01
11.63
8.80
5.44
1.53
-2.70
-6.88
-10.56
-13.42
-15.44
-16.84
-18.03
-19.35
-20.97
-22.86
-24.92
-27.13
-29.63
-32.59
-36.04
-39.73
-43.06
-45.36
-46.12
-45.19
-42.84
-39.54
-35.72
-31.60
-27.18
-22.40
-17.26
-11.89
-6.51
-1.35
3.44
7.79
11.65
14.97
17.73
19.97
21.81
23.42
24.94
26.44
27.93
29.31
30.49
31.39
31.97
32.26
32.35
32.35
32.34
32.29
32.11
31.66
30.82
29.59
28.08
26.51
25.08
23.87
22.82
21.81
20.72
19.51
18.26
17.08
16.08
15.27
14.56
13.80
12.89
11.78
10.51
9.11
7.67
6.22
4.78
3.35
1.90
0.37
-1.28
-3.05
-4.92
-6.84
-8.72
-10.50
-12.11
-13.46
-14.43
-14.95
-15.01
-14.75
-14.36
-14.02
-13.78
-13.53
-13.13
-12.48
-11.59
-10.56
-9.41
-8.09
-6.44
-4.35
-1.89
0.68
2.97
4.70
5.78
6.36
6.71
7.09
7.67
8.49
9.59
10.94
12.46
13.98
15.21
15.90
15.94
15.48
14.84
14.32
14.10
14.11
14.14
14.00
13.66
13.23
12.85
12.61
12.42
12.11
11.56
10.74
9.77
8.84
8.12
7.73
7.64
7.71
7.75
7.57
7.04
6.20
5.15
4.06
3.07
2.23
1.49
0.74
-0.07
-0.91
-1.66
-2.14
-2.24
-1.93
-1.32
-0.57
0.14
0.65
0.88
0.82
0.55
0.21
-0.04
-0.09
0.07
0.37
0.67
0.90
1.09
1.38
1.96
2.90
4.14
5.45
6.52
7.12
7.13
6.61
5.65
4.40
2.98
1.50
0.12
-1.03
-1.78
-2.08
-2.00
-1.73
-1.49
-1.43
-1.56
-1.80
-1.96
-1.95
-1.75
-1.41
-1.04
-0.66
-0.23
0.37
1.23
2.39
3.90
5.88
8.45
11.72
15.53
19.45
22.85
25.02
25.58
24.54
22.25
19.17
15.69
11.94
7.92
3.60
-0.95
-5.61
-10.24
-14.75
-19.06
-23.10
-26.72
-29.78
-32.12
-33.70
-34.52
-34.68
-34.30
-33.58
-32.69
-31.78
-30.92
-30.00
-28.89
-27.44
-25.62
-23.51
-21.24
-18.96
-16.70
-14.45
-12.22
-10.07
-8.11
-6.43
-5.08
-4.03
-3.19
-2.51
-1.94
-1.48
-1.13
-0.81
-0.49
-0.11
0.33
0.75
1.09
1.28
1.31
1.24
1.07
0.81
0.39
-0.22
-1.04
-2.02
-3.07
-4.09
-5.08
-6.08
-7.15
-8.31
-9.49
-10.61
-11.57
-12.41
-13.25
-14.29
-15.69
-17.50
-19.63
-21.90
-24.14
-26.25
-28.33
-30.60
-33.36
-36.89
-41.29
-46.42
-51.88
-57.20
-62.05
-66.51
-71.03
-76.20
-82.36
-89.25
-96.10
-102.26
-107.84
-114.03
-122.49
-134.05
-147.69
-160.24
-167.35
-165.12
-151.66
-127.65
-95.68
-59.13
-21.10
15.98
50.08
79.61
103.51
121.75
135.21
145.28
152.82
157.50
157.83
151.85
138.27
117.77
93.75
72.08
59.12
58.86
70.07
85.24
92.43
80.03
42.32
-16.79
-84.44
-143.48
-179.25
-184.76
-162.23
-120.47
-70.32
-20.54
23.82
60.82
89.78
110.11
121.09
122.79
116.87
106.78
96.69
89.92
87.76
89.17
91.49
91.95
88.82
82.21
73.83
66.10
61.04
59.56
61.01
63.43
64.27
61.38
53.95
42.91
30.61
19.95
13.14
10.88
12.17
14.97
17.19
17.52
15.80
12.78
9.49
6.74
4.91
3.99
3.89
4.53
5.86
7.70
9.61
11.02
11.45
10.72
8.98
6.65
4.07
1.37
-1.49
-4.58
-7.79
-10.83
-13.30
-14.93
-15.66
-15.69
-15.38
-15.10
-15.09
-15.39
-15.91
-16.50
-17.09
-17.74
-18.61
-19.89
-21.68
-23.87
-26.15
-28.14
-29.48
-30.05
-29.90
-29.35
-28.78
-28.55
-28.91
-29.86
-31.11
-32.18
-32.52
-31.66
-29.40
-25.78
-21.03
-15.40
-9.18
-2.65
3.84
9.90
15.19
19.42
22.43
24.09
24.26
22.81
19.69
15.09
9.54
3.86
-1.02
-4.33
-5.68
-5.24
-3.69
-2.02
-1.29
-2.22
-4.95
-8.98
-13.31
-16.87
-18.89
-19.16
-17.94
-15.75
-13.06
-10.17
-7.23
-4.32
-1.64
0.55
1.93
2.37
1.96
1.08
0.27
0.02
0.61
2.01
3.91
5.90
7.61
8.85
9.67
10.25
10.82
11.52
12.37
13.33
14.33
15.35
16.43
17.61
18.87
20.04
20.85
21.08
20.73
20.04
19.47
19.47
20.28
21.75
23.42
24.75
25.31
25.06
24.29
23.52
23.36
24.15
25.97
28.45
30.91
32.51
32.54
30.66
27.07
22.50
17.93
14.21
11.67
10.01
8.36
5.84
1.97
-3.00
-8.10
-12.17
-14.46
-15.13
-15.26
-16.37
-19.69
-25.36
-32.18
-37.90
-40.10
-37.17
-28.98
-17.11
-4.19
6.97
14.30
17.12
16.18
13.31
10.94
11.37
16.12
25.19
36.51
46.02
48.59
39.88
18.28
-13.65
-49.49
-80.84
-100.16
-103.57
-91.98
-70.48
-46.07
-25.14
-11.42
-5.52
-5.56
-8.58
-11.77
-13.26
-12.29
-8.96
-3.98
1.54
6.33
9.07
8.73
4.85
-2.22
-11.43
-21.30
-30.32
-37.34
-41.76
-43.56
-43.18
-41.39
-39.06
-36.96
-35.54
-34.80
-34.39
-33.76
-32.47
-30.39
-27.77
-25.06
-22.66
-20.69
-19.07
-17.61
-16.28
-15.25
-14.77
-14.97
-15.66
-16.35
-16.47
-15.61
-13.80
-11.47
-9.28
-7.74
-6.99
-6.66
-6.10
-4.79
-2.59
0.13
2.74
4.72
5.93
6.70
7.43
8.35
9.25
9.62
9.04
7.49
5.47
3.77
3.05
3.48
4.73
6.18
7.29
7.78
7.62
6.97
5.93
4.58
2.97
1.22
-0.54
-2.22
-3.80
-5.27
-6.58
-7.53
-7.89
-7.48
-6.39
-4.92
-3.52
-2.57
-2.28
-2.63
-3.50
-4.66
-5.88
-6.84
-7.21
-6.69
-5.18
-2.91
-0.35
1.88
3.39
4.11
4.34
4.53
4.98
5.74
6.58
7.19
7.44
7.38
7.18
6.97
6.71
6.29
5.60
4.66
3.68
2.93
2.61
2.78
3.37
4.20
5.05
5.72
6.12
6.22
6.14
6.05
6.08
6.23
6.39
6.36
6.00
5.38
4.67
4.12
3.87
3.90
4.07
4.20
4.21
4.10
3.98
3.92
3.87
3.74
3.35
2.67
1.76
0.91
0.42
0.49
1.06
1.81
2.31
2.22
1.51
0.47
-0.43
-0.80
-0.54
0.19
1.03
1.71
2.13
2.46
2.86
3.43
4.13
4.81
5.37
5.82
6.24
6.68
7.08
7.34
7.32
7.02
6.48
5.90
5.38
5.03
4.79
4.57
4.20
3.58
2.69
1.61
0.51
-0.45
-1.17
-1.69
-2.12
-2.61
-3.23
-3.94
-4.60
-5.06
-5.24
-5.14
-4.88
-4.61
-4.40
-4.23
-3.93
-3.33
-2.32
-1.03
0.30
1.36
1.97
2.25
2.50
3.08
4.17
5.70
7.38
8.87
9.99
10.82
11.69
12.99
15.03
17.77
20.94
23.97
26.35
27.72
28.04
27.60
26.96
26.89
28.28
31.73
37.52
45.44
54.54
63.09
69.15
71.38
69.70
65.29
59.74
54.52
50.40
47.40
45.10
43.24
42.13
42.64
45.62
50.77
57.17
63.68
69.39
73.73
76.62
78.61
80.88
84.79
89.81
95.24
100.47
104.82
106.35
101.85
87.83
62.40
26.14
-20.19
-71.51
-118.50
-150.68
-161.42
-151.04
-126.15
-96.70
-73.46
-69.49
-91.03
-134.90
-190.73
-247.13
-296.54
-335.69
-363.95
-383.60
-403.89
-430.68
-462.92
-494.15
-518.25
-533.14
-539.97
-540.48
-494.06
-382.20
-219.75
-46.26
104.86
221.25
304.92
358.50
393.38
413.08
411.75
386.91
343.63
292.06
243.54
204.99
180.28
172.03
176.54
182.95
182.77
173.97
159.73
144.67
131.89
122.96
118.20
110.84
89.63
47.42
-15.19
-91.78
-174.11
-254.31
-324.91
-355.64
-327.58
-249.56
-152.83
-67.11
-5.74
32.62
56.09
73.13
88.93
100.29
101.65
91.44
74.27
57.55
47.07
44.96
49.97
58.97
65.25
63.72
53.93
40.00
27.36
19.77
18.35
22.07
28.75
34.19
35.14
31.14
24.46
18.08
13.89
12.24
12.27
12.64
11.18
6.38
-1.77
-11.81
-21.87
-30.51
-37.07
-41.42
-43.74
-44.58
-44.37
-43.12
-40.40
-35.99
-29.45
-20.88
-10.73
0.32
11.46
21.95
31.13
38.57
44.09
47.78
49.86
50.60
50.22
48.82
46.49
43.31
39.43
35.26
31.38
28.33
26.47
25.79
25.88
26.27
26.42
26.07
25.47
25.30
26.35
29.11
33.45
38.61
43.80
48.03
50.77
52.15
52.95
54.24
57.18
62.69
71.17
82.41
94.76
105.34
110.89
108.96
99.08
83.13
64.86
46.38
30.93
20.27
14.00
10.18
6.51
1.49
-5.12
-12.51
-19.69
-25.82
-31.13
-36.56
-43.08
-51.12
-60.23
-69.35
-77.29
-83.24
-86.81
-88.41
-88.69
-88.08
-86.56
-83.72
-79.19
-72.95
-65.54
-57.70
-50.40
-44.34
-39.70
-36.17
-33.09
-29.86
-26.17
-22.16
-18.21
-14.87
-12.56
-11.44
-11.35
-11.87
-12.57
-13.05
-13.14
-12.78
-12.17
-11.56
-11.14
-11.02
-11.11
-11.29
-11.47
-11.67
-12.11
-13.00
-14.44
-16.29
-18.17
-19.58
-20.06
-19.37
-17.52
-14.83
-11.79
-8.95
-6.81
-5.61
-5.28
-5.48
-5.77
-5.83
-5.62
-5.41
-5.58
-6.38
-7.69
-9.02
-9.72
-9.32
-7.76
-5.51
-3.34
-2.07
-2.22
-3.79
-6.28
-8.78
-10.34
-10.24
-8.24
-4.77
-0.89
1.83
1.89
-1.50
-7.57
-13.46
-14.65
-6.16
15.34
49.83
93.23
138.51
178.15
206.72
222.32
226.35
221.94
212.07
198.46
181.75
162.19
140.46
117.76
95.45
74.55
55.82
40.01
28.21
21.73
21.39
26.71
35.25
43.07
45.82
40.59
27.18
8.52
-10.35
-24.50
-31.16
-30.69
-25.83
-19.82
-14.53
-10.03
-5.42
-0.59
2.78
1.84
-5.74
-20.06
-38.56
-57.20
-72.32
-82.15
-87.02
-88.72
-89.26
-90.09
-91.79
-94.23
-96.70
-98.27
-98.06
-95.66
-91.43
-86.40
-81.79
-78.20
-75.23
-71.67
-66.21
-58.29
-48.40
-37.85
-28.00
-19.74
-13.31
-8.60
-5.63
-4.74
-6.39
-10.70
-16.96
-23.72
-29.26
-32.44
-33.11
-32.01
-30.28
-28.69
-27.38
-25.97
-24.03
-21.38
-18.21
-14.78
-11.24
-7.52
-3.53
0.65
4.68
8.08
10.52
11.96
12.69
13.20
13.91
15.02
16.49
18.07
19.32
19.82
19.26
17.58
15.08
12.35
10.01
8.51
7.85
7.74
7.68
7.31
6.58
5.67
4.86
4.32
4.00
3.67
3.08
2.08
0.72
-0.87
-2.54
-4.28
-6.17
-8.38
-11.08
-14.27
-17.82
-21.36
-24.38
-26.32
-26.75
-25.47
-22.63
-18.74
-14.48
-10.45
-7.02
-4.31
-2.27
-0.87
-0.12
0.00
-0.26
-0.38
0.24
2.05
5.06
8.78
12.47
15.50
17.66
19.14
20.32
21.49
22.62
23.44
23.60
22.89
21.37
19.29
16.95
14.62
12.47
10.61
9.13
8.09
7.48
7.18
6.95
6.47
5.52
4.04
2.14
0.07
-1.98
-3.93
-5.85
-7.92
-10.34
-13.20
-16.49
-20.01
-23.43
-26.31
-28.17
-28.63
-27.53
-24.95
-21.18
-16.70
-12.00
-7.49
-3.47
-0.11
2.58
4.68
6.30
7.60
8.68
9.57
10.26
10.78
11.15
11.47
11.81
12.27
12.85
13.55
14.34
15.15
15.91
16.50
16.80
16.72
16.25
15.46
14.44
13.32
12.12
10.83
9.40
7.83
6.16
4.49
2.95
1.66
0.67
-0.03
-0.53
-0.95
-1.44
-2.08
-2.94
-4.00
-5.24
-6.63
-8.16
-9.89
-11.91
-14.28
-17.01
-19.91
-22.59
-24.54
-25.29
-24.57
-22.38
-19.04
-15.01
-10.78
-6.70
-3.05
-0.02
2.31
3.95
5.07
5.98
6.97
8.18
9.50
10.70
11.52
11.94
12.17
12.56
13.40
14.77
16.51
18.26
19.70
20.63
20.97
20.79
20.18
19.25
18.11
16.89
15.68
14.56
13.53
12.52
11.41
10.07
8.48
6.68
4.84
3.15
1.76
0.66
-0.25
-1.19
-2.34
-3.77
-5.41
-7.13
-8.74
-10.16
-11.39
-12.57
-13.94
-15.71
-18.05
-20.93
-24.04
-26.82
-28.56
-28.62
-26.69
-22.95
-18.03
-12.75
-7.92
-4.12
-1.54
-0.10
0.53
0.79
1.09
1.73
2.82
4.28
5.90
7.45
8.81
10.03
11.25
12.57
13.96
15.28
16.27
16.75
16.64
15.98
14.91
13.63
12.36
11.35
10.74
10.58
10.72
10.95
10.98
10.61
9.82
8.76
7.66
6.71
5.96
5.33
4.65
3.78
2.59
1.06
-0.85
-3.13
-5.73
-8.48
-11.07
-13.15
-14.49
-15.13
-15.43
-15.94
-17.12
-19.09
-21.50
-23.66
-24.81
-24.38
-22.27
-18.81
-14.68
-10.66
-7.41
-5.34
-4.51
-4.70
-5.47
-6.35
-6.95
-7.12
-6.93
-6.71
-6.88
-7.79
-9.53
-11.78
-13.91
-15.26
-15.47
-14.79
-14.03
-14.28
-16.37
-20.42
-25.70
-30.84
-34.37
-35.42
-34.08
-31.44
-29.15
-28.77
-31.36
-37.18
-45.58
-54.94
-62.66
-65.60
-61.06
-47.99
-27.90
-4.63
17.02
33.26
42.86
47.21
49.19
51.36
54.82
59.11
63.11
66.07
68.24
70.73
75.00
82.34
93.46
108.20
125.24
142.08
155.56
162.74
161.90
153.14
138.17
119.46
99.38
79.57
60.97
43.98
28.85
15.61
4.14
-6.00
-15.30
-24.08
-32.20
-39.09
-43.88
-45.85
-44.78
-41.08
-35.82
-30.43
-26.33
-24.51
-25.33
-28.39
-32.76
-37.32
-41.10
-43.52
-44.49
-44.26
-43.17
-41.48
-39.35
-36.88
-34.24
-31.65
-29.35
-27.43
-25.89
-24.59
-23.48
-22.57
-21.97
-21.76
-21.87
-22.10
-22.18
-21.96
-21.50
-21.06
-20.92
-21.20
-21.77
-22.24
-22.21
-21.41
-19.79
-17.52
-14.82
-11.86
-8.73
-5.53
-2.42
0.29
2.31
3.42
3.63
3.11
2.16
1.06
0.00
-0.89
-1.48
-1.66
-1.30
-0.41
0.85
2.21
3.32
3.93
3.91
3.34
2.39
1.28
0.21
-0.71
-1.40
-1.82
-1.96
-1.82
-1.44
-0.98
-0.60
-0.51
-0.78
-1.42
-2.32
-3.33
-4.33
-5.29
-6.18
-7.03
-7.91
-8.93
-10.25
-12.06
-14.39
-17.06
-19.62
-21.46
-22.03
-21.07
-18.71
-15.44
-11.86
-8.50
-5.67
-3.38
-1.49
0.21
1.91
3.71
5.62
7.52
9.26
10.63
11.47
11.74
11.61
11.38
11.36
11.76
12.62
13.78
15.01
16.08
16.82
17.22
17.27
17.01
16.46
15.65
14.62
13.43
12.15
10.84
9.56
8.34
7.15
5.93
4.61
3.19
1.68
0.18
-1.28
-2.68
-4.06
-5.48
-6.96
-8.46
-9.89
-11.18
-12.39
-13.66
-15.18
-17.05
-19.19
-21.27
-22.82
-23.38
-22.64
-20.55
-17.33
-13.40
-9.26
-5.38
-2.09
0.42
2.19
3.37
4.21
4.95
5.74
6.63
7.53
8.30
8.88
9.22
9.45
9.69
10.09
10.74
11.61
12.58
13.51
14.25
14.70
14.85
14.73
14.43
13.98
13.41
12.73
11.91
10.90
9.65
8.15
6.41
4.55
2.71
1.07
-0.25
-1.23
-1.95
-2.59
-3.34
-4.32
-5.54
-6.88
-8.20
-9.33
-10.21
-10.86
-11.41
-12.02
-12.88
-14.12
-15.78
-17.71
-19.56
-20.84
-20.99
-19.67
-16.85
-12.94
-8.60
-4.57
-1.36
0.88
2.29
3.23
4.00
4.77
5.57
6.32
6.96
7.47
7.90
8.30
8.69
9.08
9.46
9.87
10.38
11.02
11.81
12.67
13.48
14.09
14.36
14.20
13.60
12.68
11.57
10.45
9.42
8.53
7.77
7.05
6.31
5.51
4.67
3.82
2.97
2.11
1.19
0.19
-0.84
-1.81
-2.65
-3.33
-3.93
-4.62
-5.60
-6.97
-8.76
-10.87
-13.14
-15.39
-17.39
-18.91
-19.65
-19.37
-17.95
-15.49
-12.32
-8.89
-5.64
-2.86
-0.63
1.10
2.42
3.41
4.07
4.42
4.48
4.33
4.09
3.88
3.84
4.10
4.69
5.60
6.76
8.03
9.29
10.41
11.26
11.74
11.80
11.42
10.68
9.72
8.70
7.75
6.92
6.20
5.53
4.88
4.27
3.72
3.27
2.85
2.36
1.66
0.66
-0.68
-2.28
-3.99
-5.64
-7.08
-8.24
-9.14
-9.92
-10.78
-11.93
-13.46
-15.32
-17.26
-18.85
-19.64
-19.29
-17.68
-14.99
-11.61
-7.99
-4.57
-1.60
0.86
2.87
4.58
6.07
7.38
8.49
9.33
9.89
10.16
10.21
10.13
10.02
9.99
10.10
10.42
10.96
11.65
12.38
12.98
13.32
13.32
12.97
12.30
11.42
10.42
9.42
8.54
7.89
7.50
7.34
7.23
6.91
6.16
4.87
3.19
1.45
0.09
-0.58
-0.50
0.10
0.78
1.11
0.84
-0.02
-1.31
-2.79
-4.28
-5.77
-7.28
-8.89
-10.63
-12.51
-14.52
-16.56
-18.40
-19.66
-19.99
-19.18
-17.37
-14.98
-12.58
-10.56
-9.00
-7.68
-6.31
-4.78
-3.24
-1.99
-1.23
-0.97
-1.03
-1.15
-1.22
-1.23
-1.20
-1.00
-0.41
0.84
2.86
5.54
8.57
11.61
14.37
16.58
18.04
18.51
17.89
16.26
13.98
11.60
9.68
8.52
8.09
8.06
8.01
7.61
6.80
5.67
4.41
3.18
2.06
1.08
0.23
-0.49
-1.14
-1.78
-2.51
-3.44
-4.58
-5.86
-7.12
-8.19
-8.99
-9.52
-9.94
-10.48
-11.32
-12.62
-14.35
-16.29
-18.07
-19.20
-19.28
-18.11
-15.82
-12.78
-9.49
-6.34
-3.58
-1.23
0.72
2.29
3.47
4.28
4.79
5.13
5.46
5.85
6.28
6.65
6.91
7.04
7.14
7.32
7.62
8.03
8.40
8.62
8.61
8.37
7.94
7.43
6.96
6.59
6.37
6.24
6.14
5.99
5.79
5.57
5.39
5.27
5.21
5.10
4.84
4.36
3.65
2.78
1.83
0.90
-0.00
-0.89
-1.83
-2.84
-3.94
-5.09
-6.25
-7.35
-8.34
-9.19
-9.91
-10.59
-11.31
-12.22
-13.37
-14.74
-16.13
-17.20
-17.57
-16.95
-15.27
-12.65
-9.47
-6.15
-3.08
-0.52
1.38
2.60
3.16
3.16
2.75
2.11
1.46
1.01
0.91
1.20
1.86
2.77
3.78
4.75
5.56
6.19
6.69
7.17
7.69
8.28
8.89
9.42
9.77
9.86
9.64
9.13
8.42
7.60
6.82
6.16
5.63
5.21
4.81
4.37
3.88
3.38
2.89
2.44
2.00
1.51
0.93
0.23
-0.58
-1.46
-2.42
-3.48
-4.64
-5.87
-7.08
-8.19
-9.16
-10.12
-11.20
-12.57
-14.26
-16.07
-17.64
-18.53
-18.38
-17.04
-14.61
-11.40
-7.87
-4.44
-1.52
0.67
2.11
2.97
3.52
4.05
4.69
5.38
5.96
6.25
6.20
5.94
5.69
5.68
5.99
6.57
7.26
7.89
8.33
8.50
8.41
8.07
7.55
6.92
6.28
5.72
5.27
4.94
4.61
4.15
3.45
2.45
1.20
-0.18
-1.47
-2.47
-3.05
-3.21
-3.08
-2.82
-2.64
-2.64
-2.83
-3.18
-3.59
-4.02
-4.46
-4.98
-5.68
-6.69
-8.10
-9.90
-11.90
-13.80
-15.12
-15.47
-14.65
-12.73
-10.13
-7.36
-4.85
-2.80
-1.17
0.24
1.56
2.79
3.78
4.33
4.33
3.84
3.10
2.39
1.98
1.95
2.28
2.86
3.62
4.46
5.36
6.32
7.25
8.06
8.56
8.65
8.30
7.60
6.78
6.00
5.34
4.76
4.17
3.48
2.66
1.74
0.73
-0.35
-1.51
-2.73
-3.94
-5.01
-5.83
-6.34
-6.58
-6.68
-6.80
-7.01
-7.31
-7.68
-8.11
-8.65
-9.37
-10.38
-11.73
-13.37
-15.12
-16.64
-17.53
-17.48
-16.32
-14.17
-11.37
-8.35
-5.50
-3.02
-0.98
0.69
2.05
3.11
3.86
4.26
4.37
4.32
4.26
4.35
4.65
5.12
5.69
6.27
6.77
7.19
7.56
7.92
8.31
8.71
9.07
9.29
9.32
9.18
8.93
8.68
8.54
8.51
8.57
8.61
8.55
8.32
7.88
7.21
6.29
5.11
3.72
2.23
0.81
-0.43
-1.45
-2.34
-3.31
-4.54
-6.13
-7.98
-9.83
-11.37
-12.37
-12.85
-13.04
-13.32
-14.01
-15.27
-16.96
-18.69
-19.98
-20.34
-19.54
-17.55
-14.66
-11.30
-7.93
-4.99
-2.72
-1.20
-0.28
0.29
0.77
1.38
2.19
3.14
4.09
4.90
5.54
6.06
6.60
7.29
8.23
9.40
10.73
12.07
13.25
14.12
14.62
14.77
14.65
14.34
13.89
13.27
12.43
11.38
10.19
9.01
7.96
7.06
6.24
5.35
4.32
3.19
2.12
1.24
0.64
0.23
-0.17
-0.72
-1.49
-2.41
-3.32
-4.11
-4.71
-5.18
-5.62
-6.14
-6.71
-7.30
-7.86
-8.43
-9.22
-10.46
-12.30
-14.66
-17.14
-19.09
-19.90
-19.23
-17.11
-14.03
-10.62
-7.49
-4.95
-3.02
-1.48
-0.09
1.28
2.56
3.57
4.20
4.43
4.39
4.26
4.21
4.34
4.68
5.25
6.09
7.22
8.60
10.09
11.50
12.59
13.21
13.37
13.16
12.74
12.24
11.76
11.27
10.72
10.07
9.36
8.64
8.05
7.64
7.35
7.01
6.42
5.47
4.17
2.73
1.39
0.35
-0.34
-0.77
-1.10
-1.53
-2.15
-2.99
-4.00
-5.08
-6.13
-7.05
-7.79
-8.39
-9.02
-9.89
-11.21
-13.06
-15.27
-17.47
-19.17
-19.88
-19.32
-17.52
-14.78
-11.58
-8.41
-5.58
-3.26
-1.47
-0.14
0.77
1.36
1.73
2.03
2.41
2.99
3.79
4.71
5.62
6.41
7.10
7.75
8.47
9.30
10.19
11.04
11.77
12.32
12.65
12.72
12.44
11.79
10.77
9.52
8.26
7.19
6.40
5.80
5.20
4.40
3.35
2.16
1.06
0.23
-0.31
-0.71
-1.22
-2.01
-3.14
-4.52
-5.99
-7.43
-8.65
-9.36
-9.16
-7.65
-4.69
-0.57
3.85
7.44
9.16
8.56
5.85
1.83
-2.43
-5.98
-8.28
-9.18
-8.84
-7.58
-5.76
-3.74
-1.88
-0.46
0.37
0.65
0.60
0.51
0.63
0.97
1.41
1.75
1.86
1.85
1.98
2.55
3.76
5.59
7.75
9.83
11.49
12.65
13.44
14.16
15.02
16.00
16.78
16.84
15.72
13.37
10.17
6.90
4.34
2.96
2.66
2.86
2.76
1.60
-1.10
-5.58
-11.95
-20.26
-30.50
-42.44
-55.41
-68.27
-79.63
-88.38
-94.19
-97.80
-100.62
-103.84
-107.35
-109.33
-107.03
-98.46
-83.87
-65.96
-48.73
-35.57
-27.80
-24.56
-24.04
-25.15
-28.12
-33.77
-41.92
-50.10
-53.68
-47.48
-28.06
4.64
47.12
93.75
138.74
177.85
209.17
232.76
249.42
259.28
261.26
253.48
234.97
207.11
174.16
142.05
116.03
98.26
86.99
77.88
66.63
51.57
34.36
18.78
8.25
3.78
3.48
3.92
2.14
-2.89
-10.20
-17.91
-24.53
-29.75
-34.32
-39.43
-45.94
-54.10
-63.60
-73.89
-84.30
-94.10
-102.51
-108.76
-112.19
-112.46
-109.55
-103.87
-96.33
-88.41
-82.00
-78.99
-80.50
-86.24
-94.28
-101.66
-105.56
-104.50
-98.82
-90.22
-80.64
-71.25
-62.12
-52.61
-42.26
-31.26
-20.37
-10.40
-1.68
5.96
12.85
19.13
24.59
28.97
32.39
35.46
38.95
43.22
47.74
51.14
51.90
49.08
42.95
34.90
26.82
20.36
16.29
14.49
14.31
15.11
16.58
18.77
21.77
25.42
29.09
31.90
33.15
32.64
30.91
28.96
27.85
28.16
29.76
31.94
33.77
34.61
34.42
33.68
33.08
33.09
33.68
34.37
34.52
33.62
31.58
28.68
25.35
21.94
18.66
15.74
13.58
12.78
13.80
16.66
20.63
24.46
26.84
26.93
24.66
20.55
15.41
9.98
4.83
0.40
-2.81
-4.50
-4.72
-4.06
-3.54
-4.23
-6.67
-10.68
-15.44
-19.92
-23.33
-25.39
-26.29
-26.44
-26.20
-25.77
-25.21
-24.51
-23.66
-22.74
-21.86
-21.14
-20.71
-20.63
-20.90
-21.35
-21.72
-21.70
-21.00
-19.44
-17.02
-13.85
-10.20
-6.39
-2.81
0.23
2.50
3.97
4.78
5.17
5.38
5.52
5.61
5.61
5.50
5.36
5.31
5.52
6.04
6.85
7.80
8.73
9.46
9.91
10.04
9.90
9.55
9.02
8.34
7.52
6.61
5.65
4.72
3.89
3.11
2.31
1.41
0.37
-0.73
-1.75
-2.58
-3.25
-3.94
-4.86
-6.24
-8.09
-10.25
-12.49
-14.55
-16.24
-17.44
-18.01
-17.79
-16.62
-14.45
-11.40
-7.82
-4.12
-0.74
2.01
3.99
5.23
5.84
6.00
5.88
5.67
5.50
5.44
5.53
5.76
6.06
6.39
6.74
7.14
7.64
8.28
8.99
9.62
9.99
9.94
9.40
8.47
7.33
6.18
5.11
4.08
2.98
1.76
0.45
-0.82
-1.92
-2.82
-3.55
-4.28
-5.08
-6.00
-7.02
-8.09
-9.25
-10.59
-12.26
-14.33
-16.72
-19.17
-21.21
-22.34
-22.16
-20.52
-17.59
-13.75
-9.56
-5.53
-2.11
0.52
2.29
3.36
3.93
4.22
4.40
4.58
4.78
5.01
5.28
5.62
6.07
6.66
7.36
8.14
8.94
9.69
10.28
10.64
10.66
10.30
9.58
8.57
7.33
5.97
4.61
3.41
2.50
1.95
1.74
1.71
1.67
1.43
0.88
-0.02
-1.24
-2.74
-4.41
-6.07
-7.48
-8.46
-9.03
-9.46
-10.19
-11.60
-13.74
-16.24
-18.39
-19.42
-18.92
-16.88
-13.72
-10.06
-6.43
-3.20
-0.52
1.54
2.99
3.88
4.33
4.54
4.68
4.90
5.26
5.76
6.39
7.16
8.05
9.02
9.98
10.88
11.68
12.39
13.05
13.61
13.96
13.97
13.53
12.67
11.53
10.34
9.33
8.65
8.34
8.29
8.32
8.20
7.75
6.88
5.72
4.54
3.65
3.28
3.43
3.83
4.10
3.89
3.03
1.59
-0.15
-1.92
-3.49
-4.75
-5.72
-6.48
-7.21
-8.14
-9.52
-11.55
-14.25
-17.34
-20.26
-22.33
-22.97
-21.91
-19.31
-15.64
-11.57
-7.72
-4.49
-2.03
-0.29
0.94
1.88
2.70
3.54
4.45
5.44
6.48
7.50
8.44
9.29
10.05
10.80
11.63
12.56
13.58
14.53
15.27
15.64
15.56
15.05
14.18
13.07
11.87
10.72
9.79
9.13
8.75
8.51
8.27
7.88
7.24
6.37
5.33
4.24
3.27
2.52
2.08
1.90
1.85
1.71
1.28
0.43
-0.80
-2.25
-3.73
-5.09
-6.29
-7.39
-8.46
-9.63
-11.00
-12.69
-14.75
-17.10
-19.43
-21.25
-22.04
-21.40
-19.34
-16.25
-12.76
-9.53
-6.97
-5.14
-3.84
-2.86
-2.04
-1.40
-1.03
-0.97
-1.14
-1.39
-1.52
-1.39
-0.98
-0.29
0.64
1.76
3.05
4.43
5.81
6.99
7.80
8.10
7.91
7.38
6.79
6.38
6.24
6.27
6.25
6.02
5.57
5.00
4.51
4.15
3.85
3.39
2.55
1.29
-0.29
-1.97
-3.57
-4.95
-6.14
-7.18
-8.17
-9.19
-10.30
-11.57
-12.97
-14.44
-15.78
-16.73
-17.02
-16.45
-14.92
-12.51
-9.49
-6.21
-3.06
-0.34
1.81
3.44
4.69
5.71
6.57
7.24
7.68
7.87
7.86
7.75
7.65
7.66
7.84
8.22
8.78
9.49
10.24
10.88
11.24
11.23
10.87
10.34
9.82
9.43
9.18
8.88
8.34
7.46
6.25
4.92
3.70
2.79
2.26
1.97
1.75
1.37
0.73
-0.16
-1.24
-2.43
-3.64
-4.83
-5.97
-7.02
-7.96
-8.84
-9.79
-11.00
-12.64
-14.78
-17.28
-19.77
-21.74
-22.69
-22.29
-20.53
-17.70
-14.27
-10.76
-7.54
-4.80
-2.49
-0.54
1.17
2.62
3.72
4.40
4.64
4.55
4.40
4.41
4.74
5.40
6.25
7.13
7.92
8.65
9.39
10.24
11.15
12.00
12.59
12.78
12.54
11.99
11.31
10.70
10.22
9.82
9.35
8.66
7.68
6.52
5.33
4.28
3.40
2.57
1.58
0.29
-1.28
-2.98
-4.57
-5.94
-7.10
-8.17
-9.24
-10.28
-11.23
-12.07
-12.95
-14.12
-15.81
-17.94
-20.15
-21.80
-22.25
-21.18
-18.70
-15.28
-11.54
-8.06
-5.18
-3.02
-1.50
-0.47
0.27
0.91
1.59
2.42
3.37
4.32
5.16
5.86
6.45
7.04
7.76
8.66
9.70
10.75
11.72
12.49
13.05
13.42
13.63
13.65
13.40
12.82
11.89
10.72
9.55
8.60
7.99
7.63
7.29
6.70
5.74
4.52
3.31
2.39
1.86
1.61
1.42
1.03
0.34
-0.63
-1.76
-2.91
-4.02
-5.05
-6.02
-6.92
-7.85
-8.95
-10.40
-12.29
-14.40
-16.29
-17.36
-17.17
-15.68
-13.28
-10.62
-8.21
-6.32
-4.85
-3.55
-2.22
-0.86
0.36
1.26
1.78
2.00
2.08
2.21
2.47
2.86
3.33
3.84
4.37
4.94
5.55
6.15
6.67
6.96
6.89
6.43
5.68
4.83
4.14
3.79
3.80
4.06
4.34
4.44
4.19
3.61
2.75
1.72
0.68
-0.28
-1.07
-1.62
-1.96
-2.16
-2.39
-2.79
-3.45
-4.37
-5.43
-6.48
-7.42
-8.29
-9.27
-10.56
-12.28
-14.37
-16.48
-18.15
-18.92
-18.50
-16.89
-14.32
-11.19
-7.85
-4.59
-1.54
1.18
3.45
5.20
6.34
6.91
7.02
6.81
6.40
5.83
5.12
4.33
3.62
3.19
3.24
3.78
4.63
5.52
6.15
6.41
6.40
6.36
6.51
6.88
7.30
7.47
7.18
6.40
5.31
4.20
3.30
2.65
2.17
1.68
1.04
0.24
-0.64
-1.51
-2.34
-3.18
-4.10
-5.15
-6.34
-7.59
-8.90
-10.34
-12.06
-14.20
-16.78
-19.53
-22.00
-23.61
-23.91
-22.71
-20.12
-16.55
-12.49
-8.47
-4.82
-1.76
0.66
2.50
3.91
5.03
6.01
6.89
7.66
8.25
8.60
8.78
8.92
9.19
9.70
10.46
11.38
12.32
13.21
13.99
14.58
14.95
14.98
14.63
13.92
13.01
12.14
11.53
11.29
11.37
11.61
11.78
11.69
11.16
10.14
8.70
7.00
5.29
3.79
2.60
1.66
0.81
-0.13
-1.26
-2.58
-4.01
-5.51
-7.05
-8.64
-10.28
-11.86
-13.25
-14.40
-15.38
-16.47
-17.97
-20.06
-22.57
-24.99
-26.65
-26.94
-25.63
-22.90
-19.25
-15.29
-11.43
-7.88
-4.65
-1.75
0.73
2.61
3.75
4.20
4.24
4.25
4.58
5.35
6.44
7.56
8.44
9.02
9.42
9.89
10.66
11.78
13.12
14.41
15.39
15.96
16.13
16.12
16.11
16.26
16.52
16.74
16.64
16.08
15.06
13.77
12.44
11.28
10.32
9.50
8.69
7.85
7.00
6.18
5.40
4.62
3.72
2.67
1.55
0.50
-0.31
-0.77
-0.86
-0.69
-0.35
0.04
0.35
0.42
0.05
-0.95
-2.65
-4.87
-7.18
-8.98
-9.69
-8.92
-6.65
-3.16
1.05
5.52
9.95
14.21
18.21
21.72
24.28
25.31
24.40
21.57
17.39
12.79
8.64
5.29
2.33
-1.16
-6.21
-13.41
-22.59
-32.96
-43.40
-52.96
-61.18
-68.01
-73.37
-76.86
-77.89
-75.90
-70.75
-62.68
-52.03
-38.77
-22.18
-1.31
24.09
52.27
79.32
100.23
111.06
110.68
101.04
86.09
69.86
54.88
41.53
29.21
17.66
8.12
3.63
7.05
18.91
36.62
56.07
73.45
87.10
97.26
105.36
112.65
119.26
124.27
126.36
124.81
119.35
111.46
102.20
92.96
84.68
77.39
70.34
62.64
53.92
43.90
33.17
22.42
12.31
2.81
-7.01
-18.85
-35.31
-55.10
-79.37
-109.88
-147.77
-191.51
-235.94
-272.84
-293.29
-291.06
-264.99
-220.21
-165.44
-109.80
-60.19
-20.83
5.59
17.00
12.33
-6.68
-34.74
-63.05
-82.73
-89.01
-83.91
-75.41
-73.37
-84.76
-110.35
-144.94
-179.50
-204.94
-214.69
-205.89
-179.34
-138.46
-88.66
-36.61
10.70
47.63
71.50
83.43
88.35
93.77
107.37
134.17
174.52
223.49
272.26
311.00
331.86
330.53
306.00
259.38
193.05
111.14
20.70
-67.91
-142.75
-193.52
-214.95
-208.30
-180.15
-139.78
-96.43
-57.96
-30.77
-19.28
-24.82
-44.43
-71.16
-96.34
-113.29
-120.12
-120.18
-119.76
-124.40
-136.40
-154.03
-172.92
-188.24
-196.27
-194.94
-183.67
-162.97
-133.97
-97.91
-55.96
-9.24
40.65
90.73
136.63
173.38
197.04
206.40
203.61
193.41
181.38
171.95
166.96
165.52
165.11
163.31
159.08
153.11
147.01
141.64
136.16
127.99
113.97
92.11
62.72
27.92
-9.86
-49.42
-90.93
-134.64
-178.83
-218.80
-247.87
-260.14
-253.35
-230.21
-197.32
-162.44
-131.68
-108.03
-91.62
-81.11
-74.92
-71.67
-69.64
-66.36
-58.73
-43.98
-20.66
10.80
48.11
87.77
126.19
160.75
190.68
217.69
245.89
280.50
325.48
380.90
441.33
496.63
535.13
547.96
532.53
493.29
439.51
381.33
326.11
276.78
232.67
191.71
152.53
115.36
81.67
52.88
29.29
9.95
-7.05
-23.70
-41.51
-61.22
-83.44
-109.21
-140.20
-177.88
-221.78
-268.17
-310.08
-339.59
-351.08
-343.61
-321.06
-289.82
-255.59
-221.36
-187.39
-153.05
-118.73
-86.75
-60.77
-44.20
-38.67
-43.18
-54.28
-66.95
-75.91
-77.06
-68.87
-52.87
-33.22
-14.99
-2.06
4.27
5.19
3.34
1.27
0.64
1.96
5.16
9.85
15.49
21.16
25.57
27.18
24.71
17.63
6.65
-6.41
-19.08
-29.05
-34.89
-36.32
-34.12
-29.63
-24.21
-18.88
-14.22
-10.52
-7.98
-6.68
-6.55
-7.30
-8.45
-9.57
-10.51
-11.64
-13.72
-17.59
-23.77
-32.00
-41.18
-49.60
-55.50
-57.68
-55.83
-50.46
-42.61
-33.26
-23.12
-12.69
-2.50
6.65
13.72
17.85
18.71
16.84
13.42
9.85
7.27
6.43
7.85
12.09
19.71
30.89
44.91
59.87
73.02
81.56
83.70
79.33
69.88
57.64
44.63
31.85
19.07
5.45
-9.51
-25.20
-39.71
-50.49
-55.47
-54.15
-47.90
-39.46
-31.81
-26.95
-25.47
-26.72
-29.55
-33.00
-36.51
-39.72
-42.18
-43.14
-41.88
-38.01
-31.78
-24.10
-16.20
-9.32
-4.28
-1.44
-0.56
-1.01
-1.91
-2.50
-2.38
-1.54
-0.26
1.18
2.67
4.31
6.20
8.30
10.30
11.85
12.71
12.91
12.67
12.24
11.76
11.22
10.53
9.64
8.52
7.20
5.65
3.86
1.86
-0.22
-2.22
-4.03
-5.66
-7.21
-8.88
-10.78
-12.91
-15.17
-17.34
-19.13
-20.18
-20.09
-18.54
-15.47
-11.13
-6.15
-1.28
2.77
5.69
7.61
8.95
10.15
11.48
12.85
13.97
14.55
14.52
14.14
13.86
14.11
15.06
16.53
18.08
19.15
19.37
18.66
17.26
15.63
14.27
13.49
13.34
13.69
14.27
14.84
15.30
15.60
15.80
15.87
15.75
15.30
14.50
13.40
12.20
11.12
10.29
9.61
8.87
7.77
6.14
3.99
1.54
-0.90
-3.02
-4.59
-5.58
-6.13
-6.53
-7.21
-8.48
-10.51
-13.11
-15.82
-17.98
-19.01
-18.57
-16.72
-13.82
-10.41
-7.00
-3.92
-1.35
0.71
2.42
3.93
5.42
6.97
8.55
10.00
11.07
11.49
11.07
9.81
7.88
5.60
3.41
1.73
0.92
1.18
2.46
4.46
6.69
8.60
9.72
9.83
8.94
7.23
4.95
2.33
-0.42
-3.12
-5.61
-7.80
-9.63
-11.11
-12.23
-12.92
-13.11
-12.82
-12.27
-11.86
-12.07
-13.23
-15.33
-17.93
-20.32
-21.72
-21.70
-20.39
-18.52
-17.20
-17.36
-19.28
-22.28
-24.87
-25.35
-22.50
-16.15
-7.16
3.03
13.11
22.47
31.32
40.50
50.92
63.26
77.60
93.19
108.13
119.15
121.93
112.18
87.32
48.09
-0.78
-51.55
-95.83
-127.30
-143.55
-146.28
-139.74
-128.61
-116.15
-103.75
-91.41
-78.76
-65.77
-52.75
-39.98
-27.34
-14.40
-0.75
13.44
27.23
39.10
47.51
51.46
50.92
46.73
40.36
33.41
27.22
22.57
19.64
18.10
17.34
16.69
15.66
13.96
11.50
8.31
4.59
0.77
-2.44
-4.16
-3.52
-0.11
5.74
12.97
20.10
25.74
29.08
30.09
29.30
27.50
25.32
23.14
21.06
19.15
17.50
16.33
15.81
15.96
16.53
17.16
17.47
17.33
16.91
16.60
16.78
17.59
18.84
20.08
20.77
20.65
19.74
18.45
17.26
16.55
16.43
16.73
17.16
17.41
17.23
16.51
15.27
13.65
11.85
10.15
8.81
7.99
7.62
7.47
7.13
6.15
4.11
0.75
-3.95
-9.73
-16.05
-22.10
-27.00
-29.98
-30.68
-29.24
-26.33
-22.90
-19.89
-17.87
-16.99
-16.97
-17.30
-17.54
-17.41
-16.88
-16.01
-14.92
-13.63
-12.15
-10.49
-8.79
-7.24
-5.99
-5.10
-4.41
-3.66
-2.60
-1.21
0.32
1.65
2.44
2.56
2.19
1.68
1.41
1.59
2.15
2.83
3.32
3.42
3.08
2.43
1.63
0.81
0.03
-0.68
-1.27
-1.62
-1.65
-1.37
-0.94
-0.67
-0.89
-1.83
-3.46
-5.53
-7.60
-9.26
-10.21
-10.37
-9.82
-8.76
-7.43
-5.99
-4.59
-3.28
-2.05
-0.86
0.34
1.55
2.72
3.82
4.77
5.52
6.01
6.17
5.97
5.46
4.79
4.19
3.87
3.92
4.21
4.50
4.48
3.97
2.97
1.64
0.24
-1.00
-1.99
-2.76
-3.39
-3.99
-4.60
-5.21
-5.78
-6.38
-7.07
-7.99
-9.13
-10.37
-11.47
-12.22
-12.53
-12.53
-12.50
-12.63
-12.95
-13.22
-13.10
-12.31
-10.81
-8.76
-6.37
-3.78
-0.96
2.18
5.61
9.07
12.06
14.06
14.78
14.32
13.12
11.75
10.65
9.99
9.63
9.34
8.95
8.44
7.89
7.37
6.84
6.18
5.21
3.91
2.36
0.80
-0.58
-1.71
-2.64
-3.53
-4.49
-5.55
-6.64
-7.66
-8.54
-9.29
-9.98
-10.68
-11.43
-12.22
-13.02
-13.76
-14.35
-14.58
-14.21
-13.01
-10.91
-8.04
-4.76
-1.56
1.14
3.08
4.22
4.70
4.70
4.39
3.90
3.30
2.60
1.82
0.98
0.12
-0.64
-1.15
-1.24
-0.88
-0.15
0.74
1.51
1.96
2.02
1.75
1.29
0.78
0.32
-0.05
-0.29
-0.37
-0.36
-0.35
-0.49
-0.91
-1.69
-2.76
-3.93
-4.99
-5.77
-6.24
-6.54
-6.90
-7.60
-8.78
-10.42
-12.29
-14.00
-15.12
-15.28
-14.29
-12.20
-9.28
-5.96
-2.69
0.13
2.25
3.62
4.38
4.76
5.05
5.43
5.95
6.51
6.94
7.08
6.95
6.66
6.46
6.50
6.84
7.35
7.81
8.00
7.84
7.39
6.80
6.21
5.67
5.12
4.46
3.63
2.73
1.93
1.41
1.22
1.19
1.00
0.31
-1.02
-2.81
-4.69
-6.19
-6.98
-7.02
-6.51
-5.81
-5.29
-5.26
-5.94
-7.43
-9.75
-12.69
-15.85
-18.64
-20.46
-20.93
-19.96
-17.84
-15.07
-12.14
-9.42
-7.08
-5.13
-3.53
-2.30
-1.49
-1.16
-1.30
-1.78
-2.29
-2.52
-2.19
-1.17
0.43
2.36
4.26
5.83
6.92
7.57
8.01
8.46
9.04
9.70
10.24
10.42
10.15
9.52
8.77
8.22
8.09
8.39
8.90
9.29
9.24
8.63
7.54
6.22
4.95
3.89
3.05
2.30
1.44
0.36
-1.01
-2.62
-4.43
-6.36
-8.32
-10.26
-12.06
-13.64
-14.89
-15.74
-16.10
-15.86
-14.91
-13.19
-10.77
-7.84
-4.68
-1.65
0.97
3.04
4.56
5.64
6.42
7.00
7.41
7.62
7.60
7.39
7.11
6.90
6.88
7.11
7.55
8.12
8.73
9.28
9.72
10.05
10.30
10.54
10.81
11.09
11.25
11.09
10.47
9.32
7.75
6.04
4.48
3.31
2.56
2.13
1.77
1.24
0.40
-0.78
-2.22
-3.78
-5.36
-6.86
-8.24
-9.47
-10.62
-11.75
-13.02
-14.54
-16.30
-18.04
-19.38
-19.83
-19.07
-16.98
-13.78
-9.90
-5.85
-2.11
1.01
3.37
4.99
6.01
6.68
7.17
7.60
8.00
8.30
8.44
8.43
8.35
8.35
8.59
9.16
10.06
11.14
12.17
12.91
13.19
12.95
12.24
11.20
10.00
8.79
7.67
6.69
5.87
5.23
4.73
4.32
3.85
3.10
1.94
0.33
-1.60
-3.62
-5.51
-7.20
-8.78
-10.46
-12.49
-15.02
-18.05
-21.40
-24.67
-27.37
-28.93
-28.87
-26.97
-23.38
-18.58
-13.26
-8.11
-3.57
0.18
3.16
5.45
7.13
8.24
8.84
9.05
9.12
9.25
9.62
10.24
11.08
12.03
13.05
14.13
15.26
16.38
17.34
17.98
18.12
17.74
16.92
15.84
14.67
13.53
12.38
11.15
9.76
8.20
6.57
5.01
3.60
2.35
1.16
-0.09
-1.48
-2.95
-4.38
-5.66
-6.76
-7.80
-9.05
-10.76
-13.10
-16.04
-19.31
-22.51
-25.12
-26.63
-26.67
-25.10
-22.04
-17.88
-13.20
-8.57
-4.46
-1.09
1.50
3.45
4.95
6.10
7.03
7.84
8.62
9.48
10.44
11.45
12.39
13.25
14.09
15.08
16.38
18.04
19.87
21.56
22.75
23.23
23.00
22.22
21.08
19.74
18.26
16.64
14.95
13.32
11.82
10.46
9.11
7.61
5.87
3.96
2.12
0.56
-0.62
-1.51
-2.38
-3.48
-4.86
-6.37
-7.72
-8.61
-8.96
-8.88
-8.67
-8.60
-8.90
-9.72
-11.13
-13.18
-15.75
-18.60
-21.16
-22.75
-22.74
-20.86
-17.38
-12.96
-8.44
-4.51
-1.47
0.68
2.23
3.44
4.56
5.70
6.90
8.10
9.20
10.05
10.54
10.69
10.61
10.54
10.73
11.35
12.41
13.84
15.48
17.10
18.52
19.55
20.10
20.15
19.81
19.23
18.60
18.07
17.70
17.46
17.25
16.91
16.29
15.27
13.85
12.11
10.22
8.35
6.62
5.05
3.58
2.13
0.64
-0.87
-2.38
-3.84
-5.27
-6.68
-8.08
-9.48
-10.88
-12.27
-13.73
-15.39
-17.38
-19.80
-22.56
-25.34
-27.60
-28.72
-28.20
-25.84
-21.86
-16.84
-11.54
-6.68
-2.75
0.08
1.91
2.98
3.56
3.86
4.03
4.14
4.22
4.34
4.51
4.78
5.20
5.78
6.47
7.22
7.93
8.58
9.15
9.72
10.30
10.84
11.24
11.34
11.09
10.57
9.94
9.35
8.86
8.38
7.74
6.80
5.58
4.21
2.92
1.89
1.16
0.65
0.20
-0.36
-1.13
-2.15
-3.37
-4.68
-5.91
-6.93
-7.67
-8.21
-8.73
-9.50
-10.74
-12.56
-14.82
-17.21
-19.23
-20.39
-20.29
-18.76
-15.90
-12.07
-7.75
-3.51
0.26
3.28
5.49
6.93
7.67
7.80
7.47
6.84
6.14
5.60
5.38
5.51
5.91
6.45
7.02
7.61
8.24
8.94
9.63
10.17
10.36
10.09
9.36
8.34
7.24
6.21
5.34
4.61
4.02
3.58
3.34
3.31
3.38
3.32
2.91
1.96
0.51
-1.22
-2.96
-4.48
-5.69
-6.65
-7.51
-8.38
-9.38
-10.60
-12.15
-14.14
-16.54
-19.14
-21.50
-23.02
-23.14
-21.54
-18.33
-14.04
-9.43
-5.23
-1.92
0.44
2.11
3.48
4.88
6.43
8.03
9.48
10.53
11.07
11.14
10.92
10.64
10.47
10.51
10.75
11.09
11.44
11.76
12.03
12.25
12.33
12.12
11.47
10.35
8.86
7.30
5.94
5.02
4.59
4.52
4.63
4.71
4.61
4.24
3.50
2.35
0.76
-1.20
-3.31
-5.31
-6.88
-7.87
-8.31
-8.45
-8.61
-9.12
-10.15
-11.71
-13.74
-16.12
-18.73
-21.33
-23.53
-24.82
-24.72
-22.98
-19.78
-15.66
-11.39
-7.64
-4.80
-2.90
-1.71
-0.86
-0.05
0.91
2.07
3.35
4.61
5.68
6.43
6.85
7.07
7.28
7.65
8.22
8.94
9.73
10.54
11.37
12.22
12.98
13.47
13.51
13.03
12.13
11.07
10.13
9.43
9.00
8.69
8.38
8.01
7.60
7.14
6.61
5.94
5.08
4.01
2.77
1.45
0.11
-1.24
-2.61
-4.01
-5.40
-6.77
-8.06
-9.26
-10.38
-11.52
-12.71
-14.00
-15.39
-16.86
-18.40
-19.96
-21.46
-22.66
-23.27
-22.97
-21.56
-19.07
-15.76
-12.11
-8.55
-5.43
-2.86
-0.86
0.63
1.67
2.35
2.83
3.29
3.92
4.76
5.73
6.59
7.18
7.45
7.54
7.72
8.19
9.02
10.09
11.16
11.98
12.34
12.12
11.25
9.76
7.84
5.91
4.53
4.32
5.57
8.22
11.73
15.32
18.22
19.95
20.35
19.57
17.87
15.55
12.88
10.11
7.41
4.96
2.79
0.84
-0.99
-2.79
-4.63
-6.51
-8.41
-10.33
-12.21
-13.97
-15.55
-16.90
-18.08
-19.25
-20.54
-21.91
-23.17
-23.88
-23.64
-22.19
-19.58
-16.15
-12.38
-8.73
-5.54
-2.95
-0.98
0.40
1.26
1.68
1.74
1.61
1.48
1.51
1.76
2.21
2.73
3.20
3.62
4.02
4.50
5.14
5.89
6.66
7.33
7.80
8.08
8.19
8.19
8.08
7.79
7.23
6.36
5.23
4.00
2.89
2.00
1.30
0.64
-0.17
-1.23
-2.48
-3.71
-4.73
-5.44
-5.91
-6.28
-6.73
-7.32
-8.09
-9.08
-10.38
-12.01
-13.88
-15.67
-16.84
-16.92
-15.62
-13.03
-9.57
-5.78
-2.21
0.82
3.12
4.64
5.39
5.42
4.92
4.14
3.39
2.91
2.76
2.87
3.05
3.14
3.09
2.92
2.79
2.85
3.21
3.91
4.90
6.05
7.20
8.18
8.85
9.14
9.03
8.52
7.68
6.64
5.61
4.80
4.38
4.34
4.44
4.32
3.62
2.19
0.18
-2.03
-4.00
-5.40
-6.07
-6.13
-5.78
-5.38
-5.33
-5.97
-7.53
-9.92
-12.73
-15.25
-16.72
-16.64
-14.95
-12.08
-8.70
-5.56
-3.12
-1.50
-0.52
0.16
0.82
1.57
2.30
2.84
3.05
2.94
2.73
2.65
2.94
3.61
4.54
5.56
6.58
7.62
8.75
10.01
11.26
12.23
12.60
12.22
11.18
9.74
8.29
7.13
6.33
5.77
5.24
4.54
3.60
2.54
1.58
0.91
0.65
0.69
0.79
0.63
0.00
-1.17
-2.74
-4.47
-6.11
-7.59
-8.97
-10.45
-12.24
-14.43
-16.98
-19.65
-22.12
-23.95
-24.78
-24.30
-22.43
-19.35
-15.51
-11.49
-7.88
-5.04
-3.06
-1.72
-0.72
0.29
1.46
2.77
4.08
5.21
6.02
6.50
6.77
7.02
7.44
8.14
9.15
10.37
11.64
12.82
13.78
14.45
14.77
14.71
14.24
13.39
12.27
11.08
10.07
9.42
9.18
9.23
9.32
9.20
8.73
7.95
6.99
6.04
5.20
4.46
3.67
2.72
1.53
0.16
-1.23
-2.50
-3.57
-4.56
-5.64
-6.97
-8.65
-10.64
-12.86
-15.20
-17.56
-19.76
-21.52
-22.43
-22.07
-20.26
-17.17
-13.32
-9.45
-6.18
-3.80
-2.28
-1.29
-0.46
0.41
1.38
2.38
3.29
3.99
4.42
4.62
4.70
4.87
5.37
6.38
7.96
10.01
12.33
14.66
16.80
18.61
19.95
20.68
20.63
19.74
18.07
15.88
13.54
11.44
9.75
8.44
7.29
6.06
4.65
3.15
1.78
0.68
-0.18
-0.94
-1.81
-2.87
-4.08
-5.24
-6.22
-7.03
-7.78
-8.61
-9.63
-10.87
-12.38
-14.17
-16.16
-18.15
-19.73
-20.40
-19.80
-17.82
-14.78
-11.19
-7.68
-4.64
-2.27
-0.51
0.81
1.80
2.55
3.03
3.22
3.11
2.77
2.29
1.85
1.66
1.92
2.75
4.11
5.81
7.55
8.98
9.87
10.17
9.92
9.23
8.24
6.99
5.58
4.12
2.81
1.85
1.36
1.26
1.34
1.27
0.84
-0.02
-1.20
-2.48
-3.67
-4.67
-5.52
-6.34
-7.18
-8.10
-9.10
-10.22
-11.52
-12.99
-14.45
-15.54
-15.76
-14.77
-12.51
-9.29
-5.68
-2.26
0.62
2.87
4.60
5.96
7.00
7.71
8.08
8.13
7.90
7.48
6.93
6.31
5.72
5.36
5.38
5.89
6.85
8.02
9.11
9.86
10.15
10.00
9.57
8.98
8.32
7.63
6.90
6.13
5.33
4.55
3.84
3.25
2.79
2.40
1.98
1.39
0.55
-0.52
-1.68
-2.75
-3.66
-4.47
-5.41
-6.75
-8.71
-11.36
-14.58
-18.10
-21.54
-24.45
-26.34
-26.77
-25.52
-22.68
-18.67
-14.16
-9.80
-6.02
-2.93
-0.35
1.98
4.25
6.44
8.43
10.04
11.19
11.93
12.33
12.51
12.59
12.65
12.76
13.03
13.44
13.92
14.34
14.51
14.33
13.82
13.10
12.28
11.44
10.59
9.74
8.96
8.41
8.24
8.45
8.88
9.16
8.97
8.16
6.85
5.36
4.01
2.95
2.05
1.01
-0.44
-2.41
-4.73
-7.11
-9.29
-11.09
-12.53
-13.72
-14.77
-15.78
-16.84
-18.12
-19.74
-21.75
-23.90
-25.71
-26.49
-25.63
-22.87
-18.45
-13.14
-7.88
-3.51
-0.47
1.29
2.19
2.77
3.48
4.49
5.72
6.99
8.12
9.00
9.63
10.07
10.36
10.58
10.81
11.14
11.70
12.52
13.52
14.49
15.15
15.25
14.67
13.51
11.99
10.46
9.18
8.33
7.93
7.83
7.82
7.70
7.33
6.73
6.02
5.31
4.71
4.19
3.68
3.12
2.52
1.96
1.54
1.29
1.16
1.00
0.63
-0.07
-1.15
-2.57
-4.27
-6.26
-8.56
-11.23
-14.29
-17.55
-20.60
-22.82
-23.60
-22.58
-19.86
-16.00
-11.81
-8.06
-5.14
-3.04
-1.48
-0.15
1.08
2.17
2.98
3.46
3.66
3.74
3.83
3.99
4.20
4.45
4.81
5.39
6.31
7.55
8.95
10.27
11.21
11.59
11.39
10.75
9.87
8.95
8.13
7.46
6.95
6.54
6.14
5.64
4.93
4.03
3.00
2.02
1.24
0.74
0.49
0.34
0.16
-0.18
-0.66
-1.30
-2.04
-2.91
-3.94
-5.18
-6.64
-8.32
-10.21
-12.23
-14.22
-15.89
-16.86
-16.79
-15.46
-12.93
-9.50
-5.66
-1.91
1.39
4.07
6.20
7.93
9.42
10.73
11.84
12.67
13.14
13.20
12.95
12.63
12.57
13.11
14.46
16.62
19.30
22.10
24.65
26.88
28.97
31.33
34.25
37.68
41.11
43.80
45.10
44.81
43.39
41.85
41.41
43.05
47.24
53.67
61.18
67.74
70.61
66.90
54.32
32.09
1.52
-33.91
-69.42
-100.15
-122.52
-135.07
-138.47
-134.70
-126.02
-114.13
-100.00
-84.35
-68.18
-53.02
-40.52
-31.75
-26.66
-24.10
-22.46
-20.52
-17.95
-15.07
-12.33
-9.73
-6.69
-2.48
3.24
10.10
17.19
23.49
28.27
31.28
32.60
32.54
31.41
29.46
26.83
23.52
19.37
14.20
8.06
1.31
-5.39
-11.30
-15.93
-19.23
-21.43
-22.90
-23.82
-24.15
-23.77
-22.67
-21.10
-19.45
-18.06
-17.11
-16.52
-16.07
-15.60
-15.11
-14.80
-14.90
-15.53
-16.55
-17.55
-17.98
-17.39
-15.56
-12.68
-9.20
-5.64
-2.37
0.55
3.24
5.86
8.40
10.62
12.18
12.91
12.97
12.79
12.95
13.85
15.54
17.72
19.87
21.49
22.25
22.10
21.17
19.71
18.00
16.26
14.65
13.21
11.96
10.90
10.05
9.49
9.27
9.38
9.72
10.12
10.37
10.29
9.80
8.92
7.69
6.23
4.68
3.19
1.90
0.90
0.13
-0.58
-1.49
-2.84
-4.76
-7.18
-9.87
-12.46
-14.56
-15.78
-15.81
-14.54
-12.06
-8.75
-5.15
-1.83
0.77
2.56
3.70
4.53
5.41
6.52
7.85
9.24
10.50
11.42
11.95
12.12
12.13
12.24
12.77
13.87
15.52
17.43
19.11
20.08
20.01
18.89
16.96
14.65
12.37
10.42
8.98
8.11
7.82
8.07
8.70
9.43
9.90
9.73
8.79
7.20
5.31
3.58
2.28
1.48
0.94
0.29
-0.76
-2.30
-4.20
-6.20
-8.01
-9.44
-10.46
-11.22
-11.95
-12.96
-14.50
-16.71
-19.51
-22.56
-25.31
-27.11
-27.45
-26.07
-23.09
-19.01
-14.49
-10.23
-6.67
-3.98
-2.04
-0.60
0.58
1.66
2.64
3.53
4.31
4.98
5.52
5.91
6.13
6.20
6.22
6.36
6.78
7.56
8.64
9.80
10.83
11.51
11.73
11.51
10.91
10.03
9.01
8.00
7.16
6.62
6.44
6.57
6.86
7.10
7.10
6.80
6.24
5.51
4.67
3.73
2.59
1.18
-0.49
-2.31
-4.14
-5.84
-7.33
-8.61
-9.71
-10.71
-11.71
-12.87
-14.33
-16.11
-18.02
-19.65
-20.51
-20.15
-18.46
-15.62
-12.11
-8.45
-5.05
-2.14
0.31
2.38
4.18
5.72
6.97
7.86
8.36
8.50
8.36
8.05
7.70
7.46
7.44
7.74
8.38
9.21
10.04
10.57
10.58
10.04
9.09
8.00
6.97
6.12
5.40
4.67
3.81
2.79
1.71
0.71
-0.12
-0.84
-1.60
-2.59
-3.90
-5.46
-6.99
-8.21
-8.92
-9.12
-9.02
-8.90
-9.06
-9.66
-10.79
-12.44
-14.53
-16.84
-19.01
-20.49
-20.76
-19.52
-16.80
-13.01
-8.78
-4.72
-1.23
1.53
3.60
5.12
6.23
7.01
7.51
7.73
7.70
7.46
7.08
6.74
6.60
6.77
7.21
7.76
8.20
8.43
8.47
8.52
8.71
9.06
9.41
9.57
9.38
8.90
8.35
8.00
7.95
8.12
8.21
7.93
7.09
5.72
4.06
2.40
0.99
-0.11
-1.01
-1.93
-3.09
-4.57
-6.33
-8.21
-10.03
-11.67
-13.08
-14.30
-15.43
-16.59
-17.90
-19.42
-21.09
-22.70
-23.83
-23.99
-22.77
-20.02
-15.96
-11.14
-6.26
-1.93
1.47
3.88
5.45
6.42
7.01
7.37
7.58
7.71
7.82
7.97
8.17
8.39
8.63
8.87
9.17
9.59
10.12
10.70
11.22
11.60
11.75
11.67
11.37
10.86
10.15
9.28
8.39
7.71
7.45
7.70
8.34
9.04
9.40
9.16
8.24
6.81
5.19
3.70
2.57
1.85
1.41
1.02
0.43
-0.53
-1.89
-3.58
-5.38
-7.08
-8.51
-9.63
-10.49
-11.20
-11.95
-12.94
-14.42
-16.55
-19.30
-22.36
-25.09
-26.71
-26.51
-24.24
-20.19
-15.16
-10.17
-6.07
-3.23
-1.54
-0.51
0.34
1.37
2.64
4.09
5.51
6.80
7.91
8.89
9.84
10.89
12.16
13.73
15.52
17.35
18.88
19.82
19.93
19.16
17.60
15.51
13.13
10.68
8.27
6.01
3.94
2.20
0.96
0.35
0.38
0.84
1.33
1.44
0.88
-0.37
-2.00
-3.55
-4.61
-4.97
-4.75
-4.27
-3.99
-4.37
-5.77
-8.40
-12.14
-16.44
-20.26
-22.29
-21.38
-16.93
-9.38
-0.07
9.07
16.15
19.87
19.79
16.31
10.38
3.24
-3.87
-9.89
-14.09
-16.13
-16.12
-14.55
-12.11
-9.57
-7.46
-6.05
-5.26
-4.81
-4.37
-3.71
-2.84
-1.97
-1.38
-1.23
-1.43
-1.68
-1.63
-1.03
0.13
1.69
3.42
5.18
6.85
8.35
9.52
10.16
10.11
9.32
8.01
6.52
5.28
4.55
4.38
4.53
4.66
4.44
3.78
2.79
1.80
1.18
1.13
1.60
2.33
2.90
2.88
1.96
-0.01
-2.93
-6.44
-9.88
-12.46
-13.55
-12.93
-10.99
-8.70
-7.19
-7.31
-9.22
-12.30
-15.40
-17.35
-17.44
-15.60
-12.43
-8.83
-5.71
-3.73
-3.19
-3.97
-5.61
-7.23
-7.78
-6.20
-1.87
5.09
13.74
22.55
29.91
34.65
36.36
35.43
32.67
29.02
25.19
21.57
18.28
15.32
12.67
10.35
8.36
6.69
5.29
4.11
3.07
2.20
1.55
1.23
1.23
1.46
1.67
1.64
1.18
0.32
-0.76
-1.79
-2.58
-3.04
-3.28
-3.45
-3.75
-4.27
-5.06
-6.05
-7.20
-8.44
-9.78
-11.28
-13.07
-15.29
-17.96
-21.00
-24.09
-26.76
-28.45
-28.64
-27.09
-23.91
-19.60
-14.83
-10.29
-6.44
-3.45
-1.22
0.42
1.64
2.51
3.08
3.44
3.75
4.16
4.77
5.54
6.38
7.13
7.79
8.40
9.11
9.98
11.00
12.02
12.84
13.29
13.27
12.86
12.22
11.60
11.20
11.12
11.29
11.51
11.55
11.23
10.57
9.72
8.92
8.33
7.96
7.68
7.35
6.90
6.42
5.99
5.68
5.39
4.90
3.98
2.56
0.76
-1.18
-3.03
-4.69
-6.22
-7.75
-9.44
-11.36
-13.48
-15.80
-18.28
-20.89
-23.50
-25.83
-27.48
-27.96
-26.98
-24.53
-20.94
-16.80
-12.76
-9.31
-6.63
-4.65
-3.11
-1.72
-0.26
1.33
3.01
4.64
6.11
7.36
8.43
9.46
10.61
11.93
13.39
14.83
16.10
17.12
17.92
18.60
19.22
19.78
20.12
20.11
19.66
18.84
17.86
16.96
16.30
15.89
15.58
15.14
14.37
13.21
11.76
10.21
8.80
7.64
6.75
6.08
5.52
4.97
4.37
3.65
2.75
1.62
0.24
-1.34
-3.00
-4.56
-5.82
-6.64
-7.01
-7.02
-6.92
-6.98
-7.38
-8.20
-9.31
-10.52
-11.60
-12.39
-12.82
-12.98
-13.04
-13.25
-13.90
-15.20
-17.18
-19.60
-21.98
-23.66
-24.04
-22.81
-20.04
-16.17
-11.86
-7.70
-4.14
-1.34
0.69
2.08
2.98
3.53
3.88
4.15
4.42
4.68
4.89
5.00
5.00
5.02
5.25
5.88
6.94
8.31
9.77
11.08
12.08
12.74
13.06
13.07
12.74
12.01
10.90
9.49
7.99
6.58
5.37
4.36
3.52
2.78
2.15
1.69
1.39
1.14
0.72
-0.11
-1.49
-3.30
-5.25
-6.95
-8.17
-8.91
-9.45
-10.16
-11.42
-13.35
-15.83
-18.49
-20.77
-22.09
-21.98
-20.20
-16.87
-12.41
-7.47
-2.76
1.19
4.07
5.87
6.79
7.10
7.03
6.73
6.27
5.74
5.18
4.75
4.54
4.66
5.10
5.83
6.76
7.86
9.10
10.44
11.78
12.96
13.78
14.10
13.89
13.26
12.40
11.48
10.61
9.79
8.94
8.02
7.00
5.88
4.70
3.45
2.17
0.86
-0.45
-1.73
-2.97
-4.15
-5.32
-6.53
-7.82
-9.21
-10.63
-12.02
-13.38
-14.85
-16.64
-18.92
-21.63
-24.42
-26.63
-27.55
-26.67
-23.97
-19.87
-15.16
-10.61
-6.74
-3.69
-1.31
0.68
2.53
4.29
5.91
7.34
8.52
9.46
10.19
10.72
11.05
11.20
11.27
11.43
11.85
12.58
13.54
14.49
15.25
15.69
15.88
15.95
16.06
16.25
16.44
16.49
16.29
15.80
15.08
14.24
13.37
12.48
11.53
10.48
9.33
8.15
7.04
6.05
5.20
4.40
3.56
2.63
1.56
0.35
-0.97
-2.41
-3.97
-5.57
-7.12
-8.50
-9.66
-10.60
-11.52
-12.65
-14.19
-16.21
-18.53
-20.70
-22.16
-22.33
-20.85
-17.68
-13.14
-7.78
-2.27
2.83
7.14
10.53
13.13
15.23
17.18
19.27
21.60
24.08
26.49
28.64
30.48
32.13
33.84
35.80
38.12
40.76
43.57
46.46
49.28
51.96
54.31
56.17
57.37
57.79
57.34
55.93
53.46
49.85
45.18
39.78
34.20
29.07
24.79
21.28
18.00
14.18
9.16
2.75
-4.68
-12.36
-19.41
-25.16
-29.25
-31.74
-32.96
-33.49
-33.97
-35.05
-37.24
-40.77
-45.44
-50.54
-55.13
-58.27
-59.47
-59.01
-57.70
-56.42
-55.45
-54.15
-51.21
-45.35
-36.27
-25.05
-13.81
-4.69
1.20
4.25
6.05
8.37
12.30
17.72
23.61
28.62
31.74
32.62
31.42
28.56
24.49
19.57
14.07
8.24
2.31
-3.54
-9.05
-14.00
-17.98
-20.51
-21.08
-19.47
-16.04
-12.04
-9.52
-10.56
-16.43
-26.63
-38.64
-48.60
-52.94
-50.11
-41.65
-31.93
-26.20
-28.51
-39.63
-56.46
-73.21
-84.11
-85.76
-78.67
-66.66
-54.01
-43.84
-36.65
-31.03
-25.36
-19.04
-12.20
-4.33
6.38
23.83
50.20
84.01
119.17
146.97
159.63
153.67
130.88
95.72
54.27
9.00
-40.43
-95.11
-153.79
-211.48
-260.36
-292.77
-305.52
-298.45
-277.05
-248.30
-217.42
-185.73
-150.78
-108.98
-53.46
4.17
57.48
97.11
116.15
113.08
92.30
62.05
30.92
4.85
-15.10
-28.65
-37.34
-41.52
-39.78
-30.14
-11.71
13.92
42.52
67.53
84.06
88.20
79.28
60.35
37.18
16.62
4.47
3.95
14.82
35.54
62.99
94.03
125.47
153.54
173.95
182.81
178.35
162.26
140.18
118.95
103.87
96.37
93.34
88.88
77.38
56.15
26.73
-5.61
-34.17
-53.03
-58.55
-49.98
-29.31
-1.01
28.58
52.33
64.07
60.75
43.98
19.90
-3.03
-17.53
-20.51
-13.99
-3.59
4.78
7.98
6.75
4.48
4.93
10.15
19.70
31.17
41.26
46.40
43.07
28.01
-0.98
-43.99
-98.17
-157.48
-213.67
-258.26
-284.88
-290.90
-277.80
-250.21
-214.35
-176.93
-144.70
-124.32
-121.55
-139.37
-175.52
-221.41
-263.48
-287.24
-282.49
-246.90
-186.06
-110.03
-28.51
52.57
131.13
206.35
275.48
332.86
371.84
388.05
382.02
358.95
326.00
288.98
250.60
211.40
172.68
139.03
117.90
116.30
135.81
169.60
203.52
221.44
212.16
174.22
116.20
52.61
-2.23
-39.13
-55.66
-54.87
-42.63
-25.12
-7.57
6.01
12.68
11.02
1.80
-11.07
-20.73
-19.57
-2.03
32.59
79.10
127.60
166.66
186.87
184.07
160.69
123.65
81.66
42.94
13.81
-1.87
-3.03
7.86
25.49
43.70
56.51
60.58
56.67
49.53
45.47
49.17
60.23
73.83
84.32
87.09
80.92
68.25
53.82
42.09
35.36
32.05
22.01
0.73
-29.55
-60.82
-84.62
-97.00
-99.75
-96.73
-96.83
-107.37
-131.13
-167.89
-215.19
-269.84
-325.78
-376.20
-406.99
-408.01
-378.84
-329.56
-275.96
-230.01
-195.36
-169.01
-145.64
-121.63
-97.94
-78.84
-65.23
-55.81
-46.60
-32.84
-11.64
17.37
52.77
91.72
132.28
174.78
216.46
254.94
287.70
310.97
321.24
316.37
296.79
265.85
229.07
192.23
154.19
117.53
85.98
62.91
48.49
40.19
34.06
26.78
16.75
4.72
-6.54
-14.84
-19.00
-22.15
-28.18
-40.65
-62.04
-93.61
-135.04
-183.67
-235.59
-278.25
-301.72
-300.19
-274.78
-233.34
-187.50
-148.15
-121.11
-106.45
-99.90
-97.45
-96.13
-95.26
-95.42
-96.93
-98.79
-98.75
-95.45
-87.78
-77.51
-67.02
-58.78
-54.04
-52.65
-53.40
-54.67
-55.30
-54.93
-54.84
-56.21
-59.99
-66.35
-74.61
-83.45
-91.26
-96.35
-97.00
-94.80
-90.33
-84.13
-76.66
-68.42
-59.85
-51.21
-42.47
-33.12
-22.60
-9.94
5.30
22.87
41.80
60.69
78.31
94.07
108.40
122.55
138.59
158.36
182.80
211.33
241.55
269.53
290.70
301.06
298.41
283.35
259.11
230.97
204.74
184.91
173.04
167.08
162.30
153.47
137.47
114.81
89.24
65.81
48.22
37.17
30.59
25.48
20.06
14.87
11.97
13.34
19.34
28.55
38.71
47.90
55.18
60.39
63.28
63.10
58.73
49.48
35.85
19.59
3.07
-11.69
-23.77
-33.39
-41.34
-48.27
-54.35
-59.40
-63.29
-66.30
-69.00
-71.91
-75.15
-78.27
-80.50
-81.31
-80.67
-79.05
-76.91
-74.16
-69.98
-63.18
-53.02
-39.85
-25.33
-11.91
-1.86
3.57
4.46
1.96
-2.34
-7.10
-11.46
-14.96
-17.36
-18.49
-18.24
-16.70
-14.23
-11.32
-8.45
-5.93
-3.92
-2.43
-1.50
-1.30
-2.07
-4.04
-7.10
-10.70
-13.88
-15.61
-15.16
-12.54
-8.53
-4.44
-1.61
-0.93
-2.55
-5.96
-10.36
-14.96
-19.36
-23.47
-27.46
-31.55
-35.82
-40.40
-45.37
-50.72
-55.87
-59.31
-58.50
-50.56
-33.54
-7.75
23.76
55.87
83.14
101.66
110.05
109.32
101.80
89.89
75.39
59.64
43.91
29.73
18.50
10.85
6.14
2.50
-2.64
-11.55
-25.27
-42.79
-60.94
-74.93
-79.81
-72.34
-52.43
-23.56
8.37
37.23
58.87
72.27
79.24
82.81
85.43
87.93
89.64
89.31
86.12
80.18
72.35
63.59
54.52
45.27
35.74
25.93
16.33
7.83
1.41
-2.34
-3.57
-3.14
-2.32
-2.32
-3.73
-6.42
-9.67
-12.53
-14.22
-14.46
-13.57
-12.27
-11.42
-11.70
-13.28
-15.86
-18.71
-21.10
-22.50
-22.84
-22.40
-21.68
-21.10
-20.86
-20.96
-21.23
-21.43
-21.30
-20.65
-19.39
-17.62
-15.68
-14.12
-13.51
-14.21
-16.18
-18.94
-21.71
-23.72
-24.42
-23.69
-21.79
-19.21
-16.44
-13.85
-11.62
-9.80
-8.33
-7.14
-6.20
-5.47
-4.97
-4.73
-4.84
-5.37
-6.37
-7.83
-9.66
-11.66
-13.49
-14.77
-15.17
-14.46
-12.62
-9.95
-6.93
-4.09
-1.89
-0.53
0.08
0.25
0.32
0.48
0.81
1.18
1.42
1.35
0.90
0.08
-1.03
-2.31
-3.65
-4.92
-5.97
-6.62
-6.78
-6.44
-5.75
-4.92
-4.17
-3.58
-3.07
-2.48
-1.66
-0.55
0.72
1.92
2.81
3.29
3.35
3.12
2.71
2.16
1.46
0.57
-0.49
-1.64
-2.72
-3.60
-4.23
-4.64
-4.92
-5.18
-5.49
-5.91
-6.46
-7.16
-8.01
-8.98
-9.95
-10.73
-11.11
-10.92
-10.12
-8.80
-7.12
-5.27
-3.47
-1.85
-0.54
0.33
0.72
0.67
0.30
-0.21
-0.65
-0.94
-1.08
-1.13
-1.16
-1.11
-0.84
-0.22
0.82
2.11
3.39
4.38
4.96
5.21
5.37
5.65
6.08
6.47
6.53
6.03
4.98
3.64
2.37
1.45
0.96
0.76
0.62
0.33
-0.20
-0.92
-1.75
-2.60
-3.46
-4.32
-5.21
-6.11
-6.99
-7.83
-8.61
-9.34
-10.01
-10.56
-10.89
-10.88
-10.43
-9.51
-8.19
-6.62
-5.00
-3.50
-2.19
-1.08
-0.14
0.65
1.26
1.61
1.66
1.40
0.94
0.42
0.03
-0.13
-0.03
0.26
0.68
1.14
1.61
2.11
2.62
3.11
3.51
3.75
3.78
3.60
3.26
2.81
2.28
1.70
1.04
0.32
-0.42
-1.10
-1.65
-2.07
-2.43
-2.90
-3.59
-4.59
-5.82
-7.11
-8.28
-9.18
-9.81
-10.26
-10.66
-11.12
-11.69
-12.33
-12.95
-13.38
-13.42
-12.89
-11.65
-9.70
-7.25
-4.66
-2.29
-0.41
0.88
1.67
2.14
2.42
2.59
2.68
2.71
2.73
2.80
2.98
3.24
3.49
3.62
3.60
3.48
3.38
3.38
3.55
3.78
3.95
3.93
3.69
3.25
2.69
2.10
1.53
0.99
0.52
0.16
-0.12
-0.39
-0.80
-1.51
-2.57
-3.88
-5.24
-6.40
-7.24
-7.75
-8.03
-8.26
-8.57
-9.09
-9.95
-11.25
-13.06
-15.22
-17.37
-18.94
-19.37
-18.35
-15.94
-12.62
-9.03
-5.80
-3.28
-1.57
-0.54
0.02
0.31
0.46
0.59
0.80
1.13
1.58
2.11
2.64
3.17
3.70
4.28
4.93
5.63
6.31
6.90
7.35
7.63
7.74
7.70
7.52
7.25
6.90
6.51
6.08
5.58
4.99
4.32
3.61
2.89
2.19
1.49
0.72
-0.16
-1.13
-2.11
-3.03
-3.89
-4.79
-5.86
-7.25
-8.97
-10.92
-12.97
-15.02
-17.02
-19.01
-20.88
-22.37
-23.11
-22.71
-21.01
-18.15
-14.60
-10.91
-7.55
-4.75
-2.52
-0.72
0.80
2.10
3.18
4.03
4.67
5.19
5.67
6.16
6.69
7.19
7.64
8.10
8.66
9.39
10.25
11.11
11.74
11.95
11.67
10.99
10.11
9.16
8.24
7.30
6.35
5.43
4.64
4.05
3.66
3.29
2.72
1.72
0.31
-1.37
-3.02
-4.40
-5.50
-6.49
-7.70
-9.39
-11.63
-14.14
-16.43
-17.93
-18.21
-17.13
-14.88
-11.84
-8.50
-5.28
-2.45
-0.17
1.56
2.79
3.67
4.33
4.89
5.39
5.85
6.22
6.50
6.73
7.01
7.40
7.94
8.60
9.33
10.09
10.84
11.55
12.09
12.33
12.08
11.28
10.00
8.40
6.76
5.32
4.23
3.47
2.92
2.37
1.60
0.52
-0.86
-2.42
-3.93
-5.27
-6.41
-7.50
-8.83
-10.68
-13.19
-16.23
-19.35
-21.85
-23.07
-22.56
-20.28
-16.60
-12.17
-7.66
-3.54
-0.04
2.88
5.33
7.42
9.23
10.77
12.05
13.09
13.86
14.30
14.41
14.23
13.88
13.59
13.53
13.77
14.25
14.85
15.42
15.84
16.00
15.83
15.28
14.38
13.23
12.01
10.87
9.89
9.01
8.10
7.05
5.86
4.63
3.46
2.42
1.51
0.68
-0.05
-0.66
-1.21
-1.91
-3.17
-5.39
-8.76
-13.06
-17.71
-21.96
-25.16
-27.00
-27.37
-26.33
-23.91
-20.15
-15.21
-9.50
-3.69
1.48
5.49
8.18
9.81
10.84
11.72
12.67
13.69
14.63
15.34
15.75
15.92
16.02
16.19
16.55
17.06
17.61
18.02
18.22
18.26
18.32
18.61
19.22
19.99
20.61
20.70
20.03
18.63
16.82
15.03
13.60
12.63
11.98
11.38
10.63
9.68
8.66
7.70
6.85
6.05
5.10
3.84
2.24
0.45
-1.30
-2.82
-4.08
-5.21
-6.39
-7.77
-9.36
-11.13
-13.04
-15.14
-17.45
-19.85
-21.97
-23.24
-23.09
-21.25
-17.88
-13.54
-9.00
-4.88
-1.52
1.03
2.94
4.40
5.59
6.64
7.65
8.69
9.80
10.94
12.01
12.92
13.66
14.27
14.85
15.48
16.14
16.73
17.16
17.37
17.40
17.29
17.07
16.63
15.86
14.71
13.27
11.77
10.50
9.66
9.27
9.15
9.00
8.58
7.77
6.61
5.28
3.97
2.81
1.83
1.02
0.32
-0.33
-0.94
-1.50
-2.02
-2.52
-3.06
-3.65
-4.30
-4.98
-5.69
-6.54
-7.67
-9.22
-11.18
-13.30
-15.13
-16.11
-15.85
-14.28
-11.69
-8.62
-5.64
-3.10
-1.10
0.48
1.84
3.07
4.14
4.94
5.38
5.44
5.28
5.06
4.97
5.11
5.46
5.97
6.54
7.10
7.58
7.93
8.05
7.88
7.38
6.59
5.61
4.59
3.64
2.88
2.35
2.10
2.08
2.25
2.51
2.71
2.71
2.45
1.93
1.25
0.51
-0.21
-0.87
-1.52
-2.17
-2.84
-3.50
-4.15
-4.85
-5.69
-6.82
-8.28
-9.97
-11.58
-12.70
-12.98
-12.23
-10.49
-7.99
-5.12
-2.26
0.28
2.30
3.77
4.81
5.72
6.90
8.57
10.70
12.84
14.48
15.26
15.39
15.57
16.91
20.32
25.96
32.96
39.75
44.83
47.43
47.90
47.43
47.76
50.39
55.84
63.19
70.51
75.77
77.35
74.64
68.00
59.09
50.40
44.44
42.77
45.40
50.58
53.96
49.22
30.18
-5.66
-54.56
-106.98
-151.11
-177.41
-182.01
-168.27
-143.83
-118.44
-99.56
-88.72
-80.70
-68.52
-47.67
-16.13
25.17
73.26
123.22
169.03
204.97
227.07
234.30
224.59
201.36
171.85
143.43
120.17
102.60
89.73
80.86
75.69
74.43
75.18
74.76
69.71
57.74
38.81
15.04
-10.46
-35.60
-58.24
-78.00
-96.14
-115.20
-138.05
-166.62
-200.80
-237.99
-273.45
-301.07
-314.95
-311.32
-290.22
-256.15
-216.55
-179.46
-150.78
-132.87
-124.52
-122.33
-122.21
-120.41
-113.90
-100.57
-79.70
-52.52
-22.12
7.80
34.66
58.26
80.35
102.51
123.97
140.49
145.75
134.36
105.12
62.33
14.71
-27.77
-56.95
-68.16
-60.32
-35.10
3.79
50.77
98.72
140.04
168.52
181.18
179.05
166.50
149.22
132.20
118.39
108.64
102.31
98.00
93.92
87.98
78.35
64.86
50.11
39.56
39.61
54.45
83.16
118.92
151.05
168.98
165.93
140.65
97.29
43.62
-11.24
-58.88
-93.35
-112.62
-119.13
-118.48
-117.15
-119.87
-127.91
-139.26
-150.12
-156.24
-153.51
-138.04
-106.61
-58.27
3.65
70.74
130.97
172.56
188.12
177.05
144.81
100.30
52.78
9.80
-23.39
-43.84
-51.14
-47.89
-39.27
-31.53
-29.80
-35.79
-47.14
-58.63
-64.97
-63.34
-55.29
-46.20
-42.70
-49.24
-65.76
-87.44
-107.34
-119.95
-123.78
-121.61
-118.27
-117.87
-122.20
-131.40
-145.72
-166.68
-196.21
-234.25
-276.54
-314.69
-339.10
-343.19
-326.60
-295.18
-258.06
-223.17
-193.98
-168.93
-143.10
-111.04
-68.63
-13.81
53.11
129.16
208.51
282.97
344.09
385.91
406.95
410.61
403.42
391.98
380.51
370.27
360.60
350.61
339.97
327.84
311.96
288.34
252.49
201.96
138.91
70.95
9.60
-33.18
-50.52
-41.49
-10.65
34.32
85.30
135.42
179.55
214.00
236.04
240.93
225.86
191.61
143.41
89.19
36.26
-11.31
-53.06
-91.25
-133.66
-186.72
-252.97
-330.09
-412.88
-496.18
-575.83
-647.68
-706.68
-753.48
-789.87
-818.78
-842.99
-865.05
-887.18
-910.09
-931.91
-912.08
-822.58
-657.64
-441.30
-213.21
-7.30
159.24
283.79
370.81
426.08
448.67
438.28
398.77
340.11
276.49
221.65
184.72
168.26
169.05
175.91
179.89
172.83
155.97
136.14
120.33
112.96
114.98
124.66
136.14
144.34
146.89
146.11
147.01
154.24
169.40
189.35
207.13
213.46
202.09
173.00
133.46
94.37
65.11
49.77
46.45
49.73
54.10
57.42
61.49
70.65
88.24
113.79
142.46
166.61
178.70
174.24
153.29
120.24
82.06
45.64
15.58
-6.43
-21.13
-30.17
-34.87
-35.69
-32.73
-26.38
-17.91
-9.33
-2.54
1.57
3.46
5.00
8.50
15.78
27.22
41.50
56.06
68.03
75.38
77.52
75.43
70.96
66.02
61.85
58.76
56.41
54.27
52.05
49.79
47.79
46.25
45.16
44.25
43.12
41.43
38.93
35.52
31.19
26.07
20.42
14.64
9.26
4.75
1.34
-1.08
-2.90
-4.60
-6.51
-8.70
-11.01
-13.22
-15.15
-16.78
-18.19
-19.49
-20.80
-22.15
-23.58
-25.13
-26.79
-28.52
-30.21
-31.61
-32.38
-32.15
-30.65
-27.87
-24.12
-20.02
-16.33
-13.58
-11.89
-10.85
-9.79
-8.08
-5.55
-2.48
0.47
2.70
3.92
4.21
3.96
3.54
3.16
2.82
2.43
1.94
1.45
1.13
1.14
1.54
2.26
3.10
3.83
4.22
4.07
3.33
2.11
0.67
-0.65
-1.58
-2.03
-2.17
-2.30
-2.72
-3.51
-4.51
-5.43
-6.01
-6.19
-6.17
-6.22
-6.65
-7.56
-8.93
-10.66
-12.67
-14.89
-17.17
-19.22
-20.61
-20.91
-19.89
-17.69
-14.77
-11.73
-9.02
-6.78
-4.90
-3.10
-1.24
0.62
2.27
3.52
4.29
4.73
5.03
5.36
5.77
6.18
6.52
6.76
6.96
7.22
7.61
8.08
8.53
8.79
8.81
8.64
8.40
8.27
8.29
8.40
8.40
8.08
7.33
6.20
4.91
3.71
2.79
2.18
1.74
1.27
0.59
-0.37
-1.56
-2.91
-4.34
-5.83
-7.35
-8.91
-10.43
-11.89
-13.26
-14.54
-15.79
-17.00
-18.02
-18.56
-18.23
-16.71
-13.97
-10.31
-6.34
-2.73
0.01
1.71
2.56
2.94
3.25
3.74
4.48
5.41
6.45
7.49
8.43
9.18
9.64
9.74
9.50
9.04
8.55
8.19
8.10
8.32
8.77
9.35
9.92
10.36
10.57
10.52
10.19
9.67
9.05
8.50
8.15
8.06
8.17
8.28
8.18
7.68
6.70
5.37
3.94
2.69
1.78
1.29
1.08
0.94
0.66
0.08
-0.84
-2.05
-3.39
-4.74
-5.98
-7.10
-8.10
-9.04
-10.01
-11.08
-12.32
-13.77
-15.36
-16.83
-17.83
-17.94
-16.88
-14.63
-11.47
-7.84
-4.28
-1.21
1.13
2.65
3.42
3.63
3.56
3.56
3.89
4.71
5.96
7.44
8.95
10.36
11.67
12.97
14.25
15.41
16.19
16.29
15.55
14.01
11.97
9.84
8.07
7.05
6.90
7.51
8.47
9.10
8.68
6.72
3.28
-0.84
-4.40
-6.13
-5.33
-2.21
2.17
6.46
9.59
11.19
11.54
11.25
10.79
10.27
9.50
8.25
6.45
4.25
1.96
-0.15
-2.01
-3.70
-5.43
-7.37
-9.55
-11.71
-13.41
-14.20
-13.86
-12.55
-10.83
-9.30
-8.39
-8.13
-8.19
-8.14
-7.62
-6.47
-4.58
-1.89
1.63
5.79
10.10
13.82
16.25
17.05
16.43
14.98
13.33
11.82
10.40
8.74
6.52
3.62
0.19
-3.38
-6.57
-8.86
-9.87
-9.48
-7.89
-5.66
-3.51
-2.10
-1.84
-2.72
-4.45
-6.55
-8.58
-10.23
-11.34
-11.92
-12.11
-12.11
-12.23
-12.85
-14.22
-16.31
-18.56
-19.87
-18.88
-14.57
-6.82
3.32
13.90
22.77
28.45
30.55
29.75
27.23
24.12
21.05
18.19
15.52
13.11
11.16
9.88
9.24
8.91
8.44
7.42
5.76
3.69
1.67
0.17
-0.60
-0.67
-0.34
0.02
0.14
-0.09
-0.56
-1.08
-1.44
-1.57
-1.47
-1.28
-1.17
-1.27
-1.60
-2.07
-2.55
-2.86
-2.92
-2.72
-2.33
-1.87
-1.49
-1.26
-1.23
-1.37
-1.64
-1.96
-2.29
-2.59
-2.86
-3.13
-3.43
-3.81
-4.29
-4.89
-5.60
-6.40
-7.28
-8.20
-9.14
-10.03
-10.76
-11.25
-11.37
-11.05
-10.26
-9.06
-7.56
-5.91
-4.29
-2.83
-1.63
-0.76
-0.18
0.22
0.57
0.95
1.35
1.65
1.66
1.28
0.53
-0.38
-1.15
-1.51
-1.31
-0.59
0.45
1.56
2.55
3.30
3.81
4.06
4.10
3.94
3.64
3.29
2.97
2.78
2.72
2.81
2.96
3.10
3.13
3.00
2.68
2.23
1.73
1.26
0.87
0.58
0.37
0.20
0.06
-0.08
-0.34
-0.80
-1.58
-2.70
-4.01
-5.33
-6.44
-7.30
-7.95
-8.57
-9.27
-10.08
-10.94
-11.73
-12.35
-12.69
-12.61
-11.94
-10.54
-8.36
-5.58
-2.56
0.23
2.42
3.86
4.63
5.06
5.48
6.16
7.21
8.53
9.90
11.06
11.82
12.16
12.18
12.11
12.19
12.59
13.41
14.55
15.81
16.80
17.05
16.16
13.91
10.43
6.18
1.84
-1.91
-4.64
-6.23
-6.81
-6.70
-6.24
-5.67
-5.17
-4.89
-4.89
-5.18
-5.69
-6.26
-6.67
-6.76
-6.46
-5.83
-5.03
-4.28
-3.76
-3.57
-3.68
-4.01
-4.42
-4.79
-5.06
-5.26
-5.45
-5.74
-6.23
-7.00
-8.04
-9.24
-10.39
-11.26
-11.66
-11.49
-10.81
-9.74
-8.41
-6.94
-5.38
-3.72
-2.03
-0.41
1.01
2.08
2.74
3.03
3.09
3.11
3.27
3.60
4.05
4.49
4.81
4.95
5.01
5.09
5.30
5.64
6.03
6.37
6.58
6.63
6.59
6.52
6.45
6.39
6.28
6.05
5.67
5.14
4.55
3.95
3.42
2.94
2.45
1.84
1.02
-0.02
-1.25
-2.54
-3.79
-4.88
-5.77
-6.49
-7.08
-7.63
-8.21
-8.89
-9.71
-10.68
-11.80
-12.97
-14.02
-14.70
-14.74
-13.97
-12.41
-10.27
-7.88
-5.53
-3.39
-1.49
0.19
1.68
2.97
3.95
4.56
4.80
4.76
4.56
4.34
4.21
4.21
4.34
4.57
4.84
5.11
5.41
5.78
6.29
6.93
7.63
8.29
8.81
9.14
9.31
9.35
9.27
9.03
8.54
7.73
6.59
5.20
3.68
2.16
0.75
-0.50
-1.61
-2.56
-3.38
-4.05
-4.60
-5.11
-5.67
-6.33
-7.12
-8.02
-8.96
-9.97
-11.10
-12.44
-14.00
-15.64
-17.04
-17.82
-17.64
-16.39
-14.21
-11.46
-8.55
-5.84
-3.49
-1.54
0.07
1.38
2.46
3.27
3.83
4.17
4.36
4.51
4.70
5.02
5.52
6.20
7.04
7.93
8.75
9.33
9.59
9.51
9.18
8.74
8.34
8.05
7.85
7.64
7.33
6.92
6.49
6.15
6.00
5.98
6.00
5.88
5.56
5.04
4.43
3.85
3.34
2.89
2.42
1.84
1.11
0.23
-0.77
-1.83
-2.91
-3.96
-4.95
-5.86
-6.68
-7.46
-8.28
-9.20
-10.25
-11.38
-12.54
-13.68
-14.76
-15.75
-16.53
-16.85
-16.38
-14.87
-12.28
-8.89
-5.27
-2.06
0.32
1.76
2.50
2.94
3.43
4.10
4.87
5.55
5.99
6.19
6.25
6.32
6.50
6.78
7.06
7.27
7.34
7.32
7.29
7.33
7.48
7.73
8.00
8.21
8.28
8.15
7.86
7.52
7.26
7.18
7.30
7.49
7.57
7.38
6.85
6.07
5.22
4.52
4.04
3.73
3.38
2.79
1.86
0.64
-0.69
-1.95
-3.03
-3.95
-4.83
-5.71
-6.61
-7.43
-8.15
-8.81
-9.60
-10.70
-12.17
-13.84
-15.36
-16.30
-16.32
-15.33
-13.48
-11.09
-8.53
-6.06
-3.83
-1.85
-0.11
1.38
2.57
3.41
3.88
4.05
4.04
3.97
3.93
3.94
4.02
4.14
4.31
4.55
4.86
5.27
5.73
6.21
6.65
6.99
7.18
7.24
7.19
7.07
6.90
6.67
6.29
5.71
4.94
4.03
3.11
2.25
1.45
0.64
-0.30
-1.40
-2.62
-3.83
-4.89
-5.72
-6.33
-6.83
-7.37
-8.08
-9.03
-10.23
-11.59
-12.93
-14.05
-14.70
-14.70
-13.88
-12.21
-9.78
-6.81
-3.63
-0.63
1.83
3.52
4.42
4.68
4.57
4.37
4.24
4.20
4.23
4.25
4.32
4.48
4.82
5.36
6.07
6.87
7.65
8.36
8.91
9.26
9.36
9.16
8.65
7.86
6.83
5.65
4.40
3.19
2.15
1.36
0.86
0.50
0.04
-0.84
-2.31
-4.31
-6.55
-8.57
-10.00
-10.74
-10.95
-11.08
-11.58
-12.76
-14.62
-16.90
-19.15
-20.92
-21.93
-22.11
-21.64
-20.80
-19.79
-18.65
-17.25
-15.37
-12.90
-9.98
-6.90
-4.06
-1.81
-0.45
-0.27
-1.41
-3.74
-6.44
-8.01
-6.52
-0.38
10.91
26.21
43.03
58.28
69.38
75.00
75.20
71.09
64.10
55.56
46.49
37.69
29.81
23.43
18.82
15.91
14.26
13.15
11.84
9.85
7.08
3.79
0.51
-2.19
-3.96
-4.80
-4.98
-4.98
-5.22
-5.94
-7.05
-8.23
-9.08
-9.30
-8.89
-8.07
-7.28
-6.90
-7.14
-7.97
-9.18
-10.53
-11.77
-12.76
-13.41
-13.74
-13.81
-13.76
-13.83
-14.23
-15.09
-16.38
-17.90
-19.33
-20.32
-20.59
-19.96
-18.39
-15.99
-13.03
-9.84
-6.81
-4.23
-2.22
-0.66
0.65
1.97
3.43
5.03
6.67
8.25
9.66
10.85
11.79
12.47
12.89
13.08
13.09
12.96
12.76
12.49
12.17
11.79
11.32
10.72
9.97
9.01
7.89
6.67
5.47
4.42
3.61
3.06
2.74
2.57
2.42
2.15
1.66
0.89
-0.13
-1.32
-2.53
-3.60
-4.44
-4.99
-5.25
-5.27
-5.15
-4.97
-4.82
-4.74
-4.75
-4.87
-5.13
-5.63
-6.44
-7.59
-8.93
-10.24
-11.23
-11.66
-11.44
-10.61
-9.34
-7.84
-6.27
-4.74
-3.28
-1.91
-0.68
0.34
1.07
1.50
1.66
1.65
1.60
1.59
1.65
1.81
2.03
2.31
2.61
2.95
3.33
3.78
4.33
4.98
5.65
6.22
6.55
6.56
6.26
5.74
5.11
4.45
3.79
3.15
2.50
1.86
1.26
0.74
0.35
0.08
-0.09
-0.24
-0.52
-1.06
-1.94
-3.13
-4.54
-5.99
-7.34
-8.53
-9.56
-10.47
-11.24
-11.75
-11.85
-11.38
-10.27
-8.59
-6.55
-4.44
-2.55
-1.06
-0.06
0.54
0.89
1.13
1.35
1.57
1.79
1.98
2.15
2.30
2.45
2.61
2.78
2.98
3.21
3.47
3.73
3.96
4.09
4.10
4.02
3.86
3.63
3.32
2.91
2.41
1.87
1.35
0.90
0.54
0.24
-0.07
-0.41
-0.81
-1.22
-1.63
-2.06
-2.53
-3.11
-3.77
-4.48
-5.14
-5.74
-6.30
-6.92
-7.63
-8.37
-8.92
-9.00
-8.42
-7.22
-5.66
-4.17
-3.12
-2.64
-2.59
-2.70
-2.68
-2.40
-1.91
-1.35
-0.84
-0.45
-0.14
0.18
0.54
0.98
1.46
1.90
2.23
2.36
2.30
2.09
1.88
1.82
1.95
2.18
2.29
2.03
1.25
-0.00
-1.47
-2.79
-3.67
-3.95
-3.82
-3.64
-3.89
-4.92
-6.85
-9.43
-12.14
-14.34
-15.61
-15.92
-15.74
-15.83
-16.92
-19.37
-22.90
-26.74
-29.98
-31.92
-32.43
-31.94
-31.20
-31.06
-32.27
-35.36
-40.42
-46.51
-51.34
-51.37
-42.81
-23.16
7.16
44.38
82.08
113.24
132.47
137.54
129.57
112.01
89.16
64.84
41.92
22.21
6.71
-4.25
-11.06
-14.80
-17.18
-20.02
-24.58
-30.72
-36.52
-38.74
-34.03
-20.63
0.54
25.70
49.45
66.72
74.57
72.91
64.07
51.42
37.92
25.40
14.48
5.18
-2.58
-8.68
-12.93
-15.39
-16.44
-16.75
-17.07
-17.85
-19.11
-20.53
-21.60
-21.91
-21.39
-20.32
-19.16
-18.33
-18.04
-18.19
-18.48
-18.61
-18.37
-17.73
-16.76
-15.53
-14.12
-12.59
-11.01
-9.54
-8.29
-7.35
-6.72
-6.30
-5.94
-5.54
-5.08
-4.60
-4.16
-3.81
-3.54
-3.32
-3.09
-2.85
-2.61
-2.40
-2.27
-2.20
-2.11
-1.91
-1.51
-0.86
0.00
0.98
1.97
2.86
3.54
3.97
4.15
4.10
3.90
3.64
3.34
2.97
2.48
1.86
1.16
0.48
-0.11
-0.63
-1.17
-1.91
-2.91
-4.10
-5.25
-6.11
-6.50
-6.41
-6.00
-5.55
-5.26
-5.28
-5.56
-5.95
-6.25
-6.25
-5.83
-4.99
-3.85
-2.62
-1.52
-0.68
-0.13
0.16
0.25
0.20
0.05
-0.18
-0.42
-0.60
-0.66
-0.56
-0.33
0.04
0.52
1.09
1.70
2.28
2.73
3.00
3.07
2.97
2.83
2.71
2.66
2.65
2.59
2.35
1.87
1.14
0.29
-0.57
-1.31
-1.89
-2.33
-2.69
-3.05
-3.44
-3.80
-4.07
-4.15
-4.00
-3.67
-3.30
-3.10
-3.20
-3.63
-4.26
-4.87
-5.28
-5.46
-5.53
-5.66
-5.93
-6.17
-6.13
-5.56
-4.43
-2.97
-1.53
-0.42
0.32
0.80
1.27
1.84
2.46
2.96
3.15
3.01
2.69
2.46
2.48
2.75
3.10
3.35
3.37
3.20
2.98
2.88
2.97
3.19
3.40
3.51
3.49
3.44
3.45
3.59
3.78
3.91
3.87
3.64
3.32
3.08
3.06
3.26
3.56
3.79
3.78
3.54
3.18
2.84
2.70
2.83
3.23
3.84
4.56
5.29
5.95
6.45
6.76
6.88
6.94
7.23
8.25
10.56
14.57
20.12
26.35
31.88
35.40
36.29
34.84
31.97
28.42
24.01
17.48
7.11
-8.48
-29.37
-54.22
-80.67
-106.09
-128.10
-144.69
-153.96
-154.18
-144.00
-123.23
-93.32
-57.46
-20.03
14.30
41.64
59.53
67.40
66.52
59.66
50.52
42.86
39.68
42.62
51.68
65.43
81.42
96.93
109.39
116.98
119.21
117.39
114.75
115.72
124.49
143.17
170.50
201.84
230.68
251.04
259.59
256.55
245.04
229.33
213.07
198.29
185.55
174.77
165.98
159.50
155.35
152.53
148.70
140.74
125.80
102.65
72.29
37.41
1.35
-33.40
-66.23
-98.46
-132.72
-172.12
-219.37
-275.95
-341.16
-411.27
-479.42
-536.74
-574.74
-588.20
-577.10
-546.44
-504.13
-457.81
-412.35
-369.26
-327.86
-287.17
-247.22
-209.06
-173.68
-140.88
-108.97
-75.16
-36.70
8.13
59.33
114.62
169.88
219.92
259.76
286.00
297.72
296.34
284.91
266.89
245.27
222.26
199.35
177.50
157.10
137.91
119.09
99.51
78.42
55.93
33.13
11.65
-7.02
-21.93
-32.84
-40.18
-44.73
-47.34
-48.71
-49.01
-47.90
-44.62
-38.35
-28.74
-16.16
-1.63
13.46
27.87
40.78
51.79
60.78
67.72
72.56
75.36
76.38
76.09
75.06
73.73
72.23
70.33
67.58
63.53
57.99
51.22
43.79
36.40
29.56
23.41
17.67
11.86
5.63
-1.10
-8.01
-14.53
-20.14
-24.52
-27.69
-29.94
-31.64
-33.15
-34.62
-36.01
-37.18
-37.99
-38.39
-38.44
-38.36
-38.33
-38.50
-38.87
-39.36
-39.79
-39.93
-39.59
-38.61
-36.90
-34.49
-31.52
-28.22
-24.80
-21.41
-18.06
-14.71
-11.36
-8.25
-5.75
-4.33
-4.23
-5.34
-7.15
-8.99
-10.28
-10.85
-10.88
-10.79
-10.94
-11.48
-12.27
-13.02
-13.41
-13.22
-12.34
-10.71
-8.33
-5.28
-1.73
1.99
5.47
8.31
10.29
11.36
11.66
11.42
10.82
9.92
8.69
7.06
5.05
2.85
0.73
-0.99
-2.20
-2.96
-3.49
-4.08
-4.82
-5.65
-6.35
-6.68
-6.62
-6.32
-6.05
-6.04
-6.32
-6.69
-6.83
-6.48
-5.55
-4.18
-2.62
-1.13
0.10
1.01
1.58
1.84
1.81
1.54
1.14
0.75
0.51
0.51
0.67
0.83
0.73
0.23
-0.64
-1.63
-2.38
-2.59
-2.14
-1.16
0.06
1.18
1.96
2.32
2.29
2.00
1.61
1.25
1.05
1.05
1.24
1.52
1.77
1.83
1.67
1.28
0.73
0.09
-0.55
-1.12
-1.56
-1.80
-1.86
-1.79
-1.69
-1.68
-1.82
-2.07
-2.34
-2.53
-2.57
-2.51
-2.48
-2.61
-2.99
-3.56
-4.18
-4.70
-5.00
-5.10
-5.09
-5.05
-5.02
-4.93
-4.66
-4.13
-3.33
-2.33
-1.22
-0.06
1.11
2.31
3.43
4.34
4.81
4.72
4.08
3.14
2.21
1.61
1.53
1.92
2.63
3.40
4.01
4.32
4.29
3.97
3.50
3.08
2.87
2.99
3.35
3.75
3.96
3.91
3.71
3.63
3.91
4.55
5.31
5.78
5.64
4.80
3.50
2.12
1.03
0.37
0.06
-0.06
-0.12
-0.17
-0.15
0.00
0.28
0.61
0.86
0.89
0.59
-0.07
-1.03
-2.10
-3.06
-3.74
-4.14
-4.35
-4.58
-5.00
-5.65
-6.44
-7.20
-7.78
-8.09
-8.13
-7.96
-7.61
-7.08
-6.30
-5.20
-3.72
-1.86
0.22
2.28
4.08
5.47
6.50
7.32
8.13
8.94
9.62
9.94
9.73
9.02
8.05
7.13
6.51
6.31
6.49
6.94
7.54
8.18
8.77
9.23
9.50
9.54
9.35
8.96
8.35
7.50
6.32
4.76
2.83
0.65
-1.54
-3.50
-5.02
-6.07
-6.73
-7.23
-7.78
-8.50
-9.37
-10.30
-11.21
-12.05
-12.84
-13.60
-14.32
-14.90
-15.26
-15.35
-15.19
-14.86
-14.46
-14.01
-13.49
-12.74
-11.62
-10.05
-8.10
-5.95
-3.87
-2.12
-0.83
0.01
0.50
0.77
0.95
1.06
1.05
0.90
0.58
0.18
-0.19
-0.41
-0.34
0.08
0.83
1.79
2.78
3.61
4.17
4.42
4.44
4.31
4.12
3.90
3.64
3.33
2.96
2.55
2.15
1.78
1.45
1.13
0.80
0.43
0.02
-0.37
-0.73
-1.02
-1.23
-1.40
-1.56
-1.76
-2.02
-2.32
-2.63
-2.89
-3.08
-3.24
-3.46
-3.85
-4.43
-5.13
-5.75
-6.04
-5.81
-5.00
-3.77
-2.36
-1.03
0.04
0.81
1.31
1.61
1.72
1.64
1.35
0.94
0.59
0.48
0.73
1.26
1.90
2.42
2.68
2.67
2.53
2.41
2.38
2.41
2.40
2.29
2.09
1.93
1.91
2.03
2.26
2.45
2.51
2.44
2.27
2.06
1.83
1.56
1.19
0.71
0.16
-0.35
-0.72
-0.82
-0.64
-0.23
0.27
0.66
0.76
0.44
-0.33
-1.44
-2.71
-3.92
-4.91
-5.60
-6.06
-6.44
-6.88
-7.51
-8.27
-8.98
-9.37
-9.18
-8.27
-6.67
-4.62
-2.44
-0.43
1.17
2.25
2.80
2.89
2.60
2.09
1.55
1.17
1.10
1.34
1.75
2.09
2.16
1.89
1.37
0.82
0.47
0.41
0.62
0.99
1.36
1.63
1.78
1.83
1.83
1.77
1.66
1.46
1.17
0.83
0.56
0.45
0.52
0.73
0.93
0.99
0.82
0.48
0.14
0.02
0.28
0.89
1.64
2.23
2.44
2.19
1.62
0.96
0.41
0.01
-0.32
-0.72
-1.28
-1.97
-2.71
-3.45
-4.18
-4.89
-5.47
-5.72
-5.36
-4.23
-2.42
-0.25
1.84
3.52
4.64
5.30
5.67
5.93
6.12
6.20
6.04
5.55
4.70
3.62
2.52
1.70
1.47
2.00
3.26
4.98
6.69
7.90
8.28
7.74
6.48
4.87
3.29
1.99
1.07
0.45
-0.03
-0.52
-1.08
-1.73
-2.44
-3.14
-3.76
-4.23
-4.52
-4.62
-4.62
-4.61
-4.70
-4.97
-5.36
-5.80
-6.12
-6.23
-6.12
-5.93
-5.85
-6.06
-6.60
-7.27
-7.74
-7.65
-6.80
-5.23
-3.21
-1.09
0.82
2.43
3.76
4.89
5.83
6.46
6.64
6.30
5.56
4.65
3.84
3.30
3.03
2.95
2.98
3.07
3.27
3.65
4.20
4.82
5.31
5.47
5.15
4.36
3.26
2.13
1.22
0.70
0.58
0.71
0.86
0.86
0.61
0.12
-0.57
-1.37
-2.20
-2.91
-3.34
-3.41
-3.16
-2.83
-2.73
-3.09
-3.93
-5.07
-6.16
-6.98
-7.54
-8.01
-8.62
-9.44
-10.28
-10.76
-10.53
-9.47
-7.74
-5.72
-3.76
-2.06
-0.63
0.58
1.60
2.34
2.69
2.62
2.28
1.96
1.95
2.39
3.22
4.23
5.17
5.86
6.27
6.53
6.76
7.02
7.24
7.26
6.97
6.33
5.51
4.79
4.44
4.62
5.24
6.05
6.71
7.00
6.86
6.41
5.83
5.28
4.79
4.35
3.94
3.56
3.27
3.10
3.01
2.78
2.18
1.07
-0.52
-2.31
-3.97
-5.26
-6.19
-6.97
-7.84
-8.90
-9.97
-10.75
-10.96
-10.51
-9.56
-8.40
-7.29
-6.32
-5.43
-4.54
-3.62
-2.77
-2.20
-2.01
-2.16
-2.46
-2.67
-2.65
-2.37
-1.94
-1.45
-0.93
-0.36
0.35
1.18
2.09
3.03
3.97
4.87
5.72
6.44
6.89
6.95
6.57
5.87
5.01
4.15
3.38
2.68
2.05
1.53
1.21
1.09
1.07
0.89
0.32
-0.74
-2.12
-3.49
-4.55
-5.14
-5.37
-5.50
-5.79
-6.30
-6.89
-7.36
-7.51
-7.32
-6.90
-6.43
-6.09
-6.01
-6.29
-7.03
-8.24
-9.84
-11.54
-12.94
-13.61
-13.30
-12.03
-10.08
-7.85
-5.73
-3.92
-2.54
-1.58
-1.02
-0.84
-0.95
-1.17
-1.29
-1.14
-0.73
-0.24
0.16
0.42
0.75
1.48
2.89
4.96
7.33
9.41
10.69
10.98
10.50
9.74
9.20
9.14
9.47
9.87
9.95
9.45
8.37
6.93
5.42
4.05
2.91
1.90
0.94
-0.00
-0.85
-1.43
-1.63
-1.45
-1.02
-0.54
-0.21
-0.14
-0.40
-1.01
-1.96
-3.20
-4.56
-5.73
-6.36
-6.17
-5.13
-3.49
-1.68
-0.10
1.01
1.65
1.96
2.09
2.13
2.08
1.95
1.83
1.80
1.94
2.17
2.37
2.42
2.30
2.15
2.20
2.67
3.64
5.01
6.50
7.78
8.58
8.72
8.24
7.32
6.19
5.09
4.17
3.46
2.96
2.63
2.46
2.42
2.41
2.30
1.94
1.28
0.38
-0.62
-1.63
-2.64
-3.72
-4.93
-6.24
-7.50
-8.55
-9.38
-10.13
-11.10
-12.48
-14.24
-16.02
-17.23
-17.37
-16.23
-14.00
-11.20
-8.41
-6.07
-4.31
-3.04
-2.06
-1.20
-0.43
0.23
0.80
1.34
1.98
2.83
3.89
5.03
6.13
7.09
7.91
8.67
9.46
10.26
11.01
11.56
11.83
11.81
11.58
11.29
11.00
10.77
10.61
10.52
10.47
10.47
10.45
10.32
9.99
9.38
8.50
7.47
6.46
5.63
5.04
4.64
4.25
3.72
3.00
2.15
1.35
0.77
0.49
0.45
0.46
0.34
-0.03
-0.65
-1.45
-2.28
-3.13
-3.99
-4.94
-5.98
-7.08
-8.18
-9.25
-10.35
-11.60
-13.11
-14.81
-16.45
-17.61
-17.88
-17.01
-15.04
-12.28
-9.21
-6.28
-3.82
-1.96
-0.61
0.40
1.29
2.22
3.25
4.32
5.28
6.04
6.56
6.88
7.12
7.35
7.66
8.05
8.53
9.08
9.68
10.26
10.71
10.94
10.87
10.50
9.88
9.14
8.44
7.90
7.63
7.65
7.87
8.16
8.33
8.22
7.76
7.01
6.15
5.39
4.86
4.61
4.55
4.49
4.28
3.89
3.37
2.85
2.45
2.16
1.91
1.60
1.17
0.61
-0.02
-0.69
-1.38
-2.13
-2.91
-3.69
-4.41
-5.10
-5.91
-7.04
-8.69
-10.86
-13.25
-15.34
-16.59
-16.60
-15.31
-13.03
-10.26
-7.59
-5.39
-3.82
-2.81
-2.15
-1.60
-1.01
-0.31
0.49
1.33
2.12
2.81
3.33
3.71
4.02
4.42
5.11
6.20
7.69
9.33
10.76
11.57
11.49
10.53
8.98
7.33
6.01
5.31
5.20
5.48
5.82
5.96
5.75
5.15
4.25
3.22
2.26
1.58
1.31
1.47
1.91
2.40
2.64
2.44
1.74
0.62
-0.70
-2.01
-3.11
-3.94
-4.59
-5.32
-6.40
-8.00
-10.08
-12.34
-14.25
-15.29
-15.16
-13.83
-11.60
-8.91
-6.22
-3.87
-1.99
-0.61
0.38
1.10
1.70
2.24
2.79
3.35
3.89
4.36
4.69
4.90
5.04
5.26
5.70
6.44
7.42
8.46
9.34
9.88
10.05
9.90
9.58
9.16
8.66
8.06
7.37
6.72
6.24
6.03
6.07
6.17
6.08
5.64
4.82
3.76
2.72
1.93
1.44
1.15
0.85
0.36
-0.40
-1.31
-2.16
-2.75
-3.05
-3.17
-3.36
-3.82
-4.61
-5.66
-6.79
-7.91
-8.97
-9.97
-10.90
-11.61
-11.86
-11.47
-10.36
-8.66
-6.60
-4.37
-1.98
0.68
3.70
6.80
9.25
10.00
8.14
3.38
-3.62
-11.37
-18.10
-22.42
-23.73
-22.27
-18.83
-14.16
-8.76
-2.82
3.55
10.06
16.21
21.35
24.85
26.24
25.27
21.96
16.74
10.41
4.03
-1.35
-5.01
-6.71
-6.70
-5.43
-3.28
-0.50
2.84
6.49
10.02
12.85
14.48
14.76
13.92
12.48
10.96
9.68
8.67
7.76
6.73
5.45
3.93
2.32
0.80
-0.48
-1.51
-2.38
-3.32
-4.58
-6.35
-8.61
-11.09
-13.37
-14.95
-15.47
-14.82
-13.17
-10.88
-8.45
-6.32
-4.76
-3.84
-3.38
-3.07
-2.63
-1.93
-0.97
0.10
1.11
1.94
2.58
3.08
3.48
3.81
4.09
4.35
4.64
5.08
5.72
6.54
7.39
8.08
8.42
8.28
7.72
6.89
6.05
5.45
5.23
5.42
5.88
6.43
6.90
7.15
7.10
6.75
6.14
5.31
4.35
3.32
2.34
1.44
0.64
-0.10
-0.87
-1.76
-2.84
-4.01
-5.10
-5.90
-6.27
-6.36
-6.51
-7.12
-8.43
-10.28
-12.15
-13.35
-13.41
-12.22
-10.12
-7.69
-5.42
-3.59
-2.19
-1.09
-0.19
0.52
0.98
1.16
1.15
1.10
1.18
1.50
2.05
2.74
3.48
4.18
4.83
5.46
6.16
6.99
7.97
9.02
9.92
10.44
10.44
9.92
9.06
8.15
7.42
6.97
6.72
6.49
6.13
5.60
4.96
4.30
3.67
3.04
2.36
1.62
0.85
0.11
-0.56
-1.18
-1.86
-2.67
-3.69
-4.93
-6.30
-7.66
-8.89
-9.86
-10.57
-11.13
-11.69
-12.47
-13.50
-14.59
-15.38
-15.44
-14.48
-12.47
-9.70
-6.60
-3.64
-1.11
0.83
2.16
2.93
3.23
3.26
3.24
3.41
3.90
4.73
5.73
6.69
7.43
7.90
8.15
8.30
8.44
8.62
8.87
9.18
9.55
9.92
10.23
10.33
10.14
9.63
8.89
8.10
7.47
7.15
7.18
7.51
8.01
8.52
8.91
9.07
8.98
8.66
8.18
7.62
7.07
6.53
5.95
5.22
4.20
2.81
1.06
-0.89
-2.78
-4.37
-5.56
-6.46
-7.37
-8.60
-10.29
-12.35
-14.47
-16.30
-17.66
-18.62
-19.38
-20.12
-20.75
-20.95
-20.37
-18.80
-16.38
-13.47
-10.54
-7.92
-5.68
-3.75
-2.05
-0.63
0.34
0.72
0.49
-0.09
-0.68
-0.92
-0.66
0.06
1.02
2.00
2.89
3.68
4.47
5.37
6.39
7.46
8.43
9.14
9.47
9.44
9.13
8.67
8.21
7.83
7.57
7.44
7.40
7.40
7.43
7.40
7.25
6.91
6.30
5.45
4.43
3.36
2.36
1.48
0.69
-0.11
-0.99
-2.01
-3.09
-4.09
-4.88
-5.40
-5.72
-6.04
-6.64
-7.69
-9.22
-11.02
-12.73
-13.95
-14.37
-13.90
-12.60
-10.71
-8.48
-6.15
-3.92
-1.98
-0.48
0.51
1.00
1.13
1.11
1.17
1.41
1.81
2.23
2.52
2.65
2.67
2.73
3.00
3.61
4.59
5.85
7.22
8.45
9.31
9.65
9.48
8.93
8.21
7.55
7.10
6.89
6.84
6.84
6.77
6.55
6.15
5.57
4.86
4.07
3.24
2.43
1.65
0.90
0.18
-0.56
-1.34
-2.14
-2.89
-3.51
-3.99
-4.46
-5.22
-6.60
-8.76
-11.51
-14.34
-16.56
-17.63
-17.37
-15.96
-13.83
-11.39
-8.94
-6.61
-4.49
-2.63
-1.11
0.05
0.94
1.72
2.54
3.48
4.47
5.34
6.02
6.52
6.99
7.57
8.31
9.18
10.03
10.71
11.09
11.10
10.70
9.91
8.78
7.50
6.30
5.44
5.10
5.29
5.85
6.52
7.03
7.23
7.05
6.55
5.80
4.88
3.88
2.88
1.94
1.15
0.46
-0.21
-1.00
-1.99
-3.18
-4.46
-5.67
-6.71
-7.58
-8.37
-9.29
-10.50
-12.13
-14.12
-16.30
-18.32
-19.81
-20.43
-20.01
-18.62
-16.46
-13.86
-11.03
-8.16
-5.36
-2.75
-0.49
1.25
2.44
3.22
3.80
4.39
5.10
5.83
6.43
6.78
6.87
6.84
6.87
7.08
7.49
7.95
8.31
8.45
8.35
8.11
7.92
7.94
8.23
8.73
9.27
9.67
9.83
9.78
9.63
9.47
9.38
9.29
9.12
8.76
8.16
7.28
6.16
4.89
3.57
2.36
1.37
0.64
0.05
-0.59
-1.53
-2.88
-4.53
-6.23
-7.67
-8.65
-9.14
-9.29
-9.30
-9.45
-9.94
-10.90
-12.42
-14.39
-16.55
-18.44
-19.55
-19.50
-18.22
-16.00
-13.30
-10.59
-8.13
-5.96
-4.01
-2.22
-0.68
0.48
1.12
1.29
1.21
1.17
1.37
1.87
2.52
3.15
3.64
4.08
4.68
5.65
7.08
8.81
10.52
11.84
12.54
12.58
12.10
11.38
10.67
10.18
10.00
10.11
10.33
10.45
10.20
9.44
8.16
6.56
4.92
3.50
2.44
1.73
1.21
0.68
-0.06
-1.09
-2.39
-3.83
-5.21
-6.30
-7.00
-7.33
-7.48
-7.75
-8.42
-9.61
-11.30
-13.22
-14.92
-15.89
-15.66
-13.97
-10.87
-6.74
-2.23
1.94
5.17
7.19
8.00
7.86
7.06
5.87
4.43
2.90
1.43
0.21
-0.61
-1.00
-1.01
-0.78
-0.39
0.18
1.01
2.13
3.45
4.73
5.67
6.08
5.96
5.48
4.84
4.23
3.74
3.41
3.27
3.35
3.66
4.14
4.63
4.92
4.84
4.36
3.61
2.74
1.91
1.13
0.36
-0.50
-1.50
-2.60
-3.71
-4.79
-5.88
-7.13
-8.71
-10.69
-12.92
-15.03
-16.54
-17.05
-16.38
-14.67
-12.27
-9.62
-7.11
-4.97
-3.30
-2.05
-1.13
-0.43
0.24
0.99
1.90
2.93
3.96
4.84
5.52
6.04
6.54
7.20
8.13
9.33
10.65
11.90
12.81
13.22
13.08
12.47
11.64
10.89
10.51
10.69
11.44
12.53
13.56
13.96
13.18
10.85
6.94
1.87
-3.57
-8.54
-12.35
-14.78
-16.03
-16.51
-16.55
-16.28
-15.65
-14.61
-13.29
-11.99
-11.04
-10.63
-10.71
-11.11
-11.65
-12.30
-13.10
-14.04
-14.92
-15.37
-15.00
-13.59
-11.29
-8.53
-5.87
-3.75
-2.37
-1.58
-1.04
-0.37
0.68
2.11
3.74
5.27
6.44
7.13
7.38
7.41
7.43
7.64
8.13
8.86
9.74
10.60
11.32
11.80
12.01
11.92
11.56
10.94
10.11
9.19
8.33
7.70
7.37
7.27
7.22
7.02
6.49
5.62
4.49
3.27
2.13
1.20
0.51
0.05
-0.25
-0.49
-0.83
-1.47
-2.58
-4.24
-6.32
-8.57
-10.59
-12.09
-12.99
-13.53
-14.17
-15.37
-17.35
-19.90
-22.45
-24.30
-24.83
-23.72
-20.95
-16.73
-11.38
-5.34
0.89
6.70
11.51
14.89
16.69
17.12
16.58
15.54
14.29
12.96
11.59
10.22
8.95
7.96
7.38
7.21
7.33
7.56
7.68
7.62
7.37
7.02
6.65
6.28
5.88
5.36
4.69
3.91
3.14
2.53
2.16
2.09
2.26
2.58
2.96
3.32
3.61
3.78
3.76
3.50
2.95
2.14
1.16
0.18
-0.63
-1.17
-1.43
-1.52
-1.68
-2.20
-3.32
-5.09
-7.38
-9.80
-11.86
-13.07
-13.10
-11.91
-9.70
-6.89
-3.93
-1.16
1.26
3.33
5.11
6.62
7.80
8.59
8.96
9.00
8.96
9.11
9.62
10.54
11.74
13.03
14.23
15.21
15.94
16.45
16.81
17.12
17.39
17.61
17.63
17.31
16.49
15.02
12.86
9.82
5.59
-0.38
-8.92
-20.88
-36.91
-57.18
-81.19
-107.54
-134.07
-158.06
-176.74
-187.79
-189.74
-182.02
-165.02
-140.18
-110.31
-79.81
-54.07
-37.95
-33.94
-40.50
-51.83
-59.37
-54.51
-30.94
13.90
78.79
159.22
247.88
335.03
409.41
460.12
479.88
467.96
431.32
382.69
335.96
300.97
280.30
269.55
260.72
246.76
224.80
196.46
165.92
137.02
111.34
88.21
66.15
44.40
23.86
6.26
-7.21
-17.06
-25.47
-35.39
-49.08
-67.17
-88.78
-112.29
-136.66
-161.75
-187.83
-214.63
-240.65
-263.48
-280.64
-290.49
-292.61
-287.50
-276.03
-259.22
-238.46
-215.86
-194.26
-176.41
-163.90
-156.23
-151.02
-145.24
-136.57
-124.44
-109.73
-93.74
-77.32
-60.64
-43.54
-26.33
-10.07
3.75
13.89
19.96
22.62
23.18
22.97
22.92
23.58
25.20
27.90
31.52
35.58
39.32
42.04
43.50
43.98
43.93
43.42
41.94
38.66
33.08
25.59
17.50
10.46
5.71
3.47
2.97
2.94
2.37
0.93
-1.04
-3.01
-4.66
-6.06
-7.50
-9.22
-11.21
-13.24
-15.07
-16.53
-17.53
-17.95
-17.73
-16.91
-15.85
-15.13
-15.31
-16.46
-17.93
-18.57
-17.31
-13.82
-8.77
-3.51
0.62
3.02
3.96
4.30
4.94
6.31
8.24
10.19
11.63
12.25
12.06
11.28
10.23
9.19
8.37
7.89
7.73
7.76
7.70
7.29
6.35
4.94
3.35
1.97
1.13
0.94
1.21
1.60
1.79
1.60
1.13
0.54
0.01
-0.47
-0.98
-1.65
-2.42
-3.21
-4.00
-4.94
-6.29
-8.19
-10.43
-12.37
-13.21
-12.34
-9.77
-6.17
-2.52
0.35
2.11
3.04
3.68
4.49
5.55
6.62
7.32
7.37
6.79
5.80
4.78
4.15
4.25
5.26
7.09
9.37
11.61
13.28
14.10
14.10
13.50
12.58
11.43
9.97
8.09
5.89
3.72
2.07
1.30
1.37
1.89
2.29
2.18
1.47
0.40
-0.74
-1.76
-2.67
-3.54
-4.35
-4.86
-4.74
-3.76
-1.98
0.22
2.34
4.11
5.58
7.13
9.18
11.87
14.89
17.58
19.21
19.27
17.73
15.00
11.82
9.04
7.35
7.13
8.30
10.42
12.75
14.60
15.52
15.49
14.89
14.28
14.12
14.50
15.16
15.60
15.38
14.31
12.51
10.34
8.16
6.24
4.60
3.14
1.80
0.67
-0.02
-0.02
0.71
1.83
2.70
2.52
0.75
-2.62
-7.07
-11.69
-15.61
-18.30
-19.75
-20.30
-20.47
-20.74
-21.43
-22.75
-24.69
-27.04
-29.26
-30.62
-30.37
-28.16
-24.22
-19.35
-14.63
-10.85
-8.25
-6.51
-5.04
-3.37
-1.40
0.64
2.48
4.05
5.52
7.17
9.12
11.23
13.09
14.30
14.70
14.43
13.86
13.41
13.34
13.71
14.54
15.81
17.50
19.39
20.93
21.17
19.05
13.93
6.00
-3.45
-12.44
-18.91
-21.52
-20.07
-15.47
-9.19
-2.70
3.10
7.89
11.71
14.58
16.34
16.72
15.56
13.00
9.49
5.66
2.10
-0.82
-2.90
-4.07
-4.26
-3.50
-1.87
0.26
2.41
4.11
5.07
5.32
5.14
4.82
4.56
4.43
4.45
4.71
5.45
6.98
9.42
12.47
15.25
16.48
14.93
9.88
1.53
-9.05
-20.16
-30.02
-37.23
-41.03
-41.26
-38.27
-32.67
-25.18
-16.56
-7.60
1.02
8.78
15.35
20.58
24.44
26.94
28.18
28.33
27.59
26.20
24.33
22.09
19.53
16.66
13.54
10.34
7.26
4.57
2.47
0.92
-0.34
-1.71
-3.52
-5.77
-8.04
-9.60
-9.80
-8.42
-5.79
-2.72
-0.05
1.68
2.37
2.33
1.93
1.46
1.06
0.80
0.76
1.03
1.56
2.25
2.89
3.42
3.92
4.60
5.58
6.76
7.77
8.19
7.81
6.74
5.40
4.25
3.60
3.43
3.48
3.45
3.16
2.66
2.17
1.96
2.20
2.84
3.60
4.10
4.06
3.42
2.38
1.30
0.49
0.04
-0.19
-0.47
-1.06
-2.00
-3.18
-4.34
-5.26
-5.86
-6.27
-6.69
-7.26
-8.07
-9.09
-10.32
-11.77
-13.42
-15.14
-16.53
-17.08
-16.30
-14.11
-10.92
-7.53
-4.87
-3.51
-3.45
-4.18
-4.92
-4.97
-4.00
-2.11
0.24
2.40
3.87
4.41
4.22
3.80
3.72
4.33
5.59
7.15
8.53
9.45
9.91
10.18
10.53
11.06
11.64
12.01
11.97
11.43
10.48
9.31
8.08
6.97
6.07
5.44
4.99
4.56
3.91
2.88
1.51
0.05
-1.13
-1.70
-1.60
-1.00
-0.28
0.13
-0.04
-0.81
-2.05
-3.54
-5.05
-6.45
-7.68
-8.68
-9.43
-9.96
-10.41
-11.04
-12.05
-13.44
-14.89
-15.86
-15.81
-14.50
-12.09
-9.13
-6.22
-3.85
-2.15
-1.02
-0.27
0.23
0.50
0.58
0.56
0.61
0.83
1.21
1.61
1.87
1.94
1.95
2.09
2.54
3.31
4.26
5.24
6.12
6.87
7.47
7.89
8.08
7.99
7.71
7.37
7.15
7.07
7.02
6.82
6.31
5.52
4.61
3.78
3.12
2.54
1.88
1.00
-0.07
-1.19
-2.18
-2.98
-3.64
-4.33
-5.21
-6.28
-7.44
-8.52
-9.49
-10.44
-11.61
-13.12
-14.80
-16.19
-16.68
-15.76
-13.34
-9.85
-6.06
-2.81
-0.65
0.33
0.41
0.03
-0.43
-0.79
-1.00
-1.06
-0.96
-0.62
-0.02
0.83
1.80
2.75
3.64
4.48
5.37
6.38
7.53
8.73
9.78
10.42
10.41
9.64
8.23
6.49
4.94
4.03
4.00
4.71
5.71
6.40
6.30
5.18
3.19
0.67
-1.89
-4.03
-5.44
-6.00
-5.82
-5.21
-4.66
-4.61
-5.33
-6.77
-8.55
-10.16
-11.22
-11.67
-11.80
-12.06
-12.77
-13.88
-15.00
-15.49
-14.79
-12.71
-9.56
-6.04
-2.89
-0.64
0.74
1.67
2.76
4.38
6.52
8.78
10.76
12.33
13.73
15.39
17.60
20.26
22.97
25.28
26.99
28.26
29.53
31.12
33.24
35.87
39.01
42.60
46.44
49.81
51.45
49.66
42.89
30.32
12.28
-9.62
-32.78
-54.17
-70.96
-81.03
-83.40
-78.42
-67.58
-53.16
-37.68
-23.30
-11.41
-2.43
4.12
9.39
14.88
21.73
30.08
38.49
43.98
42.80
31.95
10.52
-19.47
-53.64
-86.55
-113.50
-131.76
-140.76
-141.55
-135.88
-125.66
-112.78
-99.13
-86.47
-75.91
-67.49
-60.19
-52.44
-42.98
-31.59
-19.14
-7.00
3.70
12.67
20.37
27.50
34.39
40.81
46.20
50.24
53.16
55.66
58.44
61.56
64.28
65.32
63.62
58.98
52.29
45.13
39.05
34.79
32.13
30.21
28.20
25.81
23.39
21.55
20.71
20.81
21.47
22.25
23.05
24.06
25.56
27.61
29.84
31.65
32.54
32.41
31.49
30.30
29.16
28.16
27.06
25.53
23.33
20.39
16.88
13.01
9.10
5.50
2.61
0.77
0.17
0.80
2.38
4.61
7.19
9.93
12.68
15.17
17.01
17.78
17.36
16.18
15.16
15.36
17.35
20.76
24.26
26.16
25.27
21.62
16.52
11.79
8.54
6.23
2.40
-6.49
-23.62
-50.60
-86.74
-129.23
-173.79
-215.27
-248.23
-267.43
-268.83
-251.09
-217.02
-174.05
-132.80
-103.98
-94.34
-103.87
-125.67
-148.98
-164.08
-166.45
-157.91
-144.45
-132.12
-123.71
-118.01
-111.65
-101.98
-88.72
-73.74
-59.30
-46.69
-36.42
-29.63
-29.60
-41.10
-67.92
-109.59
-159.66
-207.09
-240.22
-251.57
-240.61
-213.51
-179.74
-147.69
-121.60
-100.89
-82.11
-61.84
-38.68
-13.60
11.44
35.34
58.71
83.79
113.21
149.06
192.18
241.74
295.10
347.62
393.15
425.34
439.81
435.80
416.39
387.13
353.71
320.19
288.60
259.95
235.48
216.93
205.84
202.29
204.32
208.56
211.77
212.08
209.30
204.19
197.54
189.46
179.55
167.49
153.42
138.16
122.89
108.73
96.42
86.17
77.70
70.38
63.55
56.64
49.36
41.57
33.21
24.25
14.72
4.95
-4.28
-11.86
-16.68
-18.11
-16.46
-12.93
-9.26
-7.14
-7.60
-10.81
-16.15
-22.56
-28.89
-34.24
-38.06
-40.25
-41.07
-41.07
-40.76
-40.37
-39.68
-38.20
-35.50
-31.73
-27.70
-24.61
-23.47
-24.53
-27.13
-30.03
-32.04
-32.56
-31.78
-30.44
-29.34
-29.00
-29.38
-29.96
-29.91
-28.30
-24.27
-17.25
-7.16
5.40
19.10
31.98
41.86
46.88
46.09
40.06
31.30
24.00
22.91
31.57
50.49
76.45
103.37
124.34
133.84
129.26
111.09
81.79
44.52
2.07
-43.55
-91.07
-139.54
-187.81
-234.25
-276.45
-311.26
-335.31
-345.65
-340.60
-320.06
-285.28
-238.40
-182.34
-120.87
-58.87
-2.00
44.35
76.63
94.27
99.64
96.95
90.48
83.28
76.87
71.80
68.34
67.04
68.56
73.07
79.87
87.64
95.28
102.53
110.07
118.72
128.48
138.16
145.74
149.10
146.86
138.90
126.40
111.46
96.53
83.50
73.21
65.12
57.58
48.72
37.26
23.38
8.40
-6.16
-19.74
-33.33
-49.54
-72.04
-104.47
-148.77
-203.56
-263.43
-319.82
-363.52
-387.32
-388.80
-371.20
-342.34
-311.30
-284.89
-265.91
-253.62
-245.85
-239.90
-233.63
-225.74
-216.13
-204.82
-191.55
-175.69
-156.60
-134.02
-106.95
-72.99
-28.70
28.70
100.68
185.84
278.90
370.78
443.93
479.44
467.18
413.60
338.18
262.92
201.81
157.87
126.65
101.42
77.96
54.94
33.30
9.95
-18.46
-53.19
-91.49
-126.98
-152.44
-162.14
-154.75
-131.09
-100.69
-74.83
-60.84
-59.39
-65.87
-74.30
-80.01
-81.25
-78.09
-72.40
-65.40
-57.21
-47.28
-34.77
-18.96
1.04
24.82
52.18
81.75
111.69
139.36
161.48
174.71
176.54
166.33
145.76
118.75
89.82
63.36
42.49
28.29
20.20
16.75
16.45
18.08
20.65
22.52
21.67
16.19
5.30
-9.75
-25.77
-38.85
-46.04
-46.65
-42.54
-36.87
-32.32
-29.85
-28.48
-26.31
-21.95
-15.42
-7.93
-1.03
4.58
9.40
14.69
21.44
29.40
37.11
42.74
45.23
45.11
44.36
45.51
50.50
60.15
73.89
89.95
105.80
118.65
125.90
125.97
118.91
106.54
91.93
77.99
65.61
52.42
33.41
3.60
-38.31
-86.88
-129.79
-151.33
-138.78
-88.58
-9.23
80.83
159.74
209.94
223.41
202.36
156.06
96.48
35.26
-17.39
-53.11
-66.38
-56.58
-29.58
3.05
28.10
35.99
24.99
1.81
-22.37
-37.95
-41.63
-37.31
-33.10
-36.30
-49.52
-70.35
-92.92
-111.19
-121.33
-122.58
-116.28
-104.13
-86.90
-64.77
-39.48
-14.38
5.89
17.29
18.26
10.43
-2.10
-14.76
-24.85
-34.41
-47.74
-69.07
-99.60
-136.59
-174.66
-208.02
-232.27
-245.26
-248.91
-246.07
-239.81
-232.39
-225.57
-221.08
-220.22
-222.80
-213.95
-182.28
-123.73
-45.58
37.96
113.58
173.23
214.65
239.89
253.24
257.09
253.20
242.66
225.47
201.96
172.52
137.41
96.59
50.12
-2.77
-55.75
-100.95
-129.66
-135.44
-117.52
-81.68
-38.17
2.47
32.35
49.22
54.97
53.89
49.97
45.19
39.85
34.00
28.53
24.59
23.31
24.32
26.22
27.31
26.09
22.19
16.37
10.33
5.70
3.55
3.59
4.66
5.31
4.35
1.36
-3.24
-8.37
-12.86
-15.87
-17.43
-18.21
-19.11
-20.93
-23.99
-28.15
-32.85
-37.46
-41.51
-44.90
-47.86
-50.74
-53.83
-57.10
-60.30
-62.88
-64.17
-63.51
-60.49
-54.97
-47.11
-37.61
-26.73
-14.84
-2.26
10.75
23.97
37.03
49.41
60.42
69.34
75.71
79.39
80.75
80.59
79.84
79.27
79.18
79.39
79.41
78.80
77.34
75.25
73.06
71.41
70.90
72.11
75.41
80.69
86.95
92.04
93.01
87.11
73.13
52.12
27.39
3.28
-16.50
-30.05
-37.63
-40.82
-41.34
-40.28
-37.94
-34.45
-30.30
-26.47
-24.00
-23.31
-23.86
-24.39
-23.57
-20.62
-15.75
-9.98
-4.61
-0.66
1.52
2.16
1.88
1.28
0.73
0.28
-0.00
-0.21
-0.35
-0.44
-0.46
-0.48
-0.62
-1.07
-1.90
-3.05
-4.29
-5.32
-5.82
-5.67
-4.86
-3.51
-1.73
0.40
2.79
5.31
7.65
9.44
10.34
10.17
9.01
7.17
5.02
2.93
1.11
-0.39
-1.56
-2.49
-3.20
-3.67
-3.88
-3.83
-3.56
-3.16
-2.70
-2.20
-1.63
-0.94
-0.12
0.78
1.60
2.11
2.09
1.35
-0.11
-2.12
-4.27
-6.08
-7.14
-7.26
-6.60
-5.56
-4.67
-4.36
-4.82
-5.90
-7.20
-8.15
-8.18
-6.92
-4.33
-0.70
3.46
7.59
11.25
14.20
16.35
17.59
17.77
16.76
14.55
11.43
7.98
4.88
2.64
1.45
1.12
1.27
1.49
1.59
1.62
1.75
2.13
2.83
3.81
5.02
6.47
8.17
10.09
12.12
14.03
15.56
16.57
17.02
17.01
16.64
15.95
14.90
13.38
11.35
8.73
5.52
1.72
-2.65
-7.42
-12.26
-16.74
-20.38
-22.84
-24.07
-24.24
-23.72
-22.91
-22.11
-21.53
-21.23
-21.21
-21.45
-21.84
-22.26
-22.47
-22.24
-21.39
-19.87
-17.79
-15.39
-12.96
-10.73
-8.75
-6.83
-4.69
-2.08
1.09
4.67
8.35
11.79
14.81
17.48
20.01
22.62
25.35
28.04
30.33
31.93
32.79
33.15
33.48
34.16
35.25
36.32
36.55
35.07
31.28
25.18
17.36
8.84
0.73
-6.14
-11.37
-15.06
-17.58
-19.45
-21.03
-22.52
-23.92
-25.12
-25.97
-26.44
-26.71
-27.24
-28.73
-31.95
-37.41
-44.99
-53.81
-62.30
-68.68
-71.55
-70.46
-66.03
-59.75
-53.28
-47.92
-44.24
-42.14
-41.25
-41.39
-42.72
-45.65
-50.58
-57.55
-66.14
-75.48
-84.44
-91.85
-96.78
-98.84
-98.48
-97.21
-97.39
-101.53
-111.40
-127.10
-146.75
-166.93
-183.70
-193.62
-194.50
-185.56
-167.25
-140.89
-108.45
-72.49
-35.76
-0.79
30.83
58.85
84.31
108.80
133.42
158.09
181.32
200.87
214.76
222.15
223.81
221.75
218.38
215.61
214.18
213.59
212.63
210.13
205.68
199.74
193.36
187.39
181.92
175.99
168.17
157.38
143.50
127.49
110.61
93.77
76.98
59.84
42.49
26.13
12.31
1.19
-9.88
-25.88
-51.49
-87.33
-127.78
-162.13
-179.19
-172.85
-145.46
-107.02
-70.60
-46.71
-39.70
-47.93
-66.56
-91.04
-118.83
-148.86
-179.82
-209.11
-233.15
-248.87
-255.27
-253.88
-248.16
-241.60
-236.33
-232.46
-228.66
-223.36
-216.00
-207.54
-200.23
-196.65
-198.35
-205.04
-214.00
-220.59
-219.32
-205.39
-175.88
-130.50
-71.54
-3.28
68.84
138.96
201.64
252.51
288.91
310.26
318.11
315.52
306.10
293.03
278.48
263.58
248.82
234.56
221.05
208.49
196.78
185.50
174.11
162.24
149.93
137.60
125.87
115.25
105.82
97.17
88.59
79.42
69.29
58.29
46.80
35.33
24.32
14.05
4.76
-3.29
-9.82
-14.60
-17.60
-19.03
-19.30
-18.93
-18.38
-17.93
-17.72
-17.80
-18.18
-18.88
-19.89
-21.07
-22.21
-22.99
-23.19
-22.72
-21.73
-20.47
-19.17
-17.97
-16.88
-15.83
-14.78
-13.76
-12.84
-12.12
-11.67
-11.49
-11.57
-11.82
-12.18
-12.54
-12.83
-12.99
-13.00
-12.83
-12.50
-12.03
-11.48
-10.97
-10.67
-10.72
-11.20
-12.02
-13.00
-13.89
-14.50
-14.80
-14.93
-15.11
-15.56
-16.36
-17.39
-18.29
-18.63
-18.04
-16.37
-13.74
-10.53
-7.21
-4.15
-1.57
0.48
2.01
3.03
3.50
3.42
2.89
2.08
1.23
0.43
-0.34
-1.22
-2.31
-3.54
-4.64
-5.28
-5.23
-4.48
-3.29
-2.06
-1.10
-0.57
-0.35
-0.16
0.25
0.98
1.94
2.89
3.60
3.98
4.11
4.23
4.54
5.10
5.71
6.10
5.97
5.24
4.13
2.95
2.02
1.49
1.30
1.20
0.91
0.15
-1.27
-3.40
-6.07
-8.76
-10.71
-11.11
-9.50
-6.20
-2.35
0.39
0.58
-2.32
-7.61
-13.62
-18.55
-21.23
-21.61
-20.64
-19.74
-20.10
-22.18
-25.49
-28.78
-30.42
-28.94
-23.64
-14.90
-4.36
5.44
11.59
11.76
5.12
-7.28
-22.48
-36.32
-44.55
-43.96
-33.33
-13.65
12.16
40.28
66.94
89.06
104.55
111.98
110.32
98.81
77.42
47.58
12.86
-20.97
-46.90
-58.62
-52.70
-30.23
3.27
39.54
70.41
90.37
97.84
94.92
85.53
73.51
61.38
50.20
40.22
31.75
25.45
22.08
21.95
24.51
28.43
32.11
34.37
34.87
34.06
32.84
31.87
31.13
29.72
26.25
19.50
9.15
-3.93
-17.88
-30.46
-39.92
-45.60
-48.01
-48.44
-48.28
-48.38
-48.84
-49.24
-49.07
-48.03
-46.21
-43.94
-41.59
-39.36
-37.31
-35.43
-33.70
-32.22
-31.06
-30.22
-29.47
-28.49
-26.88
-24.41
-21.09
-17.26
-13.35
-9.80
-6.83
-4.40
-2.29
-0.23
1.90
4.08
6.09
7.74
8.91
9.64
10.16
10.77
11.75
13.28
15.43
18.11
21.13
24.16
26.85
28.89
30.10
30.61
30.86
31.42
32.82
35.25
38.51
42.15
45.72
49.17
52.84
57.35
63.25
70.69
79.14
87.62
94.91
99.83
101.43
99.22
93.34
84.74
75.00
65.87
58.65
53.60
49.95
46.32
41.36
34.42
25.69
15.94
5.88
-4.34
-15.26
-27.79
-42.43
-58.59
-74.13
-85.60
-89.38
-83.34
-68.08
-47.13
-25.66
-8.18
3.00
8.20
9.42
9.08
9.24
11.37
16.28
23.63
31.16
34.83
30.29
15.41
-7.61
-32.16
-49.83
-54.20
-43.86
-22.79
1.98
23.60
37.65
42.81
39.95
31.26
19.67
8.71
1.97
1.66
7.56
16.70
24.50
27.03
22.70
12.56
-0.94
-15.74
-31.30
-48.33
-67.72
-89.28
-111.52
-132.17
-149.06
-160.66
-165.88
-163.78
-153.59
-135.37
-110.80
-83.37
-57.59
-37.52
-25.46
-21.49
-23.97
-30.59
-39.15
-47.87
-55.29
-60.26
-62.19
-61.37
-58.94
-56.48
-55.32
-55.94
-57.95
-60.45
-62.46
-63.33
-62.85
-61.23
-59.09
-57.25
-56.51
-57.20
-59.02
-61.09
-62.41
-62.34
-60.99
-58.80
-56.13
-52.71
-47.76
-40.44
-30.51
-18.52
-5.76
6.30
16.48
24.15
29.20
31.84
32.48
31.64
29.91
27.77
25.53
23.17
20.38
16.84
12.37
7.18
1.83
-3.08
-7.09
-10.19
-12.76
-15.43
-18.75
-23.04
-28.32
-34.35
-40.76
-47.13
-53.03
-57.99
-61.64
-63.64
-63.86
-62.28
-59.05
-54.31
-48.16
-40.53
-31.16
-19.70
-5.84
10.39
28.38
46.88
64.20
78.61
88.84
94.36
95.37
92.56
86.86
79.54
72.22
66.87
65.26
68.25
75.02
83.13
89.27
90.76
86.73
78.53
69.00
61.03
56.28
54.69
54.93
55.43
55.15
53.89
51.92
49.51
46.63
42.96
38.13
32.04
24.87
17.11
9.31
1.95
-4.59
-10.03
-14.15
-16.79
-17.81
-17.18
-15.28
-13.12
-12.29
-14.52
-20.81
-30.69
-41.95
-51.31
-55.69
-53.42
-44.97
-32.54
-19.01
-6.65
3.60
12.15
20.17
28.69
37.99
47.47
55.85
61.79
64.32
63.15
58.73
51.95
43.77
34.94
25.92
16.93
8.14
-0.20
-7.75
-14.08
-18.83
-21.79
-22.91
-22.31
-20.27
-17.10
-13.07
-8.39
-3.32
1.71
6.00
8.75
9.39
7.83
4.64
0.93
-2.11
-3.62
-3.50
-2.44
-1.65
-2.37
-5.30
-10.30
-16.35
-21.95
-25.68
-26.70
-24.97
-21.21
-16.51
-11.91
-8.09
-5.29
-3.42
-2.29
-1.81
-2.08
-3.41
-6.10
-10.30
-15.78
-21.94
-27.98
-33.17
-37.15
-39.88
-41.56
-42.23
-41.55
-38.82
-33.27
-24.56
-13.13
-0.29
12.12
22.25
28.93
31.93
31.98
30.40
28.60
27.77
28.83
32.39
38.59
46.69
54.76
59.93
59.38
51.76
38.21
22.33
8.77
1.31
1.28
7.39
16.76
26.57
35.14
42.02
47.17
50.19
50.16
46.23
38.49
28.42
18.43
10.95
7.30
7.24
9.15
10.91
10.89
8.55
4.49
-0.01
-3.71
-5.94
-6.81
-6.99
-7.28
-8.21
-9.87
-11.97
-14.14
-16.07
-17.72
-19.20
-20.60
-21.92
-22.95
-23.39
-22.95
-21.49
-19.13
-16.27
-13.47
-11.26
-9.99
-9.65
-9.96
-10.50
-10.92
-11.10
-11.13
-11.17
-11.41
-11.98
-13.01
-14.56
-16.46
-18.01
-18.05
-15.23
-8.73
1.18
12.97
24.36
33.27
38.63
40.71
40.63
39.66
38.55
37.36
35.80
33.73
31.32
28.97
26.89
24.90
22.43
18.88
13.93
7.72
0.82
-5.99
-11.98
-16.65
-19.85
-21.73
-22.73
-23.43
-24.39
-25.98
-28.29
-31.11
-34.04
-36.63
-38.52
-39.50
-39.46
-38.40
-36.33
-33.36
-29.68
-25.66
-21.69
-18.10
-15.04
-12.41
-9.93
-7.24
-4.16
-0.77
2.59
5.38
7.10
7.40
6.26
3.96
1.04
-1.91
-4.35
-5.96
-6.68
-6.69
-6.24
-5.59
-4.91
-4.29
-3.73
-3.22
-2.74
-2.30
-1.92
-1.57
-1.21
-0.71
0.01
0.94
1.93
2.69
2.94
2.52
1.46
0.05
-1.40
-2.63
-3.59
-4.40
-5.26
-6.31
-7.56
-8.92
-10.25
-11.43
-12.37
-12.97
-13.12
-12.69
-11.68
-10.22
-8.52
-6.86
-5.41
-4.21
-3.13
-1.99
-0.72
0.63
1.85
2.69
3.00
2.81
2.32
1.79
1.49
1.59
2.12
3.01
4.15
5.38
6.61
7.74
8.68
9.39
9.79
9.87
9.67
9.27
8.81
8.40
8.10
7.86
7.56
7.06
6.26
5.11
3.67
1.98
0.14
-1.76
-3.61
-5.25
-6.58
-7.61
-8.48
-9.41
-10.66
-12.27
-14.10
-15.77
-16.83
-16.93
-15.98
-14.11
-11.64
-8.93
-6.31
-3.99
-2.10
-0.67
0.30
0.85
1.05
1.02
0.89
0.79
0.81
0.97
1.21
1.50
1.83
2.28
2.92
3.82
4.94
6.14
7.23
8.06
8.56
8.76
8.70
8.47
8.12
7.72
7.36
7.15
7.17
7.45
7.91
8.39
8.69
8.63
8.08
7.00
5.49
3.67
1.73
-0.19
-2.05
-3.83
-5.61
-7.45
-9.42
-11.55
-13.76
-15.88
-17.59
-18.52
-18.38
-17.04
-14.67
-11.71
-8.72
-6.17
-4.35
-3.21
-2.52
-1.94
-1.15
-0.03
1.40
2.97
4.44
5.62
6.44
6.89
7.09
7.20
7.42
7.86
8.58
9.50
10.41
11.09
11.30
10.97
10.17
9.12
8.10
7.34
6.95
6.88
6.92
6.79
6.25
5.21
3.78
2.28
1.05
0.34
0.15
0.23
0.11
-0.65
-2.32
-4.82
-7.68
-10.35
-12.36
-13.53
-14.04
-14.38
-15.07
-16.50
-18.67
-21.04
-22.74
-22.65
-19.65
-13.13
-3.45
7.72
17.47
22.48
20.38
10.57
-4.95
-21.99
-35.39
-40.80
-36.10
-22.05
-1.76
20.81
41.69
58.10
68.83
74.00
74.67
72.49
69.36
65.61
61.99
58.93
56.63
54.91
53.17
50.84
47.39
42.28
34.74
25.33
11.86
-8.65
-38.35
-76.94
-120.56
-161.90
-192.05
-203.52
-193.02
-161.92
-116.99
-67.91
-23.77
9.52
30.01
39.08
40.06
37.11
33.90
32.89
34.79
38.51
42.00
43.88
44.87
47.93
56.50
71.93
91.96
111.23
123.74
125.55
115.93
96.55
69.80
37.61
1.80
-34.13
-63.69
-78.33
-70.82
-39.46
9.53
63.19
106.83
129.98
130.42
113.80
89.57
65.82
46.23
30.46
16.81
4.50
-6.07
-15.11
-25.22
-40.98
-66.03
-99.61
-135.00
-161.70
-170.51
-158.81
-132.65
-104.59
-87.80
-89.75
-108.63
-134.31
-153.71
-157.60
-145.51
-125.92
-111.41
-111.64
-127.83
-152.05
-171.48
-175.13
-159.02
-126.97
-87.16
-47.03
-9.87
25.19
60.35
95.90
128.69
153.25
164.63
160.96
144.46
120.55
95.62
74.65
59.72
49.94
42.75
35.67
27.74
19.88
14.12
12.32
15.01
21.09
28.46
34.90
38.97
40.34
39.70
38.30
37.36
37.46
38.04
37.54
33.96
25.96
13.76
-0.64
-14.30
-24.58
-30.24
-31.54
-29.57
-25.40
-19.60
-12.50
-4.51
3.56
10.85
16.90
21.87
26.34
30.78
35.14
38.83
41.19
41.97
41.57
40.84
40.59
41.24
42.71
44.62
46.66
48.65
50.51
52.11
53.22
53.62
53.42
53.15
53.49
54.76
56.30
56.37
52.62
43.10
27.36
6.88
-15.31
-35.69
-51.47
-61.33
-65.40
-64.62
-60.13
-52.84
-43.44
-32.75
-21.79
-11.62
-2.94
4.10
9.76
14.34
17.64
18.79
16.69
10.75
1.53
-9.25
-19.29
-26.83
-31.34
-33.65
-35.36
-37.85
-41.51
-45.59
-48.62
-49.28
-47.11
-42.72
-37.43
-32.56
-28.74
-25.71
-22.69
-18.86
-13.88
-8.03
-2.05
3.38
7.80
10.87
12.31
11.73
8.78
3.44
-3.67
-11.35
-17.91
-21.98
-22.96
-21.25
-17.96
-14.37
-11.45
-9.53
-8.30
-6.54
-2.77
4.19
15.01
29.61
47.31
66.97
87.28
106.95
125.40
142.26
157.09
169.32
178.51
184.87
189.58
194.46
201.24
211.23
224.18
238.02
249.74
256.85
258.74
257.16
255.48
250.24
238.63
218.70
190.11
154.74
116.30
79.03
46.26
19.40
0.41
-13.22
-24.49
-35.58
-47.22
-58.75
-68.66
-75.40
-78.40
-77.74
-74.33
-69.43
-64.29
-59.65
-55.39
-50.94
-45.84
-40.59
-37.03
-38.11
-47.08
-67.17
-101.38
-151.52
-217.14
-294.19
-374.43
-446.45
-498.54
-522.50
-516.95
-488.06
-446.94
-404.90
-368.95
-339.97
-314.08
-286.37
-254.27
-219.08
-184.78
-155.57
-133.41
-117.26
-104.03
-90.09
-72.33
-48.59
-17.58
20.74
64.03
106.76
140.48
155.91
146.01
109.33
51.22
-17.20
-82.41
-132.60
-160.60
-164.88
-148.55
-117.47
-78.59
-38.69
-3.70
22.02
36.45
40.45
37.44
32.39
30.11
33.71
44.01
60.09
80.41
103.65
128.74
154.11
177.00
193.75
201.07
197.59
184.52
164.81
141.19
114.79
84.81
49.83
9.55
-34.13
-77.41
-115.87
-145.94
-165.59
-174.10
-171.50
-158.15
-134.73
-102.73
-64.65
-23.93
15.60
50.38
77.82
96.73
107.57
112.04
112.48
110.78
107.80
103.40
97.04
88.63
79.00
69.74
62.56
58.50
57.56
58.91
61.34
63.84
65.84
67.28
68.41
69.47
70.50
71.26
71.34
70.38
68.23
65.07
61.30
57.37
53.66
50.41
47.74
45.75
44.60
44.56
45.89
48.59
52.23
55.98
58.81
59.91
58.93
56.07
51.82
46.71
41.02
34.78
27.99
20.89
14.04
8.26
4.35
2.76
3.50
6.11
9.82
13.85
17.52
20.41
22.31
23.26
23.49
23.41
23.53
24.33
26.13
28.98
32.67
36.80
40.96
44.83
48.21
50.95
52.97
54.22
54.76
54.79
54.58
54.29
53.74
52.43
49.61
44.74
37.72
28.95
19.31
9.69
0.81
-6.96
-13.49
-18.75
-22.54
-24.54
-24.45
-22.15
-17.86
-12.12
-5.60
1.11
7.67
14.01
20.27
26.64
33.21
39.95
46.76
53.65
60.79
68.57
77.44
87.77
99.70
113.14
127.74
142.97
158.07
172.12
184.09
192.95
197.74
197.81
193.02
183.93
171.89
158.73
146.27
135.53
126.30
117.24
106.42
92.20
73.98
52.18
27.67
1.13
-27.17
-56.86
-86.49
-113.31
-133.67
-144.38
-144.10
-134.15
-117.97
-99.71
-82.71
-68.69
-58.39
-53.19
-56.57
-73.99
-110.51
-167.28
-238.89
-313.47
-376.14
-414.27
-421.77
-400.30
-356.99
-300.52
-238.49
-177.05
-122.14
-80.18
-56.72
-53.57
-66.72
-86.95
-103.33
-107.80
-98.00
-77.00
-50.47
-23.72
0.08
19.57
34.05
42.79
45.38
42.48
36.19
29.31
24.11
21.50
20.94
21.01
20.27
17.94
14.09
9.48
5.32
2.81
2.66
4.70
7.80
10.21
10.30
7.31
1.72
-4.92
-10.65
-13.88
-13.85
-10.73
-5.42
0.89
7.04
12.18
15.90
18.31
19.90
21.44
23.56
26.51
30.02
33.27
35.24
35.16
32.81
28.70
23.86
19.37
15.87
13.30
10.96
7.94
3.64
-1.95
-8.13
-13.87
-18.26
-20.76
-21.44
-20.77
-19.43
-18.00
-16.88
-16.20
-15.81
-15.41
-14.57
-12.94
-10.41
-7.33
-4.39
-2.49
-2.30
-3.96
-6.90
-10.15
-12.69
-13.90
-13.65
-12.21
-9.91
-6.90
-3.15
1.39
6.53
11.73
16.20
19.21
20.38
19.81
18.04
15.81
13.76
12.28
11.39
10.90
10.54
10.18
9.79
9.47
9.20
8.80
7.90
6.14
3.34
-0.38
-4.55
-8.60
-11.99
-14.41
-15.82
-16.33
-16.19
-15.58
-14.67
-13.55
-12.23
-10.67
-8.79
-6.50
-3.86
-1.02
1.76
4.26
6.37
8.19
9.93
11.82
13.97
16.27
18.43
20.10
21.02
21.22
21.02
20.94
21.45
22.79
24.85
27.21
29.46
31.39
33.09
34.83
36.77
38.88
40.85
42.31
42.99
42.72
41.31
38.27
32.89
24.57
13.37
0.36
-12.60
-23.60
-31.53
-36.62
-40.19
-43.74
-48.05
-52.66
-56.30
-57.68
-56.48
-53.49
-50.27
-48.25
-47.99
-49.03
-50.22
-50.48
-49.23
-46.66
-43.38
-40.05
-37.03
-34.17
-31.02
-27.11
-22.23
-16.75
-11.50
-7.61
-5.99
-7.11
-10.75
-16.32
-23.16
-30.98
-39.77
-49.37
-58.99
-66.94
-71.07
-69.57
-61.74
-48.35
-31.24
-12.62
5.69
22.49
37.13
49.17
58.33
64.52
68.08
69.91
71.07
72.54
74.80
77.81
81.14
84.13
86.11
86.52
85.14
82.28
78.78
75.84
74.48
75.18
77.52
80.22
81.46
79.36
72.35
59.56
41.13
18.39
-6.15
-29.26
-47.81
-59.73
-64.64
-63.99
-60.31
-56.18
-53.35
-52.22
-52.22
-52.31
-51.74
-50.21
-47.87
-44.92
-41.38
-37.07
-31.86
-26.00
-20.17
-15.30
-12.18
-11.00
-11.26
-12.00
-12.23
-11.39
-9.57
-7.35
-5.50
-4.58
-4.80
-5.90
-7.42
-8.80
-9.63
-9.67
-8.92
-7.57
-6.00
-4.66
-4.00
-4.27
-5.49
-7.41
-9.56
-11.41
-12.52
-12.67
-11.86
-10.31
-8.29
-6.05
-3.73
-1.44
0.76
2.78
4.49
5.77
6.49
6.61
6.16
5.25
4.10
2.97
2.16
1.93
2.36
3.33
4.57
5.76
6.68
7.27
7.60
7.75
7.71
7.37
6.58
5.33
3.79
2.28
1.07
0.29
-0.20
-0.69
-1.49
-2.74
-4.31
-5.95
-7.37
-8.39
-9.03
-9.45
-9.90
-10.60
-11.62
-12.89
-14.16
-15.10
-15.37
-14.80
-13.40
-11.40
-9.11
-6.84
-4.74
-2.85
-1.13
0.49
1.99
3.31
4.37
5.14
5.63
5.84
5.80
5.54
5.17
4.86
4.81
5.13
5.83
6.68
7.33
7.50
7.02
5.93
4.46
2.89
1.45
0.28
-0.58
-1.19
-1.64
-2.01
-2.40
-2.90
-3.54
-4.27
-5.01
-5.59
-5.87
-5.79
-5.41
-4.88
-4.46
-4.40
-4.87
-5.91
-7.39
-9.03
-10.46
-11.35
-11.47
-10.71
-9.16
-6.97
-4.35
-1.51
1.38
4.18
6.74
8.91
10.53
11.49
11.76
11.39
10.52
9.34
8.04
6.79
5.65
4.59
3.53
2.36
1.05
-0.34
-1.62
-2.51
-2.70
-1.93
-0.09
2.76
6.35
10.24
13.85
16.55
17.73
17.01
14.30
9.90
4.48
-1.11
-6.06
-9.78
-12.01
-12.79
-12.37
-11.08
-9.24
-7.19
-5.23
-3.61
-2.54
-2.04
-1.99
-2.11
-2.12
-1.82
-1.17
-0.31
0.60
1.39
2.04
2.57
2.97
3.21
3.17
2.81
2.18
1.51
1.04
0.98
1.37
2.12
3.02
3.86
4.50
4.84
4.81
4.40
3.66
2.72
1.75
0.92
0.28
-0.26
-0.89
-1.81
-3.16
-4.88
-6.77
-8.57
-10.00
-10.90
-11.16
-10.77
-9.73
-8.14
-6.20
-4.15
-2.26
-0.71
0.46
1.33
2.00
2.57
3.05
3.34
3.38
3.15
2.74
2.32
2.09
2.16
2.53
3.11
3.72
4.25
4.63
4.86
4.94
4.83
4.48
3.78
2.77
1.56
0.34
-0.73
-1.63
-2.43
-3.29
-4.31
-5.47
-6.60
-7.53
-8.05
-8.07
-7.62
-6.79
-5.74
-4.64
-3.66
-2.92
-2.51
-2.45
-2.62
-2.81
-2.73
-2.13
-0.89
0.91
2.98
4.96
6.53
7.53
7.90
7.76
7.21
6.34
5.23
3.93
2.53
1.19
0.03
-0.86
-1.43
-1.75
-1.98
-2.33
-3.00
-4.06
-5.34
-6.48
-6.99
-6.55
-5.24
-3.58
-2.37
-2.38
-3.91
-6.65
-9.74
-12.23
-13.48
-13.58
-13.30
-13.73
-15.77
-19.55
-24.36
-28.97
-32.22
-33.65
-33.70
-33.45
-34.08
-36.35
-40.62
-47.06
-55.71
-66.22
-77.08
-85.22
-86.72
-78.57
-60.69
-36.72
-12.90
4.64
12.47
10.97
3.22
-7.39
-18.95
-31.29
-44.45
-57.00
-65.41
-65.33
-54.01
-32.12
-4.02
23.80
45.43
57.76
61.06
58.25
53.08
48.40
45.26
43.14
40.84
37.06
30.74
21.03
7.50
-9.40
-27.77
-44.17
-54.54
-55.66
-46.60
-29.12
-6.71
17.16
40.33
62.19
82.67
101.06
115.53
123.99
125.37
120.69
112.95
105.74
101.63
101.24
103.07
104.72
104.28
101.07
95.67
89.29
82.89
76.78
70.79
64.53
57.83
50.89
44.20
38.24
33.31
29.38
26.13
23.08
19.74
15.85
11.41
6.72
2.23
-1.63
-4.61
-6.68
-8.05
-9.01
-9.88
-10.84
-11.94
-13.08
-14.08
-14.77
-15.12
-15.20
-15.23
-15.42
-15.83
-16.44
-17.07
-17.58
-17.89
-18.00
-17.93
-17.61
-16.94
-15.82
-14.28
-12.49
-10.78
-9.44
-8.64
-8.37
-8.43
-8.62
-8.83
-9.05
-9.37
-9.84
-10.47
-11.11
-11.63
-11.89
-11.91
-11.78
-11.67
-11.72
-11.94
-12.28
-12.60
-12.78
-12.79
-12.68
-12.54
-12.47
-12.51
-12.64
-12.82
-12.99
-13.12
-13.16
-13.11
-13.03
-13.00
-13.17
-13.63
-14.42
-15.46
-16.62
-17.68
-18.45
-18.75
-18.43
-17.45
-15.84
-13.73
-11.35
-8.99
-6.90
-5.26
-4.17
-3.60
-3.46
-3.56
-3.74
-3.83
-3.77
-3.60
-3.43
-3.36
-3.43
-3.60
-3.76
-3.76
-3.42
-2.57
-1.09
1.05
3.73
6.65
9.38
11.48
12.64
12.75
11.94
10.45
8.57
6.55
4.58
2.76
1.16
-0.23
-1.46
-2.52
-3.46
-4.27
-4.98
-5.63
-6.28
-6.97
-7.72
-8.51
-9.37
-10.34
-11.48
-12.75
-13.95
-14.80
-14.94
-14.19
-12.62
-10.52
-8.29
-6.22
-4.42
-2.80
-1.25
0.25
1.61
2.65
3.24
3.41
3.28
3.05
2.83
2.67
2.53
2.41
2.38
2.53
2.94
3.59
4.33
4.97
5.39
5.54
5.50
5.35
5.17
4.99
4.78
4.52
4.22
3.91
3.64
3.45
3.30
3.15
3.01
2.85
2.72
2.64
2.60
2.50
2.24
1.67
0.78
-0.37
-1.65
-2.88
-3.96
-4.92
-5.83
-6.73
-7.56
-8.12
-8.18
-7.59
-6.40
-4.84
-3.24
-1.90
-0.94
-0.37
-0.11
-0.07
-0.25
-0.65
-1.27
-2.06
-2.86
-3.53
-3.93
-4.02
-3.80
-3.41
-2.96
-2.57
-2.28
-1.98
-1.50
-0.64
0.72
2.54
4.65
6.78
8.69
10.20
11.29
12.00
12.43
12.62
12.63
12.46
12.15
11.82
11.59
11.60
11.91
12.48
13.20
14.00
14.89
15.97
17.22
18.38
18.92
18.21
15.83
11.91
7.16
2.61
-0.76
-2.51
-2.81
-2.32
-1.81
-1.88
-2.82
-4.62
-7.09
-10.01
-13.12
-16.19
-18.96
-21.29
-23.19
-24.73
-26.06
-27.29
-28.38
-29.28
-29.90
-30.18
-30.16
-29.93
-29.63
-29.43
-29.51
-29.97
-30.76
-31.61
-32.05
-31.53
-29.65
-26.26
-21.62
-16.16
-10.38
-4.50
1.48
7.75
14.46
21.46
28.30
34.45
39.53
43.56
46.84
49.73
52.26
54.07
54.62
53.59
51.15
47.90
44.58
41.59
38.84
35.86
32.24
27.89
23.01
17.88
12.44
6.04
-2.28
-13.41
-27.68
-44.70
-63.49
-82.94
-102.08
-120.19
-136.73
-151.31
-163.54
-173.31
-180.85
-186.68
-191.42
-195.46
-198.78
-200.93
-201.19
-198.79
-193.03
-183.28
-169.12
-150.62
-128.63
-104.99
-82.15
-62.49
-47.54
-37.42
-30.78
-25.28
-18.25
-7.38
8.69
29.94
54.81
80.34
102.83
118.85
126.30
125.15
117.39
106.28
95.20
86.66
81.82
80.66
82.37
85.85
89.98
93.78
96.43
97.43
96.66
94.38
91.10
87.40
83.68
80.08
76.49
72.58
68.04
62.64
56.44
49.79
43.35
37.93
34.20
32.48
32.56
33.79
35.25
36.11
35.88
34.50
32.31
29.82
27.53
25.71
24.38
23.33
22.25
20.83
18.85
16.32
13.44
10.57
8.09
6.30
5.31
4.98
5.09
5.37
5.59
5.64
5.48
5.12
4.61
4.04
3.59
3.41
3.62
4.21
4.99
5.71
6.07
5.86
5.03
3.63
1.86
-0.05
-1.82
-3.15
-3.79
-3.65
-2.86
-1.79
-0.93
-0.70
-1.24
-2.36
-3.56
-4.34
-4.41
-3.78
-2.74
-1.65
-0.78
-0.26
-0.04
-0.12
-0.49
-1.24
-2.41
-3.96
-5.64
-7.06
-7.80
-7.62
-6.53
-4.82
-2.92
-1.15
0.46
2.09
4.01
6.30
8.72
10.76
11.92
11.98
11.08
9.58
7.87
6.23
4.83
3.87
3.64
4.44
6.34
9.07
11.89
13.92
14.34
12.73
9.09
3.84
-2.35
-8.64
-14.08
-17.78
-19.00
-17.48
-13.52
-8.00
-2.15
2.81
5.94
6.79
5.34
2.07
-2.29
-6.80
-10.46
-12.50
-12.61
-11.00
-8.40
-5.71
-3.65
-2.49
-2.03
-1.76
-1.20
-0.17
1.18
2.46
3.29
3.51
3.18
2.55
1.83
1.19
0.73
0.50
0.60
1.14
2.14
3.48
4.86
5.92
6.35
5.95
4.78
3.06
1.15
-0.53
-1.62
-1.90
-1.34
-0.12
1.46
3.01
4.19
4.76
4.55
3.58
2.03
0.26
-1.31
-2.28
-2.52
-2.14
-1.52
-1.08
-1.12
-1.69
-2.71
-4.00
-5.44
-6.97
-8.51
-9.94
-11.09
-11.90
-12.42
-12.88
-13.56
-14.59
-15.89
-17.07
-17.65
-17.23
-15.62
-12.96
-9.53
-5.72
-1.85
1.80
5.09
7.89
10.15
11.84
12.99
13.63
13.80
13.49
12.66
11.33
9.63
7.79
6.10
4.73
3.76
3.11
2.66
2.32
2.10
2.08
2.28
2.68
3.12
3.49
3.73
3.92
4.22
4.71
5.35
5.99
6.42
6.54
6.34
5.92
5.37
4.68
3.78
2.57
1.06
-0.62
-2.23
-3.61
-4.75
-5.85
-7.18
-8.94
-11.08
-13.25
-14.88
-15.48
-14.78
-12.83
-10.01
-6.85
-3.85
-1.34
0.52
1.82
2.72
3.39
4.01
4.69
5.52
6.57
7.86
9.32
10.82
12.16
13.14
13.65
13.71
13.47
13.10
12.70
12.25
11.68
10.91
9.95
8.90
7.85
6.86
5.89
4.86
3.72
2.49
1.28
0.20
-0.66
-1.28
-1.70
-1.96
-2.14
-2.27
-2.37
-2.36
-2.15
-1.64
-0.89
-0.10
0.36
0.10
-1.09
-3.12
-5.57
-7.84
-9.38
-9.89
-9.40
-8.14
-6.48
-4.69
-2.92
-1.24
0.35
1.82
3.14
4.24
5.09
5.70
6.13
6.49
6.90
7.42
8.06
8.77
9.49
10.14
10.75
11.31
11.85
12.35
12.73
12.93
12.91
12.64
12.10
11.23
9.93
8.10
5.76
3.14
0.58
-1.53
-2.95
-3.66
-3.86
-3.83
-3.84
-4.06
-4.50
-5.08
-5.72
-6.32
-6.87
-7.38
-7.90
-8.44
-8.94
-9.29
-9.39
-9.19
-8.70
-8.05
-7.29
-6.42
-5.30
-3.80
-1.88
0.31
2.43
4.18
5.33
5.91
6.06
6.02
5.90
5.72
5.45
5.10
4.79
4.68
4.89
5.42
6.13
6.80
7.29
7.60
7.80
8.02
8.35
8.85
9.53
10.37
11.33
12.32
13.14
13.61
13.55
12.91
11.78
10.36
8.86
7.43
6.10
4.85
3.64
2.52
1.54
0.82
0.38
0.16
0.03
-0.18
-0.67
-1.55
-2.85
-4.48
-6.27
-7.94
-9.21
-9.92
-10.05
-9.71
-9.14
-8.50
-7.91
-7.34
-6.65
-5.61
-3.93
-1.39
2.00
5.80
9.19
11.18
11.06
8.73
4.84
0.45
-3.37
-5.95
-7.15
-7.22
-6.47
-5.13
-3.32
-1.18
1.03
2.95
4.19
4.56
4.09
3.05
1.81
0.78
0.24
0.29
0.75
1.27
1.43
0.97
-0.08
-1.48
-2.79
-3.69
-4.06
-4.03
-3.86
-3.84
-4.10
-4.62
-5.31
-5.97
-6.47
-6.69
-6.58
-6.07
-5.10
-3.68
-1.88
0.07
1.84
3.13
3.75
3.75
3.39
3.03
2.97
3.32
3.96
4.61
4.96
4.79
4.10
2.96
1.60
0.21
-1.04
-2.12
-3.05
-3.93
-4.81
-5.73
-6.65
-7.51
-8.25
-8.88
-9.42
-9.94
-10.45
-10.89
-11.11
-11.00
-10.52
-9.79
-9.01
-8.39
-8.01
-7.82
-7.66
-7.44
-7.15
-6.83
-6.48
-6.00
-5.16
-3.76
-1.82
0.37
2.33
3.60
3.89
3.23
1.89
0.26
-1.33
-2.65
-3.54
-3.92
-3.74
-3.02
-1.90
-0.59
0.61
1.45
1.75
1.47
0.67
-0.51
-1.87
-3.19
-4.25
-4.88
-5.01
-4.77
-4.40
-4.20
-4.40
-5.05
-6.08
-7.30
-8.58
-9.84
-11.06
-12.19
-13.15
-13.81
-14.07
-13.91
-13.45
-12.79
-12.01
-11.09
-9.93
-8.41
-6.54
-4.47
-2.47
-0.88
0.04
0.19
-0.31
-1.15
-1.96
-2.41
-2.37
-1.92
-1.30
-0.77
-0.50
-0.52
-0.73
-1.01
-1.24
-1.37
-1.36
-1.20
-0.84
-0.31
0.38
1.16
1.96
2.72
3.40
3.97
4.37
4.58
4.60
4.50
4.33
4.18
4.06
3.97
3.93
3.95
4.11
4.44
4.89
5.28
5.39
5.03
4.18
2.91
1.38
-0.31
-2.14
-4.18
-6.41
-8.73
-10.89
-12.59
-13.62
-13.92
-13.54
-12.58
-11.10
-9.14
-6.78
-4.21
-1.72
0.34
1.69
2.26
2.21
1.93
1.86
2.35
3.52
5.27
7.28
9.24
10.95
12.41
13.74
15.06
16.36
17.44
18.01
17.84
16.88
15.29
13.35
11.34
9.40
7.60
5.91
4.33
2.89
1.72
0.92
0.51
0.39
0.35
0.14
-0.44
-1.39
-2.52
-3.55
-4.16
-4.18
-3.62
-2.65
-1.53
-0.49
0.27
0.68
0.76
0.59
0.26
-0.17
-0.70
-1.41
-2.39
-3.65
-5.13
-6.61
-7.82
-8.53
-8.58
-7.98
-6.87
-5.43
-3.90
-2.51
-1.47
-0.92
-0.86
-1.18
-1.67
-2.10
-2.32
-2.31
-2.12
-1.79
-1.36
-0.80
-0.12
0.65
1.41
2.07
2.63
3.14
3.76
4.58
5.63
6.80
7.86
8.57
8.75
8.41
7.70
6.88
6.24
5.94
5.95
6.14
6.25
6.12
5.66
4.89
3.92
2.86
1.83
0.89
0.10
-0.54
-1.07
-1.58
-2.14
-2.82
-3.63
-4.56
-5.60
-6.72
-7.94
-9.23
-10.51
-11.66
-12.51
-12.88
-12.68
-11.89
-10.59
-8.98
-7.27
-5.65
-4.24
-3.05
-2.01
-1.03
-0.05
0.94
1.91
2.84
3.69
4.44
5.03
5.40
5.49
5.33
5.04
4.76
4.66
4.80
5.18
5.70
6.20
6.57
6.72
6.64
6.39
6.06
5.73
5.43
5.12
4.74
4.28
3.79
3.38
3.18
3.19
3.37
3.55
3.59
3.37
2.86
2.05
1.00
-0.19
-1.36
-2.36
-3.07
-3.45
-3.56
-3.51
-3.39
-3.30
-3.30
-3.42
-3.66
-3.99
-4.28
-4.42
-4.32
-3.97
-3.44
-2.85
-2.27
-1.75
-1.29
-0.89
-0.55
-0.26
0.02
0.34
0.77
1.29
1.85
2.32
2.62
2.72
2.69
2.64
2.65
2.72
2.84
2.97
3.08
3.16
3.21
3.20
3.14
2.97
2.72
2.40
2.08
1.83
1.68
1.59
1.47
1.23
0.78
0.09
-0.79
-1.83
-2.98
-4.24
-5.55
-6.86
-8.03
-8.97
-9.60
-9.97
-10.18
-10.32
-10.36
-10.20
-9.68
-8.78
-7.58
-6.30
-5.14
-4.19
-3.44
-2.78
-2.08
-1.31
-0.49
0.31
1.05
1.68
2.22
2.68
3.10
3.49
3.89
4.28
4.66
5.00
5.32
5.62
5.96
6.31
6.60
6.71
6.51
5.95
5.13
4.20
3.36
2.74
2.32
2.03
1.74
1.35
0.81
0.19
-0.48
-1.12
-1.68
-2.18
-2.63
-3.10
-3.66
-4.40
-5.36
-6.53
-7.84
-9.16
-10.35
-11.30
-11.91
-12.10
-11.81
-11.01
-9.72
-8.07
-6.22
-4.35
-2.62
-1.11
0.16
1.16
1.91
2.42
2.74
2.91
2.99
3.03
3.08
3.14
3.24
3.41
3.68
4.02
4.42
4.82
5.20
5.55
5.88
6.18
6.38
6.40
6.16
5.68
5.08
4.54
4.20
4.09
4.07
3.96
3.66
3.15
2.59
2.16
1.97
2.02
2.18
2.25
2.06
1.48
0.44
-1.06
-2.98
-5.20
-7.51
-9.67
-11.48
-12.86
-13.79
-14.34
-14.54
-14.37
-13.80
-12.81
-11.47
-9.96
-8.51
-7.26
-6.29
-5.50
-4.75
-3.91
-2.90
-1.75
-0.52
0.74
2.00
3.22
4.40
5.45
6.30
6.90
7.30
7.62
8.07
8.79
9.78
10.90
11.92
12.62
12.89
12.80
12.48
12.08
11.68
11.27
10.80
10.24
9.63
9.04
8.53
8.10
7.69
7.17
6.47
5.57
4.57
3.62
2.82
2.21
1.69
1.14
0.42
-0.44
-1.34
-2.12
-2.67
-3.02
-3.28
-3.60
-4.06
-4.69
-5.45
-6.30
-7.24
-8.26
-9.31
-10.24
-10.90
-11.18
-11.07
-10.64
-9.99
-9.18
-8.20
-7.05
-5.77
-4.44
-3.21
-2.19
-1.39
-0.77
-0.30
0.04
0.23
0.25
0.11
-0.08
-0.17
-0.04
0.35
0.93
1.55
2.08
2.43
2.63
2.79
3.02
3.41
3.91
4.40
4.73
4.80
4.59
4.17
3.63
3.03
2.40
1.75
1.13
0.58
0.14
-0.19
-0.46
-0.71
-1.00
-1.35
-1.77
-2.25
-2.80
-3.42
-4.09
-4.80
-5.55
-6.37
-7.28
-8.25
-9.16
-9.82
-10.03
-9.71
-8.91
-7.83
-6.63
-5.43
-4.20
-2.93
-1.57
-0.20
1.06
2.06
2.73
3.06
3.15
3.15
3.21
3.45
3.91
4.56
5.28
5.99
6.59
7.06
7.42
7.71
7.96
8.16
8.29
8.31
8.20
7.94
7.51
6.90
6.13
5.26
4.38
3.57
2.89
2.32
1.81
1.31
0.82
0.44
0.25
0.32
0.61
0.97
1.23
1.23
0.91
0.33
-0.41
-1.18
-1.91
-2.53
-3.06
-3.52
-3.98
-4.52
-5.23
-6.16
-7.27
-8.41
-9.34
-9.84
-9.82
-9.28
-8.37
-7.20
-5.85
-4.32
-2.62
-0.74
1.21
3.12
4.84
6.27
7.34
8.06
8.46
8.61
8.62
8.59
8.65
8.81
9.07
9.37
9.67
10.01
10.45
11.05
11.79
12.55
13.15
13.42
13.31
12.86
12.19
11.47
10.83
10.35
10.08
10.00
10.03
10.04
9.88
9.42
8.61
7.51
6.31
5.19
4.29
3.70
3.33
3.10
2.90
2.64
2.24
1.67
0.94
0.09
-0.81
-1.69
-2.46
-3.10
-3.62
-4.11
-4.70
-5.50
-6.55
-7.79
-9.01
-9.92
-10.22
-9.74
-8.46
-6.55
-4.25
-1.89
0.30
2.13
3.54
4.57
5.35
6.05
6.76
7.47
8.00
8.13
7.70
6.79
5.70
4.89
4.78
5.66
7.52
10.08
12.91
15.46
17.21
17.79
17.09
15.31
12.92
10.48
8.42
6.87
5.63
4.37
2.82
0.92
-1.08
-2.79
-3.88
-4.21
-3.89
-3.19
-2.40
-1.67
-1.06
-0.50
0.11
0.85
1.79
2.99
4.44
5.95
7.14
7.50
6.65
4.53
1.54
-1.59
-4.14
-5.65
-6.16
-6.04
-5.76
-5.65
-5.73
-5.83
-5.75
-5.42
-4.92
-4.42
-4.03
-3.71
-3.29
-2.52
-1.21
0.62
2.73
4.75
6.24
6.98
6.96
6.42
5.75
5.26
5.12
5.31
5.68
6.07
6.37
6.49
6.39
5.98
5.20
4.06
2.65
1.17
-0.17
-1.26
-2.11
-2.85
-3.59
-4.34
-4.97
-5.30
-5.22
-4.80
-4.32
-4.13
-4.46
-5.34
-6.61
-7.96
-9.13
-10.02
-10.69
-11.32
-12.05
-12.97
-14.04
-15.13
-16.03
-16.53
-16.40
-15.49
-13.68
-10.97
-7.49
-3.60
0.22
3.36
5.34
5.89
5.11
3.36
1.11
-1.24
-3.46
-5.48
-7.28
-8.80
-9.84
-10.22
-9.85
-8.83
-7.42
-5.90
-4.47
-3.20
-2.07
-1.08
-0.35
-0.05
-0.34
-1.23
-2.52
-3.86
-4.86
-5.29
-5.13
-4.59
-3.99
-3.58
-3.49
-3.77
-4.36
-5.21
-6.27
-7.47
-8.70
-9.80
-10.70
-11.42
-12.09
-12.86
-13.76
-14.69
-15.45
-15.84
-15.78
-15.36
-14.76
-14.11
-13.40
-12.45
-11.00
-8.86
-6.02
-2.68
0.84
4.27
7.45
10.45
13.45
16.66
20.11
23.60
26.71
28.95
29.97
29.72
28.45
26.65
24.78
23.16
21.80
20.51
18.95
16.94
14.48
11.83
9.31
7.21
5.66
4.55
3.65
2.71
1.55
0.11
-1.60
-3.48
-5.45
-7.46
-9.48
-11.53
-13.68
-15.99
-18.49
-21.23
-24.16
-27.23
-30.34
-33.32
-35.94
-37.92
-39.05
-39.27
-38.72
-37.68
-36.49
-35.32
-34.12
-32.61
-30.39
-27.21
-23.05
-18.28
-13.51
-9.43
-6.45
-4.55
-3.28
-1.85
0.47
4.10
9.00
14.72
20.58
25.96
30.46
33.90
36.31
37.74
38.30
38.05
37.12
35.63
33.77
31.77
29.81
28.06
26.59
25.40
24.41
23.50
22.49
21.26
19.70
17.78
15.57
13.21
10.94
8.95
7.38
6.19
5.23
4.26
3.10
1.66
-0.02
-1.85
-3.71
-5.46
-7.00
-8.22
-9.01
-9.32
-9.20
-8.70
-7.86
-6.57
-4.64
-1.84
1.84
6.21
10.78
15.03
18.49
20.90
22.31
22.94
23.10
23.12
23.26
23.70
24.60
25.97
27.77
29.76
31.59
32.80
32.91
31.61
28.78
24.62
19.51
14.00
8.63
3.83
-0.16
-3.36
-5.97
-8.31
-10.61
-12.90
-14.96
-16.46
-17.13
-16.99
-16.38
-15.87
-16.01
-17.08
-19.00
-21.34
-23.54
-25.02
-25.37
-24.44
-22.36
-19.50
-16.47
-13.88
-12.19
-11.55
-11.73
-12.26
-12.64
-12.50
-11.75
-10.52
-9.11
-7.80
-6.87
-6.42
-6.41
-6.59
-6.53
-5.73
-3.78
-0.49
3.90
8.80
13.40
16.86
18.60
18.43
16.62
13.76
10.56
7.64
5.37
3.86
2.97
2.50
2.25
2.06
1.84
1.49
0.90
-0.02
-1.32
-2.96
-4.84
-6.81
-8.76
-10.65
-12.44
-14.08
-15.43
-16.28
-16.46
-15.93
-14.87
-13.65
-12.73
-12.49
-13.12
-14.54
-16.44
-18.41
-20.04
-21.07
-21.38
-21.03
-20.15
-18.96
-17.60
-16.20
-14.82
-13.49
-12.24
-11.16
-10.35
-9.86
-9.63
-9.46
-9.06
-8.08
-6.31
-3.73
-0.57
2.82
6.02
8.73
10.76
12.09
12.74
12.83
12.48
11.91
11.31
10.83
10.46
10.09
9.47
8.45
7.02
5.43
4.02
3.09
2.72
2.77
2.92
2.84
2.37
1.49
0.34
-0.96
-2.36
-3.87
-5.46
-7.01
-8.34
-9.25
-9.70
-9.86
-10.02
-10.49
-11.39
-12.61
-13.86
-14.81
-15.31
-15.42
-15.40
-15.52
-15.99
-16.88
-18.13
-19.62
-21.26
-22.93
-24.47
-25.67
-26.28
-26.13
-25.18
-23.60
-21.70
-19.88
-18.43
-17.53
-17.12
-16.99
-16.82
-16.24
-14.90
-12.58
-9.25
-5.08
-0.40
4.45
9.23
13.78
18.00
21.73
24.69
26.58
27.23
26.73
25.50
24.13
23.22
23.15
24.02
25.65
27.67
29.58
30.84
30.92
29.45
26.40
22.10
17.16
12.31
8.12
4.90
2.64
1.20
0.44
0.38
1.08
2.63
4.92
7.65
10.35
12.63
14.33
15.58
16.68
17.86
19.26
20.87
22.73
24.91
27.28
29.13
29.09
25.54
17.34
4.70
-10.57
-25.52
-37.14
-43.41
-43.92
-39.59
-32.07
-22.94
-13.45
-4.57
2.72
7.40
8.67
6.35
1.20
-5.09
-10.45
-13.07
-12.16
-8.21
-2.83
1.87
4.15
3.28
-0.33
-5.46
-10.65
-14.90
-17.89
-19.91
-21.42
-22.74
-23.75
-24.02
-23.09
-20.70
-16.99
-12.42
-7.51
-2.68
1.87
6.09
9.92
13.17
15.59
16.98
17.42
17.18
16.72
16.42
16.35
16.29
15.77
14.37
11.88
8.39
4.27
0.00
-3.89
-6.99
-9.07
-10.11
-10.27
-9.92
-9.56
-9.65
-10.56
-12.45
-15.23
-18.52
-21.81
-24.57
-26.43
-27.26
-27.24
-26.69
-25.93
-25.14
-24.24
-23.06
-21.44
-19.42
-17.29
-15.42
-14.08
-13.20
-12.48
-11.49
-10.06
-8.36
-6.90
-6.31
-6.97
-8.86
-11.49
-14.11
-15.98
-16.52
-15.48
-12.93
-9.21
-4.75
-0.00
4.68
9.06
13.07
16.66
19.84
22.57
24.81
26.50
27.61
28.10
27.95
27.15
25.78
23.95
21.89
19.83
17.95
16.30
14.88
13.67
12.68
11.93
11.42
11.12
10.94
10.77
10.58
10.34
10.06
9.69
9.11
8.28
7.21
6.09
5.15
4.58
4.41
4.49
4.59
4.53
4.21
3.66
2.94
2.03
0.90
-0.53
-2.17
-3.82
-5.13
-5.85
-5.84
-5.23
-4.28
-3.27
-2.38
-1.61
-0.85
0.09
1.30
2.70
4.10
5.29
6.06
6.41
6.44
6.36
6.36
6.51
6.74
6.85
6.68
6.17
5.45
4.78
4.39
4.37
4.62
4.94
5.14
5.21
5.18
5.13
5.09
4.98
4.72
4.34
3.92
3.57
3.36
3.24
3.07
2.71
2.14
1.43
0.73
0.22
-0.07
-0.19
-0.27
-0.46
-0.84
-1.45
-2.21
-3.01
-3.72
-4.23
-4.48
-4.46
-4.22
-3.84
-3.45
-3.15
-3.07
-3.23
-3.56
-3.90
-4.08
-3.95
-3.48
-2.75
-1.96
-1.29
-0.86
-0.71
-0.72
-0.71
-0.48
0.09
0.95
1.91
2.65
2.92
2.60
1.82
0.85
-0.01
-0.59
-0.85
-0.91
-0.91
-0.94
-1.01
-1.08
-1.15
-1.21
-1.29
-1.33
-1.26
-0.97
-0.41
0.35
1.13
1.74
2.01
1.90
1.45
0.79
0.02
-0.79
-1.61
-2.46
-3.31
-4.12
-4.82
-5.36
-5.68
-5.81
-5.73
-5.43
-4.92
-4.20
-3.32
-2.38
-1.53
-0.92
-0.59
-0.49
-0.49
-0.43
-0.23
0.09
0.43
0.64
0.68
0.62
0.59
0.74
1.14
1.75
2.42
2.99
3.37
3.54
3.58
3.60
3.64
3.70
3.71
3.58
3.30
2.90
2.44
1.97
1.48
0.87
0.08
-0.92
-2.08
-3.30
-4.51
-5.64
-6.68
-7.61
-8.31
-8.64
-8.47
-7.74
-6.56
-5.13
-3.70
-2.47
-1.51
-0.78
-0.20
0.29
0.69
0.90
0.87
0.59
0.18
-0.20
-0.40
-0.39
-0.23
-0.07
0.02
0.03
0.06
0.22
0.59
1.15
1.81
2.44
2.95
3.28
3.41
3.31
2.95
2.36
1.54
0.57
-0.47
-1.50
-2.47
-3.29
-3.89
-4.19
-4.21
-4.09
-4.08
-4.44
-5.27
-6.44
-7.63
-8.44
-8.62
-8.17
-7.32
-6.34
-5.40
-4.48
-3.47
-2.30
-1.04
0.16
1.12
1.79
2.24
2.57
2.92
3.28
3.61
3.82
3.90
3.89
3.87
3.92
4.12
4.51
5.07
5.72
6.36
6.83
7.05
6.95
6.55
5.95
5.24
4.53
3.87
3.29
2.78
2.29
1.75
1.12
0.40
-0.39
-1.24
-2.18
-3.27
-4.56
-6.02
-7.54
-8.93
-10.01
-10.61
-10.66
-10.15
-9.09
-7.54
-5.57
-3.33
-1.03
1.11
2.89
4.17
4.88
5.06
4.81
4.34
3.83
3.47
3.31
3.34
3.47
3.60
3.73
3.91
4.18
4.53
4.83
4.91
4.66
4.08
3.30
2.52
1.88
1.44
1.14
0.85
0.50
0.02
-0.58
-1.31
-2.17
-3.18
-4.37
-5.69
-7.03
-8.24
-9.11
-9.50
-9.36
-8.72
-7.74
-6.54
-5.24
-3.87
-2.41
-0.84
0.80
2.40
3.77
4.77
5.35
5.62
5.71
5.78
5.93
6.18
6.51
6.84
7.17
7.48
7.79
8.08
8.34
8.53
8.62
8.52
8.17
7.52
6.56
5.34
3.94
2.54
1.27
0.22
-0.53
-0.99
-1.19
-1.18
-1.01
-0.83
-0.84
-1.27
-2.31
-3.98
-6.09
-8.29
-10.09
-11.12
-11.20
-10.41
-9.00
-7.31
-5.59
-3.97
-2.44
-0.96
0.50
1.87
3.02
3.84
4.27
4.44
4.47
4.56
4.78
5.13
5.54
5.92
6.29
6.64
7.06
7.62
8.39
9.39
10.53
11.61
12.37
12.55
12.05
11.00
9.67
8.37
7.34
6.64
6.21
5.95
5.82
5.79
5.84
5.89
5.85
5.60
5.08
4.32
3.38
2.37
1.37
0.41
-0.45
-1.19
-1.76
-2.17
-2.43
-2.66
-2.91
-3.24
-3.63
-4.06
-4.54
-5.18
-6.15
-7.57
-9.42
-11.52
-13.56
-15.18
-16.13
-16.35
-15.96
-15.16
-14.18
-13.14
-12.06
-10.90
-9.60
-8.14
-6.51
-4.77
-2.95
-1.08
0.75
2.44
3.84
4.80
5.27
5.30
5.07
4.81
4.69
4.76
4.99
5.31
5.68
6.09
6.52
6.92
7.18
7.27
7.16
6.94
6.68
6.42
6.14
5.79
5.35
4.91
4.60
4.61
5.06
5.91
7.04
8.22
9.23
9.86
10.04
9.74
9.02
7.98
6.74
5.40
4.07
2.85
1.82
1.02
0.40
-0.15
-0.79
-1.69
-2.92
-4.45
-6.16
-7.86
-9.34
-10.46
-11.13
-11.30
-10.99
-10.25
-9.19
-7.96
-6.72
-5.62
-4.68
-3.83
-2.92
-1.83
-0.54
0.84
2.12
3.15
3.79
4.03
3.93
3.63
3.34
3.30
3.70
4.64
6.05
7.71
9.38
10.86
12.03
12.88
13.46
13.78
13.82
13.55
12.97
12.11
11.03
9.86
8.68
7.62
6.81
6.33
6.18
6.27
6.43
6.49
6.36
6.04
5.62
5.18
4.73
4.23
3.62
2.88
2.08
1.35
0.76
0.33
-0.04
-0.50
-1.20
-2.29
-3.84
-5.87
-8.35
-11.13
-13.92
-16.34
-17.96
-18.49
-17.81
-16.07
-13.51
-10.47
-7.21
-3.94
-0.80
2.07
4.58
6.58
8.02
8.89
9.24
9.16
8.76
8.12
7.36
6.64
6.18
6.21
6.85
8.07
9.63
11.18
12.30
12.68
12.15
10.68
8.35
5.38
2.06
-1.25
-4.19
-6.56
-8.36
-9.78
-11.10
-12.48
-13.93
-15.32
-16.47
-17.27
-17.72
-17.79
-17.45
-16.61
-15.26
-13.53
-11.76
-10.36
-9.69
-9.89
-10.89
-12.47
-14.32
-16.17
-17.81
-19.04
-19.72
-19.80
-19.33
-18.53
-17.72
-17.26
-17.38
-18.03
-18.82
-19.06
-18.00
-15.22
-10.85
-5.62
-0.56
3.41
5.93
7.27
8.01
8.79
9.81
10.94
11.87
12.47
12.88
13.45
14.43
15.79
17.21
18.22
18.55
18.21
17.52
16.85
16.46
16.38
16.37
16.15
15.48
14.30
12.73
10.98
9.24
7.55
5.84
3.94
1.67
-0.95
-3.75
-6.40
-8.55
-9.97
-10.64
-10.69
-10.36
-9.88
-9.35
-8.77
-8.12
-7.32
-6.42
-5.47
-4.58
-3.82
-3.25
-2.84
-2.50
-2.15
-1.64
-0.85
0.24
1.50
2.69
3.53
3.85
3.71
3.37
3.18
3.39
4.05
4.96
5.81
6.33
6.44
6.23
5.97
5.86
6.01
6.31
6.51
6.32
5.59
4.37
2.92
1.58
0.59
-0.01
-0.46
-1.11
-2.23
-3.90
-5.95
-8.02
-9.75
-10.92
-11.45
-11.41
-10.85
-9.85
-8.47
-6.81
-5.00
-3.17
-1.42
0.27
2.00
3.86
5.90
8.00
9.90
11.20
11.57
10.84
9.13
6.85
4.56
2.80
1.95
2.14
3.23
4.91
6.80
8.56
9.95
10.87
11.36
11.54
11.56
11.49
11.31
10.95
10.28
9.24
7.86
6.23
4.40
2.44
0.33
-1.90
-4.18
-6.37
-8.34
-10.04
-11.48
-12.78
-14.04
-15.26
-16.30
-16.93
-16.91
-16.13
-14.68
-12.81
-10.83
-8.96
-7.24
-5.61
-3.97
-2.32
-0.83
0.23
0.67
0.49
-0.08
-0.73
-1.15
-1.22
-1.05
-0.84
-0.84
-1.20
-1.91
-2.89
-4.00
-5.12
-6.14
-6.95
-7.44
-7.49
-6.95
-5.77
-3.98
-1.75
0.66
3.01
5.11
