1679992499.00
64.000000
-0.00
-0.00
-0.00
-0.00
-0.00
-0.00
-0.00
-0.00
-0.00
-0.00
0.00
0.01
0.01
-0.00
-0.03
-0.05
-0.05
0.00
0.13
0.36
0.66
1.01
1.37
1.72
2.06
2.40
2.79
3.24
3.80
4.42
5.06
5.66
6.20
6.68
7.15
7.68
8.31
9.14
10.09
11.04
11.88
12.56
13.14
13.76
14.65
15.96
17.91
20.32
22.90
25.38
27.58
29.57
31.68
34.32
37.81
42.54
48.15
54.10
59.83
64.97
69.58
74.14
79.34
85.71
93.76
103.00
112.62
121.73
129.77
136.75
143.30
150.75
157.77
166.64
177.95
191.79
206.97
220.57
228.25
225.36
208.53
176.87
132.76
80.05
23.07
-34.94
-92.44
-149.16
-205.23
-260.37
-313.74
-363.87
-409.83
-450.91
-486.50
-515.74
-537.23
-549.22
-549.96
-538.37
-514.21
-478.67
-433.88
-382.45
-327.02
-269.84
-212.63
-156.66
-102.95
-52.37
-5.90
35.58
71.43
101.35
125.50
144.38
158.69
169.15
176.37
180.75
182.57
182.07
179.51
175.23
169.65
163.18
156.15
148.81
141.30
133.69
126.02
118.33
110.69
103.16
95.80
88.68
81.83
75.25
68.95
62.95
57.25
51.86
46.78
42.03
37.59
33.45
29.61
26.07
22.81
19.83
17.11
14.67
12.48
10.54
8.83
7.35
6.07
4.97
4.05
3.27
2.62
2.09
1.65
1.30
1.01
0.79
0.61
0.48
0.37
0.29
0.22
0.18
0.14
0.11
0.09
0.08
0.07
0.06
0.06
0.06
0.07
0.08
0.10
0.12
0.14
0.17
0.21
0.24
0.28
0.33
0.37
0.41
0.46
0.51
0.56
0.61
0.67
0.72
0.79
0.86
0.93
1.01
1.10
1.20
1.31
1.43
1.56
1.71
1.88
2.06
2.26
2.48
2.73
3.00
3.30
3.64
4.00
4.41
4.85
5.33
5.85
6.40
7.01
7.65
8.34
9.06
9.83
10.64
11.49
12.38
13.31
14.30
15.34
16.43
17.56
18.73
19.88
20.97
21.92
22.62
22.97
22.85
22.14
20.76
18.67
15.88
12.44
8.44
4.04
-0.57
-5.17
-9.58
-13.61
-17.09
-19.95
-22.11
-23.58
-24.38
-24.67
-24.60
-24.28
-23.71
-22.88
-21.79
-20.41
-18.72
-16.69
-14.40
-11.88
-9.11
-6.01
-2.51
1.39
5.65
10.17
14.82
19.16
22.80
25.60
27.55
28.81
29.49
29.73
29.69
29.61
28.94
27.37
25.06
22.60
20.68
19.81
20.29
22.28
25.94
29.78
32.76
34.80
36.74
39.65
44.27
50.93
59.65
70.37
80.51
88.03
92.44
94.49
95.16
94.78
92.79
87.65
79.99
66.44
44.15
12.58
-27.00
-72.53
-122.15
-174.51
-228.64
-266.68
-277.66
-261.70
-228.37
-189.20
-151.53
-117.99
-88.57
-62.29
-38.06
-17.93
-3.43
6.30
13.31
19.81
27.55
37.63
50.61
66.85
84.44
98.56
111.49
125.72
142.61
162.76
185.71
210.23
234.75
256.26
272.36
282.70
287.74
287.60
283.11
274.84
262.99
247.53
227.45
201.38
167.93
132.68
98.43
67.55
41.12
19.07
0.53
-15.96
-31.63
-46.61
-60.27
-72.77
-83.11
-91.10
-97.59
-103.94
-111.72
-122.18
-135.65
-151.64
-170.56
-190.12
-209.51
-229.19
-250.19
-274.36
-304.64
-344.31
-395.11
-457.48
-521.88
-576.22
-607.02
-601.98
-554.99
-469.93
-360.82
-247.49
-152.91
-87.20
-56.49
-61.32
-95.71
-150.31
-214.86
-279.51
-334.95
-377.39
-396.63
-392.12
-369.52
-333.87
-287.44
-229.27
-157.68
-45.71
66.96
179.52
296.15
403.99
487.47
539.87
566.92
578.17
580.33
570.88
554.26
530.51
499.79
467.64
437.61
411.19
385.35
355.71
315.79
269.05
217.85
164.80
114.37
69.72
38.27
20.70
13.85
10.90
10.32
9.92
8.52
7.33
8.34
13.11
19.48
24.97
27.38
28.64
30.54
34.02
39.49
46.58
54.36
58.39
55.35
44.11
27.14
7.65
-11.88
-30.14
-47.04
-63.32
-84.43
-114.16
-152.30
-194.24
-233.43
-264.45
-284.72
-294.54
-296.35
-298.81
-308.97
-329.52
-358.45
-391.91
-427.25
-464.04
-503.12
-513.66
-477.78
-397.03
-292.29
-188.15
-99.79
-31.38
19.01
55.50
81.73
95.76
96.56
86.22
70.12
54.20
42.70
36.82
35.96
38.03
36.82
27.81
10.32
-11.85
-32.46
-44.52
-45.84
-34.52
-13.05
10.85
29.67
39.76
42.54
42.89
48.10
62.53
86.79
117.72
150.05
179.45
203.26
220.09
228.64
230.78
229.44
229.58
236.60
253.84
280.84
313.19
345.25
365.29
371.93
369.89
366.97
368.70
374.84
379.57
374.51
353.08
301.48
220.62
121.81
21.22
-69.05
-144.86
-207.34
-258.75
-300.13
-331.57
-350.23
-355.75
-350.87
-340.50
-329.99
-322.51
-318.27
-315.12
-309.90
-297.78
-276.22
-246.51
-210.13
-169.82
-127.89
-85.55
-43.11
-0.56
43.05
84.46
121.21
151.16
172.53
184.81
188.76
186.02
178.50
168.51
157.65
147.07
137.15
127.60
118.09
108.55
99.05
89.71
80.78
72.34
64.70
57.92
51.83
46.18
40.87
35.79
30.88
26.09
21.43
17.10
13.29
10.02
7.27
5.02
3.17
1.60
0.22
-1.05
-2.15
-2.99
-3.57
-3.83
-3.75
-3.35
-2.79
-2.11
-1.39
-0.65
0.17
1.13
2.35
3.90
6.16
8.66
11.17
13.50
15.54
17.38
19.16
21.14
23.39
25.75
27.69
28.54
27.66
24.64
19.87
13.56
6.39
-1.02
-8.34
-15.76
-23.63
-32.18
-41.19
-49.97
-56.72
-59.79
-58.10
-51.60
-41.24
-28.84
-16.09
-4.31
6.13
15.64
24.87
34.44
44.84
56.33
68.93
81.63
91.82
95.81
90.09
73.33
47.75
18.99
-6.04
-21.69
-25.75
-20.34
-10.23
-0.04
7.67
12.67
15.76
17.08
16.14
11.79
3.45
-8.22
-21.28
-33.50
-43.01
-48.53
-51.32
-53.03
-55.09
-58.20
-61.95
-65.03
-66.09
-64.28
-59.98
-54.62
-49.87
-47.09
-46.74
-48.17
-49.92
-50.47
-48.93
-45.58
-41.76
-39.05
-38.65
-40.79
-44.57
-48.37
-51.16
-51.81
-50.63
-48.86
-47.85
-48.77
-52.39
-59.12
-68.70
-79.65
-88.77
-91.79
-84.66
-65.62
-36.68
-3.46
26.85
48.41
58.97
60.23
56.10
50.36
45.01
40.02
34.42
27.78
20.77
14.81
11.03
9.37
8.68
7.32
3.86
-2.09
-9.82
-17.96
-25.02
-30.03
-32.94
-34.52
-35.93
-38.16
-41.57
-45.67
-49.26
-50.84
-49.02
-43.27
-34.02
-22.64
-10.73
0.23
9.48
17.16
24.12
31.53
39.89
48.74
56.67
61.97
63.52
61.65
58.08
55.46
56.45
62.19
72.15
84.80
98.81
113.69
129.38
144.96
156.08
158.57
148.47
124.57
89.77
50.23
12.57
-18.97
-43.60
-62.22
-74.44
-77.04
-65.19
-36.74
4.40
47.67
79.73
90.53
78.33
50.79
19.96
-1.48
-7.89
-1.79
9.55
19.38
25.17
28.63
33.09
40.11
48.03
52.61
49.64
37.55
18.12
-4.36
-25.22
-41.49
-53.06
-62.19
-72.29
-85.16
-102.05
-122.28
-143.62
-162.76
-175.67
-178.24
-167.50
-143.23
-108.78
-70.56
-35.81
-9.98
5.00
10.88
11.41
10.03
8.30
5.95
1.99
-3.80
-10.14
-15.19
-17.71
-17.85
-17.01
-17.07
-19.57
-24.84
-31.95
-39.24
-45.14
-48.75
-50.10
-49.92
-49.19
-48.53
-47.92
-46.68
-43.85
-38.76
-31.12
-21.34
-10.41
0.48
10.33
18.52
24.95
29.82
33.43
36.04
37.74
38.53
38.38
37.35
35.66
33.59
31.46
29.52
27.89
26.60
25.56
24.68
23.83
22.87
21.70
20.22
18.37
16.11
13.52
10.69
7.67
4.47
1.04
-2.72
-6.91
-11.56
-16.58
-21.65
-26.41
-30.62
-34.18
-37.23
-40.03
-42.90
-46.03
-49.39
-52.51
-54.86
-56.09
-56.14
-55.31
-54.13
-53.17
-52.71
-52.62
-52.06
-50.07
-45.84
-39.03
-29.77
-18.39
-5.13
10.28
26.54
43.59
61.80
81.86
104.63
130.89
160.67
192.52
223.07
247.60
261.75
262.82
251.06
229.47
202.63
174.85
148.91
125.77
105.24
87.16
71.56
58.61
48.16
39.57
31.81
23.97
15.74
7.42
-0.07
-5.71
-8.80
-9.17
-7.29
-4.16
-1.00
1.20
1.98
1.61
0.70
-0.21
-0.98
-1.86
-3.27
-5.50
-8.65
-12.77
-18.00
-24.79
-33.56
-44.36
-56.59
-69.06
-80.39
-89.40
-95.40
-98.04
-97.12
-92.43
-84.00
-72.34
-58.73
-45.00
-32.98
-23.63
-16.58
-10.25
-2.60
8.07
22.50
40.47
61.18
83.66
106.95
129.76
150.09
165.14
171.76
167.48
151.32
124.03
87.46
43.64
-5.62
-58.35
-111.29
-159.18
-195.05
-212.01
-205.88
-177.20
-131.45
-77.05
-22.22
27.71
70.96
108.10
139.79
165.12
181.77
187.51
182.01
167.60
148.19
127.17
105.58
81.55
51.74
13.50
-33.24
-85.69
-139.25
-189.12
-231.76
-265.37
-289.85
-306.36
-316.87
-323.84
-329.60
-335.60
-341.67
-345.98
-345.79
-338.61
-323.13
-299.45
-268.39
-230.65
-186.59
-136.99
-84.11
-32.16
13.34
47.40
67.52
75.12
75.21
74.75
80.20
95.38
120.44
152.03
184.43
211.15
226.30
225.57
206.57
168.86
114.02
46.00
-28.63
-100.96
-160.95
-199.74
-212.18
-198.18
-162.40
-112.39
-56.09
0.20
52.52
98.78
137.85
169.02
192.02
207.36
216.26
220.25
220.45
217.10
209.78
198.02
182.14
163.66
145.09
129.02
117.20
109.80
105.38
101.57
96.03
87.61
76.75
65.23
55.19
48.07
43.88
41.40
38.90
35.12
29.84
23.76
17.93
13.00
8.92
5.14
1.15
-3.09
-7.05
-10.07
-11.87
-12.75
-13.45
-14.60
-16.33
-18.27
-19.88
-20.93
-21.67
-22.71
-24.52
-27.10
-29.89
-32.07
-32.95
-32.32
-30.50
-28.15
-25.91
-24.07
-22.49
-20.68
-18.09
-14.59
-10.67
-7.35
-5.78
-6.59
-9.54
-13.52
-16.96
-18.51
-17.43
-13.80
-8.39
-2.43
2.70
5.80
6.25
4.23
0.77
-2.66
-4.78
-5.07
-3.95
-2.49
-1.85
-2.69
-5.03
-8.26
-11.35
-13.26
-13.11
-10.62
-6.23
-1.13
3.16
5.37
4.96
2.21
-2.04
-6.79
-11.13
-14.25
-15.45
-14.24
-10.77
-6.08
-1.94
-0.01
-0.88
-3.51
-5.60
-4.85
-0.30
7.08
14.90
20.64
22.93
21.98
19.17
16.12
13.96
13.20
14.03
16.61
20.98
26.75
32.86
37.97
41.31
43.54
46.85
54.09
67.20
85.92
107.53
127.95
143.43
152.05
154.09
151.25
145.35
137.33
127.17
114.53
99.71
83.98
69.10
56.38
45.90
36.46
26.47
14.94
2.07
-10.98
-23.12
-34.30
-45.87
-59.68
-76.62
-95.33
-112.13
-122.46
-123.33
-115.15
-101.95
-89.54
-82.56
-82.12
-85.48
-88.02
-86.40
-80.69
-74.31
-71.62
-74.73
-81.87
-88.39
-89.77
-84.81
-76.57
-70.58
-71.45
-80.03
-93.00
-105.04
-111.92
-112.52
-108.80
-103.98
-100.41
-98.59
-97.63
-96.46
-94.69
-92.60
-90.50
-88.04
-84.48
-79.43
-73.63
-69.17
-68.38
-72.49
-80.50
-88.95
-93.03
-88.46
-73.37
-49.24
-20.32
8.38
33.03
51.90
65.07
73.10
75.92
72.26
60.03
36.80
1.33
-45.33
-99.11
-152.81
-197.16
-222.78
-223.11
-196.95
-150.61
-96.06
-47.97
-19.54
-18.85
-46.84
-97.58
-159.81
-220.06
-267.27
-294.27
-298.33
-280.25
-242.75
-189.60
-126.07
-59.71
-0.25
40.47
53.57
36.63
-4.87
-59.58
-114.88
-161.70
-196.88
-211.34
-200.41
-162.36
-99.26
-17.49
73.61
164.46
247.22
317.10
372.31
411.71
435.91
447.00
448.12
442.36
433.29
423.30
413.63
404.78
395.62
384.90
371.95
356.84
340.30
323.28
306.35
289.62
272.67
255.44
237.40
218.24
198.14
177.71
157.73
138.78
121.14
104.93
88.95
71.93
53.15
32.67
11.19
-10.37
-31.33
-51.31
-70.16
-89.65
-111.38
-135.99
-162.84
-190.35
-216.76
-240.81
-261.98
-280.31
-298.78
-319.97
-344.98
-372.96
-401.53
-428.03
-450.61
-468.35
-481.07
-492.36
-505.27
-520.87
-537.76
-552.56
-561.55
-562.14
-553.08
-512.86
-429.86
-304.22
-149.87
11.28
159.21
282.15
376.57
444.63
490.93
517.04
524.48
516.04
495.59
467.85
437.75
409.19
384.97
366.57
351.42
336.13
317.61
294.17
265.71
235.37
206.16
180.76
160.80
144.96
130.95
116.41
99.88
81.17
60.63
38.38
14.91
-7.51
-24.82
-30.75
-19.24
12.15
59.58
113.04
159.55
188.71
196.83
187.42
168.61
148.50
131.52
117.50
103.49
86.39
65.25
41.54
17.92
-3.64
-22.75
-40.77
-60.11
-83.15
-111.14
-144.05
-181.16
-221.63
-265.10
-311.02
-357.38
-399.46
-430.57
-444.92
-441.15
-424.26
-404.24
-391.54
-392.01
-404.19
-420.69
-432.70
-434.66
-426.47
-412.01
-395.62
-379.10
-361.06
-338.85
-311.09
-278.90
-245.24
-212.53
-181.05
-148.68
-112.23
-69.18
-19.18
35.27
89.95
140.41
183.96
220.80
253.86
288.20
328.73
377.91
433.86
489.81
535.53
560.54
557.80
525.61
469.00
398.53
327.15
266.22
222.29
195.83
182.87
177.90
175.42
172.17
167.71
163.60
161.88
163.81
169.65
178.67
189.44
197.65
198.10
186.78
162.94
128.84
88.18
44.61
-0.05
-45.96
-97.35
-159.23
-233.81
-318.37
-406.09
-488.69
-558.81
-612.21
-632.74
-612.05
-555.34
-479.40
-402.00
-332.99
-273.77
-221.99
-175.73
-136.26
-102.31
-71.97
-41.46
-5.55
40.05
96.92
164.14
232.33
292.43
336.42
360.01
364.24
354.32
336.46
315.23
292.70
269.02
244.78
220.19
195.47
171.48
149.82
131.72
117.30
105.60
95.11
85.29
75.89
66.75
57.92
49.93
43.18
37.71
33.22
29.32
26.17
23.95
22.55
21.44
20.35
18.98
17.24
15.23
13.29
12.01
11.70
13.44
15.30
16.00
14.85
12.03
8.48
5.71
5.22
7.79
13.08
19.53
25.76
30.71
34.40
37.65
42.07
49.41
61.10
77.89
99.19
122.98
145.33
161.05
164.90
154.36
131.11
100.80
70.98
47.78
34.40
29.92
31.10
34.18
37.37
40.90
45.62
51.26
55.31
54.25
44.04
26.39
2.97
-23.82
-51.26
-76.61
-97.02
-109.97
-112.55
-104.13
-86.53
-64.53
-43.54
-27.32
-16.79
-10.53
-7.58
-5.66
-5.72
-9.40
-17.80
-30.06
-43.07
-53.46
-59.71
-65.30
-70.22
-77.13
-86.60
-97.44
-108.03
-116.75
-123.69
-131.28
-147.18
-170.97
-205.96
-253.21
-311.44
-377.58
-444.46
-502.47
-542.40
-563.07
-557.44
-529.96
-487.69
-437.42
-384.18
-327.26
-263.02
-158.61
-57.85
40.01
125.30
189.86
242.21
285.29
322.06
355.50
387.15
410.27
427.71
433.29
426.66
409.79
384.16
352.21
314.89
270.35
214.55
160.22
115.21
84.95
70.46
68.32
75.44
89.64
109.41
121.48
130.57
137.57
140.53
137.57
127.54
111.32
89.36
68.98
50.72
37.48
28.10
17.13
0.49
-22.72
-49.53
-75.77
-98.59
-118.57
-135.26
-150.65
-172.17
-205.51
-251.99
-308.32
-369.75
-432.92
-497.58
-563.61
-595.88
-573.05
-495.95
-387.11
-273.40
-172.03
-89.10
-24.62
24.68
62.48
87.01
97.69
96.94
90.33
83.52
79.70
79.11
80.80
83.35
81.09
70.01
50.50
28.27
11.85
8.96
23.29
53.33
92.72
129.90
155.00
163.86
158.95
146.55
132.75
120.91
111.48
103.38
94.40
83.83
72.69
62.84
55.34
49.79
44.77
38.69
30.96
21.62
11.64
2.31
-5.39
-11.26
-16.05
-20.93
-26.91
-34.28
-42.53
-50.57
-57.28
-61.88
-64.20
-64.43
-63.01
-60.21
-56.05
-50.46
-43.15
-33.69
-22.21
-9.31
4.08
16.93
28.34
37.75
44.89
49.84
52.81
54.06
53.88
52.56
50.39
47.66
44.62
41.49
38.43
35.50
32.70
29.96
27.23
24.44
21.51
18.39
15.02
11.36
7.39
3.12
-1.42
-6.18
-11.10
-16.12
-21.18
-26.19
-31.11
-35.94
-40.55
-44.88
-48.97
-52.86
-56.68
-60.56
-64.66
-69.16
-74.24
-79.78
-85.69
-91.89
-98.26
-104.70
-111.09
-117.35
-123.44
-129.37
-134.83
-139.56
-143.37
-146.03
-147.31
-146.89
-144.32
-138.95
-132.32
-125.04
-117.52
-110.03
-102.77
-95.91
-89.63
-84.11
-79.54
-76.07
-73.46
-71.49
-69.88
-68.40
-66.83
-65.04
-62.97
-60.64
-58.14
-55.27
-51.90
-47.87
-43.07
-37.48
-31.20
-24.46
-17.54
-10.68
-3.77
3.52
11.64
21.03
31.95
44.33
57.80
71.87
86.14
100.59
115.52
131.36
148.37
166.46
185.06
203.33
220.53
236.37
251.19
265.75
280.95
297.47
315.71
336.04
358.97
385.06
414.38
445.75
476.18
501.26
516.36
518.26
506.25
482.15
449.05
409.76
365.91
318.18
267.47
215.82
166.29
121.86
84.06
52.65
26.77
6.80
-4.57
-3.32
13.11
42.85
78.66
110.04
127.50
126.70
109.82
84.00
57.18
34.31
15.72
-1.74
-22.52
-49.89
-84.75
-125.35
-167.25
-203.41
-224.76
-222.14
-189.66
-128.17
-46.66
39.73
114.54
165.71
189.16
188.78
173.10
150.80
127.72
106.25
86.89
70.10
57.18
49.51
47.34
48.99
51.11
50.36
45.00
35.69
25.03
16.29
11.79
12.00
15.53
19.75
22.12
21.20
17.08
11.23
5.54
1.45
-0.53
-0.88
-0.68
-1.03
-2.51
-4.98
-7.79
-10.60
-13.49
-17.04
-22.13
-29.78
-40.89
-55.98
-75.12
-97.77
-124.04
-153.60
-185.34
-217.23
-246.59
-270.83
-288.07
-297.39
-298.79
-295.29
-290.36
-286.54
-284.66
-284.04
-283.50
-282.40
-280.87
-279.60
-283.13
-295.89
-320.16
-354.99
-396.80
-441.40
-485.65
-528.08
-568.36
-611.15
-661.04
-719.53
-783.75
-847.39
-903.57
-947.34
-976.50
-958.72
-872.73
-714.06
-499.50
-260.98
-30.90
168.03
324.41
435.22
499.98
526.00
522.79
501.90
475.70
454.33
442.19
437.94
437.29
435.76
427.79
408.52
374.83
326.75
269.86
215.17
176.37
164.65
183.30
223.91
269.45
302.73
309.15
285.57
241.26
191.70
148.57
113.91
83.40
53.05
25.17
7.83
9.56
32.87
71.66
112.92
142.84
153.71
145.19
123.54
97.09
72.07
50.45
31.22
14.95
-2.35
-21.74
-43.50
-66.27
-88.74
-110.72
-132.68
-153.47
-172.00
-187.84
-200.31
-211.46
-221.32
-229.28
-235.62
-240.23
-240.24
-232.98
-217.28
-192.78
-163.00
-132.04
-100.90
-70.57
-40.47
-6.42
35.06
84.96
141.62
197.09
248.66
296.61
341.11
357.80
330.31
256.69
151.48
64.27
1.94
-37.99
-57.03
-69.11
-78.84
-84.85
-85.29
-80.00
-71.14
-66.53
-68.14
-74.50
-84.07
-93.96
-99.86
-98.89
-90.37
-76.00
-62.24
-51.22
-41.34
-31.39
-19.88
-5.42
12.29
32.70
54.44
73.70
89.57
106.05
126.00
150.56
178.68
208.03
236.58
262.94
285.28
303.50
323.88
350.67
384.37
421.41
456.89
487.34
511.49
529.30
541.90
558.17
584.11
620.23
661.27
700.05
731.43
753.36
766.04
723.70
604.96
419.01
202.31
-5.00
-178.47
-311.49
-408.05
-475.81
-522.42
-546.68
-548.39
-531.34
-503.64
-474.20
-449.08
-430.61
-418.40
-410.89
-400.64
-382.58
-356.36
-326.16
-297.56
-274.34
-257.43
-245.68
-237.06
-226.02
-208.94
-185.64
-159.18
-133.31
-110.83
-92.58
-78.00
-65.99
-53.90
-39.98
-23.99
-7.16
8.53
20.70
26.87
24.76
13.14
-6.60
-31.02
-55.56
-76.27
-90.95
-99.71
-104.37
-107.17
-109.74
-112.51
-115.14
-117.31
-119.27
-121.70
-125.21
-129.69
-134.17
-137.60
-139.76
-141.33
-143.66
-147.64
-152.69
-156.38
-155.01
-144.74
-123.59
-92.40
-54.87
-16.58
16.62
40.44
53.28
56.89
56.75
59.91
72.79
98.62
135.61
177.24
214.49
239.36
247.79
241.96
228.04
213.42
203.78
201.46
205.71
214.33
224.94
235.51
245.65
254.74
261.97
266.69
269.04
270.46
273.74
281.86
287.66
284.73
267.59
234.27
187.25
131.66
73.11
16.72
-33.52
-74.70
-103.27
-116.73
-114.32
-98.25
-73.42
-49.07
-34.95
-38.23
-61.08
-98.76
-142.27
-182.14
-209.69
-221.53
-220.10
-210.76
-198.63
-186.43
-173.88
-159.89
-144.17
-127.76
-112.83
-101.24
-93.28
-87.85
-83.07
-77.21
-69.58
-60.63
-51.48
-43.53
-37.71
-33.94
-31.41
-29.11
-26.30
-22.79
-18.88
-15.01
-11.61
-8.91
-6.78
-5.06
-3.66
-2.73
-2.39
-2.56
-2.78
-2.51
-1.35
0.71
3.05
4.69
4.73
2.86
-0.28
-3.33
-4.77
-3.84
-0.82
2.92
5.62
6.06
4.02
0.23
-4.42
-9.22
-13.56
-16.09
-14.48
-6.32
9.13
29.21
47.98
58.57
56.55
42.19
20.44
-1.73
-19.00
-29.77
-35.67
-39.14
-41.03
-39.90
-33.58
-21.19
-4.24
13.89
29.61
40.59
46.20
46.81
43.15
36.03
26.44
15.76
5.61
-2.51
-7.23
-7.15
-0.50
14.46
37.90
66.77
94.24
111.45
111.13
91.51
58.08
22.00
-4.62
-14.05
-5.97
12.97
32.94
45.75
48.06
41.65
31.33
21.93
15.82
12.85
11.56
10.85
10.94
13.21
19.11
28.95
41.48
53.99
63.99
70.27
73.26
74.50
75.49
76.50
76.16
73.75
67.96
58.38
45.93
32.62
20.72
12.05
7.15
5.01
3.29
-1.00
-9.95
-23.82
-40.49
-56.10
-66.48
-69.08
-64.21
-54.99
-46.01
-40.89
-40.90
-44.81
-49.76
-52.63
-50.84
-42.69
-27.44
-5.73
20.13
45.79
65.48
73.71
67.51
47.98
19.95
-9.92
-36.09
-55.67
-68.40
-75.00
-75.67
-69.70
-56.88
-39.35
-22.08
-11.17
-10.54
-18.98
-29.38
-30.98
-13.88
26.40
86.64
156.81
223.61
275.03
303.94
309.21
294.66
266.39
230.21
189.87
147.15
102.80
57.83
14.14
-26.12
-62.19
-96.16
-132.51
-175.41
-225.38
-277.44
-322.19
-349.62
-353.54
-333.95
-296.24
-248.02
-195.97
-144.54
-96.86
-56.48
-28.09
-16.30
-23.36
-47.59
-84.00
-126.75
-171.77
-217.39
-262.97
-306.59
-343.97
-369.24
-377.30
-366.68
-341.30
-310.37
-285.83
-278.55
-294.30
-331.20
-379.83
-426.19
-456.40
-461.27
-438.77
-393.51
-333.78
-267.83
-201.14
-135.97
-72.49
-10.57
49.62
107.74
164.42
221.77
282.45
347.62
414.82
477.68
527.74
557.98
566.10
555.47
533.22
506.43
478.47
447.52
408.58
357.63
295.41
228.84
169.15
127.80
112.24
123.30
155.21
198.23
241.96
278.09
302.21
314.12
316.92
315.14
312.77
310.73
306.61
295.80
273.82
238.55
191.61
137.44
81.25
26.32
-28.08
-84.74
-145.50
-209.41
-273.27
-333.07
-386.32
-431.60
-467.80
-495.17
-512.59
-516.68
-502.94
-468.66
-413.57
-340.70
-253.62
-156.02
-55.55
39.05
120.26
182.73
222.62
238.66
230.76
202.52
160.02
105.41
40.36
-31.27
-103.11
-169.08
-223.86
-266.00
-294.24
-281.82
-215.51
-108.10
7.30
101.24
154.49
178.07
183.10
177.74
166.02
146.81
117.43
79.05
37.54
0.21
-25.71
-37.69
-35.59
-21.85
-4.62
9.18
17.90
24.15
30.58
38.25
44.39
46.05
41.67
29.06
10.33
-7.79
-16.89
-11.37
10.89
47.43
93.42
149.11
203.20
240.47
253.85
249.19
236.50
221.60
204.62
183.79
156.11
117.86
69.73
18.08
-27.51
-58.54
-70.64
-65.41
-50.11
-35.20
-30.45
-39.40
-58.58
-80.87
-100.13
-113.70
-122.71
-130.84
-141.70
-157.20
-176.23
-196.76
-218.39
-242.64
-270.40
-299.26
-322.83
-333.25
-325.20
-299.44
-263.86
-230.47
-209.31
-203.30
-207.35
-212.10
-209.18
-193.40
-163.67
-121.32
-68.79
-7.75
59.12
125.66
181.03
212.96
214.62
186.67
136.80
75.52
15.76
-31.16
-58.25
-65.11
-56.34
-35.87
-7.73
23.68
51.68
68.72
71.51
64.17
55.49
49.04
50.01
63.94
91.67
128.44
171.45
219.05
271.49
327.57
368.99
383.15
369.32
361.67
368.44
393.16
425.89
463.56
501.21
530.97
547.09
545.33
523.74
480.03
418.76
347.23
273.99
205.05
145.79
105.09
91.91
110.54
154.17
210.35
262.69
297.34
306.09
289.35
256.00
217.35
181.34
148.49
116.92
84.25
50.43
16.81
-14.52
-41.38
-63.05
-80.63
-97.02
-113.87
-131.37
-148.16
-162.68
-173.81
-181.05
-184.86
-186.53
-188.03
-190.76
-195.46
-202.10
-210.28
-219.37
-228.68
-237.60
-245.84
-253.62
-261.67
-271.17
-283.37
-299.02
-317.96
-339.01
-360.43
-380.58
-398.72
-415.28
-431.74
-449.97
-471.78
-498.62
-531.25
-569.20
-609.87
-648.03
-676.08
-685.88
-671.42
-631.33
-569.89
-495.53
-417.76
-344.01
-277.64
-218.27
-163.63
-111.73
-61.98
-14.97
28.66
69.53
109.67
151.54
196.24
241.68
281.74
307.40
309.60
282.96
228.80
155.74
77.53
8.67
-40.12
-64.56
-66.76
-52.58
-28.23
1.98
36.06
73.08
111.55
149.08
183.45
214.44
244.48
277.43
315.59
356.98
394.53
418.29
419.39
394.11
345.45
281.62
212.21
144.05
79.33
16.52
-46.73
-110.61
-171.76
-224.35
-262.85
-284.64
-291.07
-286.53
-276.15
-263.58
-249.89
-233.98
-214.51
-191.16
-165.06
-137.96
-110.52
-81.19
-45.84
0.34
59.91
130.20
202.06
261.29
292.72
285.65
238.45
160.26
68.83
-14.76
-72.54
-95.17
-84.34
-51.78
-14.99
8.66
7.59
-20.52
-68.23
-121.53
-164.83
-186.32
-181.62
-154.08
-112.65
-68.11
-29.27
-0.61
18.22
30.92
43.10
60.49
87.56
126.36
175.33
228.40
275.42
304.42
305.72
276.33
222.54
158.98
103.88
72.32
70.76
95.11
133.04
168.95
189.52
187.20
161.25
116.64
61.18
3.10
-50.41
-93.87
-123.40
-136.22
-130.55
-106.14
-65.64
-16.38
30.58
64.21
78.55
76.52
69.95
74.84
103.82
159.91
233.48
306.02
358.80
380.75
371.54
339.90
298.09
255.91
218.15
184.02
150.25
115.50
81.98
53.72
34.15
24.01
16.94
10.34
4.86
1.45
0.88
4.42
12.56
25.12
40.90
57.85
73.45
86.12
94.42
98.93
101.82
102.99
102.18
99.55
94.99
87.09
77.89
66.94
54.24
40.50
21.76
-4.30
-36.01
-69.06
-99.55
-125.64
-147.66
-165.83
-179.89
-197.20
-222.07
-252.10
-280.53
-302.10
-315.45
-322.44
-325.62
-327.27
-339.38
-369.33
-414.97
-467.89
-521.12
-572.28
-622.34
-672.98
-661.43
-561.36
-399.37
-229.83
-89.18
14.19
86.66
137.62
175.09
204.75
220.23
218.00
202.78
184.56
170.92
164.17
163.22
166.06
171.18
170.21
158.71
139.52
119.87
105.02
95.95
91.04
88.24
86.30
80.26
67.99
51.81
36.50
25.15
17.85
13.06
8.98
4.18
-4.75
-19.43
-37.98
-55.35
-65.56
-63.93
-48.83
-22.78
8.18
35.64
53.11
58.58
54.56
45.65
35.89
27.23
19.42
11.46
2.87
-5.60
-12.54
-16.85
-18.48
-18.51
-18.24
-18.69
-19.81
-20.77
-20.02
-16.43
-9.45
0.37
11.75
23.31
33.93
43.29
51.68
59.80
68.19
77.06
85.93
93.95
100.21
103.99
105.01
103.26
99.03
92.49
83.84
72.93
59.64
44.00
26.21
6.82
-13.42
-33.54
-53.02
-70.47
-85.09
-96.30
-103.69
-107.13
-106.56
-102.11
-94.13
-83.28
-70.33
-56.36
-42.32
-29.12
-17.54
-8.16
-1.34
2.74
4.13
3.01
-0.39
-5.63
-12.23
-19.79
-27.99
-36.67
-45.76
-55.37
-65.73
-77.26
-90.04
-104.20
-119.83
-136.90
-155.28
-174.75
-195.03
-215.80
-236.84
-257.33
-276.57
-293.70
-307.81
-317.87
-322.72
-321.05
-311.05
-294.29
-271.28
-242.74
-209.50
-172.54
-132.89
-91.58
-49.68
-8.34
31.13
67.89
101.04
129.83
153.83
172.91
187.17
196.84
202.12
203.05
199.98
193.30
183.58
171.67
158.66
145.70
133.66
122.88
113.18
104.18
95.43
86.75
78.53
71.66
67.26
66.25
68.89
74.71
82.70
91.59
100.35
108.48
116.27
124.98
136.48
152.70
174.87
202.46
232.46
259.35
276.40
278.06
262.62
233.01
195.92
159.47
130.38
112.22
105.16
106.85
113.60
121.47
126.25
124.14
113.21
94.85
74.17
58.38
53.81
63.39
86.63
118.78
152.76
181.53
200.11
206.36
200.80
186.08
167.43
154.42
155.84
176.33
214.22
262.31
310.59
349.40
371.59
375.28
367.05
354.61
343.37
335.07
329.54
326.42
325.68
325.74
324.88
325.92
329.94
335.53
339.52
339.70
336.08
330.53
323.67
281.88
190.06
56.66
-89.54
-219.12
-316.86
-382.19
-417.99
-438.90
-454.75
-465.73
-471.21
-473.17
-477.60
-488.70
-509.48
-533.45
-553.72
-563.97
-558.25
-535.86
-500.28
-457.45
-413.09
-371.56
-335.20
-306.54
-285.99
-270.18
-255.39
-239.06
-220.91
-201.98
-184.05
-168.49
-157.20
-150.76
-147.86
-147.28
-148.30
-150.42
-151.86
-149.09
-137.34
-113.72
-78.42
-35.19
9.46
48.73
77.97
96.35
105.87
110.34
112.64
114.65
117.53
122.48
130.75
142.55
156.62
169.63
177.27
175.68
162.88
140.10
111.92
85.37
67.44
62.78
71.37
87.95
103.51
108.92
98.85
74.11
41.12
8.18
-17.88
-33.98
-40.97
-41.53
-38.20
-31.60
-21.00
-3.15
20.89
47.17
70.96
88.69
99.44
104.02
104.51
102.90
99.85
93.64
81.43
61.16
32.13
-4.70
-48.47
-98.64
-156.08
-218.66
-279.50
-332.56
-373.57
-402.05
-419.24
-426.69
-422.71
-402.57
-361.63
-299.67
-222.47
-139.19
-63.16
3.29
60.06
107.83
146.25
173.57
187.21
183.64
165.49
140.87
120.27
110.04
110.82
118.41
127.07
132.24
132.29
128.75
123.88
119.59
115.69
111.27
105.65
98.98
92.02
85.77
81.25
78.82
78.33
78.61
78.43
76.96
74.27
71.02
68.15
66.67
66.97
68.79
70.94
72.01
70.72
66.69
60.28
52.44
44.37
37.12
30.60
24.00
16.07
5.45
-8.31
-24.68
-42.28
-59.33
-74.52
-87.27
-97.99
-106.23
-113.79
-121.66
-130.32
-140.07
-150.77
-161.36
-169.17
-170.23
-160.58
-138.62
-106.11
-68.45
-32.92
-5.76
10.09
15.67
14.46
10.22
5.21
0.24
-4.50
-8.75
-11.73
-12.83
-12.12
-10.91
-11.04
-13.84
-19.27
-25.48
-30.08
-31.01
-27.93
-21.48
-13.28
-5.03
2.76
11.04
22.24
38.69
61.96
91.96
127.02
163.20
194.62
214.69
217.25
201.10
169.37
129.82
89.39
53.69
24.53
-0.17
-24.56
-52.35
-84.57
-119.10
-150.24
-172.47
-181.22
-175.20
-156.99
-132.18
-107.22
-87.06
-73.47
-65.21
-59.73
-54.64
-49.22
-44.29
-41.04
-39.00
-36.48
-31.55
-23.31
-12.68
-1.85
6.69
11.15
11.45
9.07
6.21
4.82
5.81
8.70
12.21
14.88
15.76
14.90
13.25
12.13
12.67
15.28
19.60
24.72
29.54
33.18
35.22
35.75
35.08
33.51
31.21
28.12
24.02
18.73
12.16
4.38
-4.29
-13.55
-23.19
-33.17
-43.58
-54.57
-66.35
-79.07
-92.84
-107.50
-122.86
-138.69
-154.76
-170.80
-186.55
-201.78
-216.26
-229.87
-242.29
-253.31
-262.77
-270.50
-276.29
-279.77
-280.35
-277.12
-270.57
-260.60
-247.04
-229.72
-208.60
-183.76
-155.46
-124.13
-90.37
-54.96
-18.52
18.15
54.20
88.64
120.45
148.53
171.88
189.65
201.20
206.49
205.81
199.82
189.44
175.77
159.93
142.95
125.69
108.77
92.71
77.76
63.99
51.33
39.65
28.77
18.44
8.40
-1.66
-11.96
-22.67
-33.81
-45.26
-56.70
-67.71
-77.87
-86.79
-94.23
-99.99
-103.92
-105.81
-105.37
-102.28
-96.29
-87.43
-76.06
-62.94
-49.01
-35.12
-21.75
-8.81
4.24
18.12
33.29
49.61
66.27
82.12
96.18
108.28
119.21
130.55
143.97
160.46
179.71
200.12
219.62
236.51
250.45
262.92
276.48
293.69
315.80
342.67
372.72
403.45
431.78
454.66
469.60
474.80
469.23
452.46
425.19
388.96
345.56
296.14
241.08
181.12
118.13
56.19
0.59
-42.63
-69.73
-81.48
-84.15
-87.09
-97.01
-115.36
-137.11
-155.46
-163.32
-157.91
-142.42
-125.66
-117.58
-121.81
-135.73
-151.56
-164.26
-168.56
-161.59
-142.55
-114.87
-84.45
-53.41
-22.44
9.45
37.92
63.45
89.80
123.43
167.38
221.30
288.51
371.97
473.62
583.79
693.97
796.25
886.46
960.07
980.00
920.76
771.81
597.53
435.17
306.31
199.76
110.83
34.43
-34.77
-96.10
-147.66
-186.88
-220.46
-251.10
-278.80
-299.66
-312.55
-318.72
-316.60
-305.01
-283.75
-261.14
-243.36
-234.36
-233.68
-240.42
-252.87
-265.93
-274.68
-276.04
-274.14
-273.18
-276.36
-283.65
-294.04
-305.72
-315.43
-320.67
-320.40
-317.15
-312.98
-308.74
-303.16
-294.49
-281.22
-262.27
-237.90
-209.79
-181.40
-156.05
-136.30
-122.90
-114.73
-108.53
-99.42
-82.36
-54.43
-16.54
26.04
65.35
93.92
107.92
108.88
102.84
97.37
98.04
105.85
117.20
125.86
126.06
115.11
94.25
67.95
41.98
21.32
8.88
4.87
7.08
11.54
13.28
7.25
-10.42
-41.20
-83.29
-131.89
-180.65
-223.74
-257.51
-280.89
-294.35
-298.46
-292.99
-277.11
-250.50
-214.30
-171.05
-123.77
-74.80
-25.31
24.06
72.06
116.12
152.61
178.23
191.48
193.53
187.68
178.22
168.86
161.64
156.84
153.59
150.64
147.09
142.70
137.71
132.55
127.52
122.77
118.43
114.88
112.78
112.71
114.82
118.39
121.94
123.83
122.99
119.47
114.44
109.50
105.87
104.01
103.71
104.63
106.93
111.31
118.70
129.62
143.94
161.05
180.46
202.27
227.01
254.92
284.90
314.04
338.04
352.57
354.80
344.44
323.53
295.44
263.42
229.57
194.79
159.31
123.57
88.55
55.65
26.14
0.73
-20.61
-38.38
-53.09
-65.05
-74.45
-81.42
-86.25
-89.40
-91.43
-92.80
-93.75
-94.36
-94.55
-94.15
-93.08
-91.36
-89.06
-86.19
-82.82
-79.15
-75.82
-74.15
-76.20
-84.35
-100.53
-125.22
-156.98
-192.84
-229.27
-263.72
-295.68
-326.66
-359.47
-397.19
-442.18
-495.46
-556.03
-620.25
-681.66
-731.89
-762.92
-769.84
-752.87
-717.46
-671.99
-624.30
-578.87
-536.21
-494.56
-452.25
-409.46
-368.09
-329.96
-295.11
-261.23
-224.65
-182.52
-134.37
-82.25
-29.49
21.10
68.14
110.77
147.29
174.33
187.95
186.31
171.74
150.45
129.58
113.23
100.25
85.64
64.70
37.22
8.96
-10.99
-15.08
-1.27
26.11
59.17
91.15
119.68
146.83
176.45
210.23
245.44
275.49
293.34
295.46
284.31
267.45
253.86
249.48
254.25
262.76
267.91
265.30
256.05
246.30
243.73
253.22
274.10
300.32
323.46
336.62
337.13
327.01
311.01
293.71
277.48
262.19
246.48
229.68
212.91
198.63
189.16
185.06
184.61
184.57
181.84
174.93
164.51
152.60
141.31
131.48
122.32
111.92
98.35
80.69
59.44
36.15
12.57
-10.08
-31.73
-53.36
-76.65
-103.55
-135.81
-174.46
-219.13
-267.29
-314.11
-352.80
-375.97
-377.55
-354.82
-309.76
-249.03
-182.46
-120.05
-68.85
-30.83
-2.96
20.55
44.82
71.66
98.89
121.99
136.92
142.25
139.47
131.53
120.57
106.76
88.75
65.13
36.03
3.58
-28.98
-58.85
-85.04
-108.63
-132.07
-157.69
-186.19
-215.68
-241.62
-258.06
-259.77
-244.62
-215.08
-177.82
-141.47
-113.24
-96.07
-87.86
-82.99
-75.62
-62.70
-45.22
-27.09
-12.29
-2.26
5.26
15.09
32.08
58.52
92.93
130.75
166.39
195.51
216.31
229.47
236.85
239.85
238.24
230.10
212.71
184.13
144.54
96.91
46.54
-0.35
-38.33
-64.15
-77.33
-79.58
-73.76
-62.67
-48.32
-31.69
-13.03
7.81
31.11
57.14
85.96
117.10
148.76
177.37
197.83
205.01
196.52
175.14
149.45
131.39
131.40
153.36
192.05
235.01
267.94
280.93
272.15
247.15
214.51
180.81
147.71
112.70
72.23
25.28
-25.38
-74.41
-116.73
-150.27
-176.97
-201.80
-230.48
-267.44
-314.52
-370.45
-431.40
-490.85
-540.23
-570.17
-572.97
-545.70
-492.62
-425.17
-359.04
-308.89
-282.56
-278.32
-286.14
-292.34
-285.11
-258.27
-211.93
-151.07
-83.81
-19.01
34.42
68.25
76.13
55.75
10.90
-48.12
-107.23
-154.31
-181.22
-185.83
-171.35
-144.38
-112.70
-83.28
-60.65
-47.54
-47.08
-58.05
-74.05
-84.84
-80.87
-58.47
-22.60
15.75
42.16
40.89
5.92
-57.54
-135.93
-214.40
-283.39
-340.63
-387.73
-430.63
-481.73
-549.78
-637.47
-740.44
-849.01
-951.55
-1037.39
-1097.15
-1084.78
-977.06
-778.02
-520.32
-249.24
-1.93
202.39
346.57
444.57
510.51
548.43
561.62
555.51
538.38
519.96
505.83
497.49
495.76
497.77
496.13
486.52
468.83
446.92
426.16
410.27
400.02
395.41
393.16
387.40
375.45
358.80
342.55
332.63
332.39
341.23
356.07
371.02
379.50
378.18
367.48
350.64
331.78
313.89
298.27
285.24
273.59
261.26
246.55
228.54
207.48
184.85
163.02
144.61
131.69
124.54
121.69
120.65
118.93
115.18
109.50
102.94
96.66
91.04
85.69
80.00
74.06
69.05
66.93
69.54
77.59
90.17
105.10
119.81
132.32
141.79
148.37
152.71
155.29
155.96
153.70
146.72
132.87
110.22
77.84
36.28
-12.22
-64.51
-117.25
-168.13
-216.34
-262.43
-307.88
-354.56
-404.51
-459.36
-519.56
-583.01
-644.38
-695.49
-727.52
-734.10
-713.92
-671.34
-614.60
-552.64
-492.01
-435.57
-383.10
-333.20
-284.86
-238.11
-193.41
-150.85
-109.63
-68.35
-25.82
18.49
64.38
111.22
158.50
205.87
252.83
298.30
340.30
376.19
403.27
419.58
424.41
418.44
403.38
381.43
354.88
325.83
296.00
266.60
238.25
211.18
185.65
162.31
142.42
127.64
119.50
118.79
125.23
137.51
153.71
171.78
189.82
205.97
218.07
223.46
219.38
203.86
176.69
140.12
98.48
56.90
19.67
-10.96
-34.87
-53.22
-67.17
-77.15
-82.98
-84.55
-82.43
-77.85
-71.94
-65.00
-56.25
-44.40
-28.64
-9.50
11.15
30.73
46.85
58.06
64.00
65.13
62.32
56.56
48.78
39.86
30.58
21.68
13.71
7.10
2.32
-0.02
0.78
5.37
13.82
25.30
37.83
48.57
54.64
54.06
46.55
33.72
18.66
4.95
-4.54
-8.47
-7.41
-3.42
0.71
2.44
0.19
-6.48
-17.13
-31.00
-47.20
-64.68
-81.97
-96.99
-107.39
-111.25
-108.07
-99.25
-87.74
-76.96
-69.43
-65.64
-63.86
-60.67
-52.29
-35.89
-10.82
20.92
54.64
83.76
101.11
100.92
80.78
42.97
-5.53
-54.80
-94.84
-118.59
-123.80
-112.91
-91.58
-66.32
-42.79
-25.06
-15.73
-16.19
-26.50
-44.90
-67.52
-88.86
-103.14
-106.19
-96.93
-77.81
-54.00
-31.55
-15.19
-6.62
-4.06
-3.14
1.20
12.54
31.52
55.73
80.67
101.31
113.42
114.57
104.65
86.25
64.46
45.90
36.97
41.42
58.67
83.42
107.27
121.67
120.81
103.36
72.18
32.61
-9.72
-50.58
-87.65
-120.09
-147.68
-170.03
-186.36
-195.69
-197.33
-191.42
-179.07
-162.31
-143.62
-125.44
-109.57
-96.71
-86.17
-76.14
-64.64
-51.06
-37.48
-28.75
-30.65
-46.80
-75.70
-109.88
-137.84
-148.32
-134.78
-98.02
-45.80
10.28
58.88
92.18
107.15
104.78
88.43
62.32
30.77
-1.80
-30.77
-51.65
-60.90
-57.24
-42.45
-21.48
-1.22
11.73
13.50
4.47
-10.88
-25.89
-34.63
-34.41
-26.59
-15.68
-7.14
-5.36
-12.48
-28.47
-51.58
-78.73
-105.43
-126.12
-135.27
-129.44
-109.12
-79.23
-47.45
-21.17
-4.57
2.38
2.66
-0.40
-5.37
-13.13
-25.48
-42.89
-63.20
-81.83
-93.56
-94.55
-83.77
-62.95
-35.62
-5.83
22.79
47.17
64.82
73.74
73.05
63.67
48.70
32.85
20.97
16.20
18.85
26.62
36.24
45.76
55.86
69.42
89.42
116.42
147.58
177.19
198.97
208.23
202.77
182.03
145.56
92.64
23.58
-57.78
-142.54
-217.70
-270.00
-290.81
-279.43
-243.01
-193.10
-140.75
-92.63
-50.11
-10.70
29.31
72.87
121.05
173.14
227.06
279.47
326.18
362.93
386.65
396.76
395.63
387.33
375.84
363.55
350.85
337.11
322.02
306.41
291.91
280.38
272.27
266.35
260.46
252.75
242.42
229.67
214.98
198.32
179.50
157.77
132.39
103.23
71.09
37.71
5.57
-22.56
-49.20
-74.81
-98.58
-118.92
-134.62
-145.67
-153.25
-158.81
-163.17
-165.53
-165.51
-163.66
-161.84
-163.19
-171.45
-190.12
-221.91
-268.33
-327.20
-393.08
-457.71
-511.37
-545.32
-554.40
-538.64
-502.91
-454.75
-401.29
-346.94
-293.04
-239.24
-185.26
-132.02
-81.27
-34.43
8.57
49.46
91.05
136.37
187.68
245.43
307.11
366.94
416.34
446.01
448.95
423.22
373.16
308.08
239.18
176.31
126.28
92.98
78.44
83.54
107.26
145.54
190.77
233.10
263.47
276.72
272.87
256.15
232.28
205.78
178.63
150.87
122.11
92.71
64.01
37.61
14.45
-5.51
-22.88
-38.19
-51.40
-62.04
-69.90
-75.58
-80.68
-87.50
-98.17
-113.86
-134.17
-157.37
-181.05
-203.16
-222.88
-240.83
-258.73
-278.56
-301.64
-328.12
-356.85
-385.74
-412.32
-434.20
-449.49
-456.97
-456.24
-447.68
-432.15
-410.43
-382.80
-348.93
-308.19
-260.59
-207.48
-152.03
-98.59
-51.36
-12.69
18.15
44.78
72.08
103.63
139.60
176.24
207.66
228.96
239.14
242.23
246.06
259.19
287.43
331.54
386.77
444.34
494.14
527.63
540.09
531.44
505.78
469.62
429.76
391.58
358.28
331.25
310.88
297.13
289.53
286.61
285.76
283.69
277.49
265.81
249.20
229.58
209.17
189.29
169.74
149.16
125.77
98.48
67.42
33.87
-0.30
-33.50
-65.02
-95.24
-125.14
-155.75
-187.52
-220.28
-253.42
-286.50
-319.64
-353.80
-390.58
-431.91
-479.39
-533.40
-592.20
-651.45
-704.49
-743.79
-763.18
-759.87
-735.53
-695.53
-646.96
-596.28
-547.68
-502.79
-461.63
-423.81
-389.32
-358.52
-331.41
-307.21
-284.31
-260.92
-235.95
-209.51
-182.84
-157.76
-135.70
-116.84
-99.92
-82.70
-62.78
-38.66
-10.58
19.68
49.28
75.52
97.24
115.09
131.27
148.54
168.89
192.38
217.35
240.98
260.60
275.58
287.29
298.55
312.55
331.62
356.53
387.45
423.54
462.49
500.71
532.23
550.07
549.24
529.83
497.70
463.56
437.32
422.94
417.90
414.16
403.04
380.03
346.67
308.21
271.49
240.59
207.94
167.74
117.99
62.34
8.61
-31.14
-55.57
-68.19
-74.82
-81.40
-91.16
-103.84
-116.72
-126.35
-130.05
-127.61
-118.45
-102.99
-83.60
-62.13
-39.99
-17.62
5.27
29.00
52.70
75.37
95.67
109.82
115.29
111.62
100.76
86.25
71.46
57.71
46.16
36.29
23.07
1.93
-29.35
-69.57
-114.82
-160.65
-203.89
-243.09
-278.35
-315.39
-359.65
-414.43
-480.03
-554.32
-633.96
-714.73
-790.88
-832.83
-818.83
-741.31
-613.12
-461.67
-315.36
-192.96
-100.65
-39.62
1.62
28.17
41.48
42.10
32.43
17.42
2.85
-6.61
-9.19
-4.88
0.94
3.05
-0.92
-9.59
-18.81
-24.08
-22.23
-12.37
4.89
25.05
43.85
59.53
72.94
86.76
103.32
124.58
151.20
182.95
217.03
250.44
282.23
312.93
344.81
380.07
422.34
473.89
533.71
594.78
646.09
677.86
683.34
661.21
613.54
548.10
474.63
403.01
340.89
293.88
266.97
260.57
269.79
283.05
290.69
287.24
273.19
252.73
216.35
160.43
86.35
17.50
-39.25
-81.54
-113.88
-137.79
-156.07
-172.91
-191.64
-216.13
-249.74
-296.83
-356.54
-424.12
-491.62
-550.71
-587.79
-590.27
-555.04
-491.74
-420.01
-355.98
-307.15
-272.47
-247.37
-227.61
-211.26
-198.82
-191.16
-188.60
-188.61
-186.49
-178.91
-165.81
-149.75
-134.66
-123.88
-118.83
-118.98
-120.70
-119.76
-113.52
-101.90
-86.73
-72.25
-61.43
-55.17
-52.31
-48.71
-40.00
-23.87
-1.10
24.98
50.04
71.12
87.46
100.63
115.47
136.90
167.27
205.22
246.35
285.45
319.11
346.65
369.90
394.64
427.56
473.49
533.92
606.00
683.53
758.32
821.38
845.66
811.36
713.35
565.19
394.36
228.85
86.61
-26.93
-114.85
-179.51
-225.18
-253.03
-264.33
-263.21
-257.89
-257.22
-267.14
-289.01
-318.83
-348.48
-369.37
-376.67
-366.92
-342.18
-307.53
-268.70
-230.18
-194.14
-160.03
-125.82
-92.47
-61.39
-37.43
-26.25
-31.95
-56.07
-97.71
-154.05
-216.11
-272.21
-309.61
-319.65
-300.80
-259.59
-208.01
-158.52
-119.56
-93.25
-77.12
-67.11
-61.02
-58.76
-61.09
-67.83
-76.81
-84.50
-87.93
-85.07
-76.48
-64.89
-53.58
-44.60
-38.18
-32.81
-26.33
-16.92
-3.91
11.55
27.53
42.27
55.11
66.42
77.74
91.38
107.83
129.06
157.39
194.82
241.38
293.45
343.08
380.55
397.27
389.01
356.83
305.25
241.46
173.41
108.96
54.50
15.10
-11.30
-27.91
-40.45
-57.02
-82.89
-117.73
-152.32
-178.69
-190.59
-185.19
-165.29
-136.04
-107.46
-88.08
-83.82
-93.70
-110.49
-122.67
-120.02
-98.27
-61.08
-19.75
15.17
38.13
50.85
59.84
73.09
96.63
127.55
167.92
209.59
244.44
265.35
268.00
251.37
219.10
179.64
143.54
120.34
113.07
119.63
133.15
145.32
149.43
138.03
110.51
72.49
33.29
-0.40
-25.51
-42.24
-51.23
-52.73
-46.87
-34.14
-16.95
1.11
16.05
25.97
31.40
34.73
38.15
41.85
45.14
46.48
44.50
38.27
28.23
15.85
3.10
-9.06
-21.14
-33.46
-46.00
-58.19
-69.49
-79.93
-91.07
-102.18
-115.36
-134.82
-164.14
-205.64
-259.46
-323.07
-390.96
-454.72
-503.94
-529.73
-529.13
-505.39
-467.50
-426.78
-392.45
-368.37
-352.54
-339.38
-315.44
-275.78
-224.17
-171.00
-126.73
-96.11
-77.41
-65.80
-58.41
-53.39
-52.74
-58.15
-68.98
-81.83
-91.79
-94.55
-88.68
-75.54
-58.23
-41.55
-28.86
-20.93
-15.94
-10.61
-1.96
11.42
29.01
48.86
67.57
82.49
92.72
99.35
104.93
112.21
123.03
137.84
155.72
174.45
191.90
206.86
219.59
231.76
245.93
265.01
291.55
326.85
369.53
415.11
456.34
485.05
494.73
483.00
452.75
411.17
367.18
328.38
298.88
279.03
266.49
258.14
251.37
244.80
237.98
231.21
225.09
220.27
217.11
215.15
212.90
208.14
198.75
183.66
163.43
140.07
115.83
92.09
68.55
43.49
14.64
-19.43
-58.31
-99.57
-139.44
-174.30
-202.14
-223.25
-239.62
-253.33
-265.03
-273.51
-276.76
-274.12
-267.70
-262.14
-262.27
-269.96
-282.36
-292.50
-292.48
-277.05
-246.02
-204.28
-159.78
-120.89
-94.22
-83.40
-88.70
-107.20
-133.17
-159.14
-177.44
-181.91
-169.33
-140.23
-98.62
-50.75
-3.87
35.54
63.16
77.70
80.89
76.47
68.66
60.66
54.08
48.92
44.36
39.53
34.14
28.87
25.38
25.99
32.76
46.50
65.07
82.88
92.03
84.58
55.28
3.14
-68.42
-152.51
-239.17
-317.88
-379.05
-415.75
-425.05
-408.67
-372.51
-324.94
-274.28
-224.64
-177.24
-131.69
-87.74
-45.94
-6.99
29.26
64.19
99.77
140.52
189.01
244.78
304.31
362.66
415.96
462.75
504.05
542.42
585.06
638.00
703.45
777.80
851.91
913.98
953.52
964.73
922.64
817.00
653.71
454.97
250.33
64.10
-91.32
-213.82
-306.32
-373.06
-414.42
-431.99
-430.05
-415.61
-396.54
-378.83
-365.20
-355.35
-347.73
-337.89
-322.89
-302.36
-278.54
-255.02
-234.73
-218.83
-206.77
-197.28
-187.32
-174.83
-159.36
-142.15
-125.27
-110.51
-98.62
-89.31
-81.88
-74.70
-66.67
-57.45
-47.55
-37.89
-29.30
-22.12
-16.19
-11.14
-6.20
-0.87
5.06
11.43
17.76
23.53
28.20
31.31
32.43
31.24
27.50
21.21
12.59
2.26
-8.88
-19.76
-29.29
-36.52
-40.80
-41.85
-39.76
-35.13
-28.73
-21.47
-14.29
-7.95
-3.01
0.09
1.32
0.92
-0.79
-3.28
-5.90
-8.13
-9.54
-9.76
-8.99
-7.34
-4.88
-1.83
1.77
6.03
11.00
16.86
23.95
31.82
40.24
50.59
62.08
73.92
85.68
96.40
106.43
116.27
125.04
131.91
136.31
137.56
134.96
128.18
117.07
101.76
86.10
71.35
58.48
48.47
42.04
39.27
40.47
45.80
50.94
57.58
66.02
76.28
88.17
101.45
114.73
126.90
136.85
143.59
146.79
144.44
134.44
114.28
89.36
61.84
33.49
5.76
-20.08
-42.52
-61.49
-77.08
-89.10
-97.08
-101.64
-103.14
-102.02
-98.58
-92.81
-86.00
-79.20
-72.64
-65.81
-58.90
-52.08
-45.67
-40.07
-35.58
-34.73
-39.44
-49.62
-63.27
-78.34
-93.18
-106.75
-118.47
-127.98
-139.30
-155.70
-176.94
-199.30
-218.54
-231.80
-237.87
-236.69
-229.03
-222.63
-224.29
-235.23
-251.08
-266.24
-277.27
-283.41
-285.60
-286.03
-295.75
-324.74
-375.32
-441.81
-516.11
-592.26
-667.39
-740.48
-753.23
-674.44
-517.48
-330.00
-157.81
-23.48
70.75
133.23
176.95
205.22
225.46
241.36
257.06
277.45
304.36
335.31
366.21
395.11
422.87
443.75
451.84
446.02
430.25
409.63
387.76
363.02
334.64
303.80
269.60
230.51
186.81
141.46
98.08
59.59
27.98
4.83
-9.35
-17.28
-23.49
-31.41
-42.12
-55.19
-69.12
-81.78
-90.53
-92.90
-88.71
-79.86
-70.00
-60.68
-52.46
-44.75
-36.03
-24.12
-6.69
17.19
46.82
80.27
114.97
147.09
171.62
183.24
178.29
158.09
128.52
98.25
75.32
64.00
63.16
67.69
71.69
63.93
40.07
2.06
-43.63
-90.17
-133.33
-171.94
-206.06
-235.27
-258.46
-274.42
-282.27
-282.76
-278.54
-272.82
-268.13
-265.43
-264.00
-262.13
-256.96
-247.47
-234.11
-218.60
-203.05
-189.07
-177.23
-167.12
-157.88
-148.23
-137.37
-125.39
-113.12
-101.68
-91.90
-84.03
-77.79
-72.60
-67.66
-62.36
-56.44
-50.05
-43.51
-37.12
-31.03
-25.27
-19.81
-14.56
-9.48
-4.55
0.15
4.52
8.46
11.91
14.75
16.94
18.43
19.30
19.67
19.76
19.73
19.70
19.69
19.65
19.55
19.45
19.57
20.25
21.89
24.77
28.90
34.03
39.67
45.31
50.66
55.77
61.06
67.16
74.62
83.61
93.81
104.49
114.80
124.23
132.93
141.78
152.08
165.09
181.44
200.84
222.21
243.95
264.68
283.78
301.84
320.59
342.51
369.96
403.67
441.86
479.99
511.89
531.86
536.58
526.30
504.78
478.27
453.88
437.74
433.18
439.58
452.16
463.26
464.93
451.93
423.71
384.33
340.37
297.89
260.19
227.52
198.64
172.81
150.86
134.40
124.24
118.90
114.35
105.21
86.86
57.22
17.56
-28.00
-74.55
-118.23
-157.90
-195.23
-233.63
-276.31
-324.95
-379.40
-438.01
-498.17
-556.32
-607.62
-645.71
-664.04
-658.31
-629.31
-583.85
-532.87
-486.85
-451.01
-423.32
-396.82
-364.99
-326.80
-288.00
-257.91
-243.35
-244.02
-251.88
-255.07
-243.87
-215.12
-173.02
-125.91
-81.73
-44.68
-14.59
11.33
36.01
60.62
84.27
105.04
121.27
132.71
140.86
148.51
158.77
173.96
194.96
221.55
253.18
289.85
331.96
379.11
428.36
473.31
505.31
516.46
503.34
468.90
421.51
371.21
325.44
286.37
251.31
215.73
176.67
134.48
92.20
53.27
19.46
-9.62
-35.40
-58.51
-77.72
-90.32
-93.87
-88.23
-76.36
-63.59
-55.62
-56.17
-65.47
-80.36
-95.80
-107.03
-111.38
-108.97
-102.15
-94.42
-88.95
-87.73
-91.22
-98.56
-107.84
-116.74
-123.10
-125.43
-123.39
-117.66
-109.62
-100.61
-91.41
-82.04
-72.17
-61.73
-51.31
-42.21
-35.82
-33.04
-33.80
-37.06
-41.08
-43.79
-43.32
-38.52
-29.54
-18.04
-6.95
0.69
3.27
1.54
-1.78
-3.68
-2.85
-0.63
-0.10
-4.05
-13.03
-24.86
-35.99
-43.65
-47.35
-48.69
-49.90
-52.20
-55.35
-58.49
-61.83
-67.52
-79.12
-99.48
-128.74
-163.55
-198.01
-226.06
-244.02
-251.93
-252.99
-251.47
-250.26
-249.49
-246.88
-239.51
-225.69
-206.01
-183.12
-160.39
-140.59
-125.00
-113.31
-103.99
-94.95
-84.11
-69.90
-51.47
-28.90
-2.86
25.54
55.23
85.34
115.35
145.01
174.36
203.67
233.24
262.93
291.61
317.01
336.00
345.40
342.98
328.19
302.20
267.62
227.77
186.16
146.18
110.80
82.23
61.46
47.81
38.97
31.70
23.09
12.04
0.06
-9.11
-11.46
-4.92
8.96
25.32
37.90
41.98
36.30
23.15
6.75
-9.05
-22.29
-33.03
-42.33
-50.85
-58.23
-63.39
-65.31
-63.77
-59.42
-53.27
-46.01
-37.53
-26.96
-13.23
4.05
23.84
43.33
58.57
65.76
62.94
51.09
34.03
16.97
4.30
-2.17
-3.73
-3.54
-4.47
-7.26
-10.11
-9.92
-4.44
6.11
19.07
30.66
37.87
39.79
37.72
34.17
31.62
31.45
33.52
36.17
36.67
31.82
19.24
-1.36
-27.10
-52.22
-69.81
-74.72
-65.76
-46.33
-23.10
-3.36
7.06
4.74
-11.47
-41.04
-81.94
-130.56
-181.69
-229.54
-269.21
-298.36
-317.53
-329.16
-335.72
-338.07
-335.12
-324.84
-305.71
-277.85
-243.37
-205.84
-169.20
-137.02
-111.46
-92.65
-78.46
-65.04
-47.67
-22.31
13.07
57.38
105.78
150.14
180.50
187.85
167.59
122.26
62.00
1.79
-43.45
-63.97
-57.81
-30.37
9.14
51.81
91.81
126.88
156.96
182.53
203.83
221.54
237.09
253.10
272.91
299.30
333.06
372.08
411.43
444.58
466.63
475.45
472.58
462.46
450.29
439.63
430.85
421.42
407.71
389.43
368.86
350.23
337.50
332.34
333.56
337.95
341.92
343.05
343.44
345.71
350.91
357.21
360.40
356.02
341.65
317.72
287.04
257.17
234.29
221.24
216.86
217.23
217.90
216.06
210.98
180.07
111.54
5.34
-124.71
-256.94
-372.09
-460.25
-520.38
-556.74
-575.08
-576.64
-562.13
-532.87
-492.23
-445.62
-399.74
-359.99
-329.96
-310.76
-298.21
-287.32
-274.39
-258.78
-243.00
-232.00
-229.97
-238.93
-258.21
-283.38
-310.13
-336.29
-362.53
-385.99
-404.47
-414.44
-411.93
-394.65
-362.53
-318.40
-266.03
-207.54
-143.05
-72.60
1.64
72.91
130.27
162.96
165.91
143.22
107.92
75.81
57.99
56.64
65.02
71.86
68.10
54.44
38.70
33.06
46.24
77.86
119.34
160.01
193.24
218.61
240.13
261.50
284.40
305.75
319.89
321.83
309.60
284.97
251.94
215.00
176.42
138.59
101.35
63.68
25.28
-12.26
-45.56
-70.79
-84.98
-87.55
-80.34
-67.79
-54.93
-45.72
-41.94
-43.09
-47.83
-54.74
-63.45
-74.87
-91.21
-114.68
-146.99
-188.84
-239.71
-298.27
-360.74
-420.36
-468.19
-495.72
-496.75
-469.66
-416.63
-342.07
-253.32
-157.99
-64.39
18.01
78.78
109.86
106.98
72.30
14.19
-58.27
-134.13
-202.02
-252.16
-279.07
-282.82
-272.17
-260.62
-261.20
-284.84
-331.88
-391.58
-447.41
-485.02
-496.33
-484.16
-456.94
-400.90
-314.30
-206.16
-93.04
8.78
79.39
121.99
143.73
152.86
158.23
166.39
181.30
205.75
241.00
285.63
335.30
381.64
417.79
441.10
449.93
445.22
429.69
406.43
378.16
348.16
318.10
289.79
265.19
243.75
224.16
205.34
186.71
168.24
151.13
136.12
124.13
115.82
110.10
105.06
99.22
91.83
83.15
74.54
67.19
62.24
60.66
62.71
67.88
74.50
79.26
77.69
65.72
41.75
8.31
-28.26
-60.14
-81.40
-90.15
-88.77
-81.86
-73.56
-65.81
-58.41
-50.53
-42.30
-35.45
-32.46
-35.06
-43.10
-54.50
-66.18
-75.26
-80.51
-82.53
-83.39
-85.41
-89.94
-96.66
-103.62
-107.96
-107.49
-101.81
-92.63
-83.03
-76.33
-74.64
-78.18
-85.62
-94.66
-103.21
-109.74
-113.16
-112.74
-108.70
-102.90
-99.11
-102.04
-114.37
-135.05
-158.36
-175.51
-178.45
-163.63
-133.85
-96.98
-62.45
-36.71
-21.99
-16.56
-16.83
-19.42
-22.21
-23.72
-21.87
-18.03
-10.73
1.37
18.58
39.83
63.25
86.99
110.09
132.68
155.60
180.30
207.23
235.72
264.29
291.24
315.55
337.33
357.99
379.74
405.14
435.11
467.86
498.67
520.88
527.89
515.41
482.94
433.70
373.49
308.25
242.42
178.47
117.54
60.42
8.07
-38.60
-79.34
-115.11
-147.94
-180.12
-213.27
-247.76
-282.75
-316.81
-348.52
-376.62
-400.24
-419.24
-434.68
-448.92
-464.70
-483.28
-502.59
-516.65
-517.12
-496.75
-452.82
-388.80
-313.30
-236.67
-167.21
-108.80
-60.69
-19.00
21.41
65.05
114.40
168.61
222.85
268.78
296.71
298.89
272.39
220.38
151.29
76.33
6.49
-50.06
-89.43
-112.44
-123.99
-131.17
-140.52
-155.25
-173.68
-190.03
-197.21
-190.51
-169.81
-139.10
-103.85
-67.80
-31.17
8.67
54.73
107.40
163.03
214.05
251.16
266.11
254.39
217.03
160.96
97.99
41.84
4.30
-8.72
0.80
23.80
48.14
63.90
67.46
62.54
57.75
62.11
81.04
114.73
158.96
207.64
254.64
294.51
322.03
332.07
320.51
286.03
231.82
165.46
96.78
34.59
-16.29
-56.06
-88.95
-120.75
-156.15
-197.23
-242.96
-289.79
-332.52
-365.52
-383.78
-384.43
-367.57
-336.25
-295.42
-250.16
-204.26
-159.59
-116.67
-75.46
-36.00
1.76
38.54
75.87
115.76
159.46
206.23
252.62
292.81
319.94
328.01
314.04
279.57
230.93
177.72
129.84
94.34
73.57
65.50
66.17
72.81
85.54
107.09
140.48
186.28
241.10
297.94
348.28
384.64
402.64
401.51
383.58
353.01
314.59
272.95
232.00
194.83
163.80
140.41
125.20
117.55
115.60
116.44
116.79
113.96
106.57
94.98
80.95
66.80
54.52
45.05
38.08
32.48
26.82
20.01
11.76
2.47
-6.92
-15.45
-22.40
-28.00
-32.73
-37.08
-41.40
-45.72
-50.14
-54.47
-58.41
-61.92
-65.84
-71.34
-79.48
-90.95
-105.75
-123.46
-143.25
-164.17
-185.51
-207.53
-229.63
-250.13
-266.89
-277.97
-282.82
-281.22
-272.89
-258.10
-240.89
-225.87
-217.31
-218.68
-231.42
-256.20
-290.24
-327.82
-362.59
-394.37
-422.20
-443.14
-454.53
-455.43
-451.79
-449.88
-452.39
-457.40
-466.62
-474.91
-472.02
-449.96
-407.43
-357.87
-317.61
-298.44
-304.97
-343.99
-409.00
-481.05
-538.18
-562.74
-555.26
-523.48
-476.59
-359.33
-164.77
66.14
275.80
408.74
486.48
530.06
553.39
570.61
588.53
599.82
602.24
600.73
601.60
609.21
615.55
607.56
580.29
545.87
502.56
447.72
386.93
330.16
289.96
272.04
280.72
317.44
375.71
434.30
471.96
475.47
442.54
382.67
309.37
239.16
186.22
155.97
140.27
127.26
107.80
78.72
43.32
6.63
-26.24
-53.08
-76.45
-104.58
-143.89
-194.51
-249.66
-297.91
-327.75
-330.56
-302.90
-247.59
-175.75
-100.60
-33.28
18.95
52.65
67.81
67.00
54.52
35.01
7.91
-26.23
-63.43
-97.33
-122.96
-138.69
-146.11
-148.97
-151.49
-164.15
-192.28
-232.16
-273.45
-306.36
-325.83
-331.71
-327.13
-316.60
-314.17
-329.18
-361.11
-401.96
-444.03
-484.19
-523.26
-564.07
-549.53
-454.70
-301.27
-139.35
-5.42
91.27
157.29
202.98
236.65
263.79
277.19
271.92
251.03
224.03
199.87
183.09
174.51
172.74
175.86
173.76
159.73
134.63
105.38
79.12
59.86
48.93
43.33
42.98
41.47
33.78
19.02
-0.35
-21.60
-42.68
-60.60
-71.00
-69.06
-54.71
-30.60
-1.17
28.20
52.25
67.69
75.15
77.97
80.03
82.39
84.48
85.52
85.60
85.86
88.54
93.87
101.76
110.81
118.28
121.41
118.57
109.61
95.40
71.19
36.05
-6.96
-52.46
-95.85
-134.76
-168.78
-197.62
-222.83
-244.86
-262.43
-274.22
-279.87
-280.08
-276.34
-270.43
-263.98
-258.07
-252.60
-245.61
-234.50
-216.90
-191.42
-157.81
-116.83
-69.84
-18.40
36.52
95.04
157.53
224.06
294.20
367.20
442.14
517.23
588.82
650.95
696.07
716.82
708.73
672.21
612.78
539.24
460.55
383.23
310.57
243.47
182.27
128.04
82.39
46.42
19.17
-3.13
-26.31
-55.85
-94.33
-139.31
-183.08
-215.30
-226.58
-212.05
-172.93
-115.47
-48.36
19.77
81.90
132.68
168.19
186.24
186.78
172.36
147.83
119.11
91.40
67.87
49.20
34.37
22.06
10.50
-2.76
-20.90
-47.27
-84.75
-134.82
-196.68
-266.45
-335.69
-394.17
-433.06
-447.70
-438.60
-410.81
-371.37
-326.72
-281.18
-234.55
-185.76
-135.08
-84.96
-38.88
0.38
31.56
55.15
73.09
91.23
115.05
147.43
187.21
230.25
271.38
306.30
332.86
334.99
304.66
245.48
171.44
97.06
30.05
-28.10
-78.33
-121.62
-158.52
-186.08
-203.15
-210.83
-211.95
-210.34
-209.07
-209.83
-212.90
-218.27
-221.00
-217.40
-205.38
-184.29
-155.84
-123.18
-90.06
-59.76
-34.09
-10.92
11.41
35.02
62.55
95.10
132.67
174.55
220.52
264.31
304.03
338.09
356.32
355.28
337.85
310.84
278.55
239.08
186.45
126.38
57.90
-13.06
-73.76
-111.49
-118.06
-92.53
-40.22
29.04
102.80
165.75
205.93
217.99
203.06
167.24
118.29
63.15
7.06
-46.05
-94.70
-136.92
-170.02
-192.28
-198.69
-186.45
-157.59
-118.82
-77.47
-38.71
-3.25
30.76
64.83
96.70
123.08
139.96
145.15
139.29
124.70
104.96
83.47
62.12
40.02
14.70
-15.94
-51.85
-91.10
-130.80
-167.81
-199.33
-223.51
-243.62
-264.21
-289.00
-319.41
-355.13
-395.44
-440.20
-489.96
-520.81
-517.48
-477.02
-408.33
-323.43
-231.26
-138.52
-52.11
20.92
75.80
108.27
119.10
113.73
99.53
82.91
67.73
55.44
46.42
41.14
37.27
32.23
25.94
19.51
14.83
14.22
18.89
28.57
41.78
54.69
64.32
69.88
72.39
74.39
79.55
89.82
104.67
121.55
136.66
148.22
157.78
164.93
172.37
185.44
208.36
242.37
284.82
329.56
368.95
395.62
404.07
379.40
318.26
231.56
140.06
62.38
6.44
-29.97
-53.31
-68.96
-79.02
-80.73
-73.54
-61.28
-51.47
-51.68
-66.34
-95.53
-136.36
-184.57
-235.10
-281.87
-315.42
-326.99
-312.42
-275.32
-225.76
-175.38
-132.37
-100.34
-75.68
-56.00
-41.32
-32.38
-28.40
-25.86
-19.62
-5.02
21.11
59.17
105.67
154.01
195.85
223.92
235.25
233.29
227.48
229.68
248.45
283.57
325.28
358.58
370.40
355.92
320.33
275.22
232.21
197.77
171.65
149.65
127.97
106.19
87.12
74.32
69.10
68.89
68.10
60.64
42.56
13.87
-21.50
-57.65
-89.28
-114.04
-133.11
-150.55
-171.31
-199.17
-235.09
-276.34
-316.41
-346.04
-355.65
-338.82
-295.66
-234.46
-170.13
-119.58
-95.44
-101.92
-134.59
-183.44
-237.08
-285.50
-321.11
-339.01
-337.83
-320.45
-294.51
-270.82
-259.34
-264.27
-281.33
-299.26
-305.49
-292.23
-258.05
-206.52
-143.29
-73.77
-2.32
67.01
129.09
177.26
204.26
206.37
186.23
152.95
119.20
97.16
94.67
112.63
148.36
189.66
219.79
227.17
212.19
184.17
153.61
126.49
103.26
81.20
57.31
31.52
6.78
-12.91
-25.58
-31.94
-34.84
-37.51
-42.24
-50.01
-60.22
-69.36
-73.65
-71.07
-61.72
-47.16
-29.31
-9.70
10.76
32.25
53.90
75.50
96.30
115.03
130.15
140.45
145.41
145.20
140.75
133.65
125.68
117.91
110.91
104.65
98.86
93.11
87.14
80.90
74.73
69.27
64.92
62.15
60.99
61.13
62.00
63.06
63.87
64.30
66.11
68.54
71.47
74.46
76.80
77.61
76.23
72.71
67.64
62.19
57.41
54.42
53.83
56.19
62.22
72.14
84.93
97.91
107.41
110.10
105.08
93.69
79.17
64.88
52.55
42.02
32.15
22.51
14.06
9.08
9.07
14.13
22.57
31.61
38.68
42.17
41.46
35.84
27.83
17.87
5.73
-8.96
-26.26
-45.81
-66.90
-88.71
-110.62
-132.39
-154.86
-179.20
-206.38
-236.46
-268.16
-298.82
-325.37
-345.57
-359.04
-367.70
-373.98
-378.94
-380.61
-374.44
-355.07
-319.06
-266.93
-203.27
-134.82
-67.42
-4.26
53.74
106.03
151.13
186.57
210.60
223.60
228.08
226.98
221.29
209.09
187.35
155.46
118.06
84.74
66.43
69.70
93.08
127.17
158.66
175.85
172.74
149.91
112.98
70.44
31.39
4.42
-3.07
14.13
57.88
125.47
209.58
299.36
382.64
448.16
487.95
498.51
481.12
441.36
387.56
329.04
274.22
229.07
196.24
175.47
164.58
160.62
161.06
164.16
168.73
173.50
176.74
176.25
170.31
158.52
142.40
124.85
108.91
96.50
87.68
81.05
74.91
68.17
60.74
53.13
45.86
38.83
31.33
22.26
10.69
-3.67
-20.24
-37.75
-54.72
-69.95
-83.19
-95.12
-107.09
-120.49
-136.05
-153.38
-171.09
-187.20
-199.95
-208.67
-214.04
-217.93
-222.78
-230.88
-243.38
-259.79
-277.75
-293.44
-302.56
-301.60
-289.24
-266.94
-238.92
-211.02
-188.79
-175.86
-173.14
-179.21
-191.25
-206.19
-221.40
-234.82
-244.93
-250.68
-251.65
-248.04
-240.58
-230.04
-217.06
-202.27
-186.96
-173.68
-165.71
-165.36
-172.11
-181.52
-186.94
-182.86
-168.38
-148.58
-132.87
-130.80
-147.81
-182.85
-229.79
-281.05
-331.03
-377.46
-419.63
-455.66
-480.95
-489.26
-475.87
-440.71
-389.35
-330.89
-274.16
-224.09
-180.57
-139.97
-98.33
-53.83
-7.82
36.50
76.35
111.00
141.92
172.53
206.96
248.47
297.86
352.12
403.86
442.60
457.96
443.96
402.40
342.97
280.03
227.32
193.50
180.66
186.15
205.67
235.48
272.32
311.96
348.57
375.80
389.19
388.18
376.22
358.71
340.38
323.42
307.34
290.20
270.01
245.24
214.64
177.23
132.93
83.59
33.90
-9.10
-37.97
-47.44
-36.38
-8.38
29.45
68.52
101.07
121.74
128.16
120.33
99.80
68.94
30.65
-11.55
-53.43
-90.67
-119.92
-140.00
-152.39
-160.70
-168.98
-179.79
-192.87
-205.44
-213.66
-214.59
-207.62
-194.47
-178.11
-161.39
-145.65
-130.26
-112.90
-90.46
-60.14
-21.10
24.39
70.80
110.51
136.27
143.93
133.93
110.85
81.41
51.46
24.01
-1.14
-26.65
-55.80
-90.78
-131.18
-173.47
-211.26
-236.89
-243.59
-227.68
-189.76
-134.44
-68.69
0.35
66.76
126.02
174.24
207.57
222.57
217.39
193.00
153.30
104.06
51.45
1.25
-41.22
-71.19
-85.18
-82.34
-65.59
-40.92
-15.03
7.73
27.08
45.84
66.70
88.99
107.62
115.32
106.54
80.74
42.84
0.78
-38.57
-71.96
-100.38
-127.37
-156.59
-190.29
-229.23
-273.76
-324.39
-381.38
-443.04
-504.42
-557.25
-592.10
-601.79
-584.26
-543.56
-488.15
-427.42
-368.53
-314.76
-265.81
-219.50
-173.68
-127.46
-81.63
-38.38
-0.44
29.62
50.62
63.45
71.27
78.52
89.85
108.77
137.02
174.63
220.18
270.83
322.29
368.84
404.20
423.04
422.82
405.24
376.30
344.73
319.75
308.36
313.41
333.20
362.32
393.33
418.80
432.94
432.50
417.03
388.52
350.58
307.77
264.57
224.72
190.78
163.87
143.76
129.35
119.27
112.28
107.62
104.95
103.98
104.20
104.71
104.18
101.46
95.90
87.73
78.05
68.25
59.26
50.85
41.54
29.13
11.70
-11.42
-39.13
-68.96
-98.04
-124.41
-147.82
-169.77
-192.88
-220.05
-253.68
-295.13
-343.74
-395.95
-444.86
-481.27
-496.36
-485.31
-450.05
-399.62
-347.16
-304.80
-278.92
-267.82
-263.18
-254.44
-233.57
-198.18
-151.74
-101.36
-54.69
-17.43
7.64
20.29
21.72
13.49
-2.91
-25.59
-51.83
-77.74
-98.85
-111.65
-115.12
-111.74
-106.74
-106.14
-113.99
-130.84
-153.80
-178.79
-203.30
-227.81
-255.02
-286.86
-321.91
-354.55
-376.80
-381.94
-367.61
-336.69
-295.72
-251.80
-209.90
-171.87
-137.23
-104.61
-73.10
-42.30
-12.13
17.82
48.15
79.24
110.70
141.30
169.37
193.47
213.16
229.20
243.37
257.50
272.96
290.03
308.08
326.11
343.38
360.11
377.78
399.07
427.19
464.33
510.15
560.39
607.22
641.29
654.80
644.12
611.05
561.83
504.80
447.78
396.08
351.98
315.20
283.94
255.79
228.47
200.24
170.07
137.62
103.24
67.50
31.06
-5.43
-41.38
-76.03
-108.53
-137.83
-162.64
-181.61
-193.50
-197.39
-193.10
-181.13
-162.79
-140.26
-116.65
-95.73
-81.63
-77.76
-85.91
-105.66
-134.42
-168.43
-204.07
-238.94
-272.50
-306.16
-342.77
-385.23
-434.78
-489.29
-542.60
-585.82
-610.09
-610.08
-586.25
-544.64
-494.61
-445.17
-402.00
-366.50
-336.68
-309.24
-281.56
-252.65
-223.03
-194.01
-166.91
-142.25
-119.81
-98.60
-77.24
-54.67
-30.39
-4.25
23.65
53.09
82.97
110.35
130.60
139.10
133.90
117.94
99.16
87.66
91.48
112.77
146.76
184.55
217.95
244.00
265.81
289.74
319.99
354.41
383.89
395.79
379.47
330.47
252.11
153.80
47.71
-54.72
-144.33
-214.81
-262.55
-286.44
-288.41
-273.17
-247.22
-217.18
-188.35
-163.79
-144.44
-129.93
-118.76
-109.14
-99.26
-87.92
-75.31
-63.05
-53.77
-49.91
-52.94
-62.46
-76.54
-92.33
-107.02
-118.71
-126.75
-131.56
-134.09
-135.26
-135.47
-134.63
-132.29
-127.99
-121.61
-113.49
-104.27
-94.77
-85.69
-77.38
-69.85
-62.85
-56.04
-49.16
-42.12
-34.96
-27.84
-20.91
-14.28
-7.96
-1.95
3.77
9.21
14.34
19.20
23.91
28.66
33.67
39.08
44.85
50.77
56.57
62.00
67.11
72.19
77.78
84.35
92.17
101.06
110.46
119.67
128.19
135.95
143.46
151.66
161.42
173.20
186.76
201.30
215.83
229.61
242.52
255.14
268.42
283.35
300.71
320.91
343.96
369.08
394.45
417.04
433.25
440.05
436.36
423.71
405.60
386.02
367.36
349.49
330.08
306.38
277.07
243.34
208.56
176.67
150.63
131.38
118.10
108.98
102.11
96.01
89.68
82.37
73.48
62.70
50.39
37.86
27.30
21.22
21.53
28.69
41.32
56.44
70.43
80.10
83.62
80.71
72.39
60.36
46.32
31.79
17.90
5.50
-4.89
-13.04
-18.97
-22.75
-24.27
-22.98
-18.52
-11.09
-1.60
8.49
18.16
26.66
33.50
38.37
41.35
42.49
41.74
39.05
34.25
27.78
20.39
13.11
7.25
4.96
7.54
14.72
24.59
34.00
40.98
44.58
44.84
42.58
41.32
43.76
50.87
61.87
74.16
87.63
102.22
116.97
130.47
146.07
165.97
189.81
214.57
234.15
248.34
258.58
266.26
273.40
289.49
321.33
369.77
428.76
485.10
533.97
572.87
599.42
612.51
621.12
631.81
645.34
656.49
653.86
639.37
619.02
598.38
519.21
355.35
123.80
-122.12
-295.81
-402.30
-461.38
-490.12
-508.44
-524.02
-531.97
-528.08
-511.63
-489.38
-476.05
-473.21
-477.99
-487.23
-497.14
-500.65
-493.19
-471.66
-441.84
-418.37
-406.00
-405.68
-417.06
-437.75
-464.47
-493.02
-514.05
-525.82
-535.18
-543.33
-550.18
-556.48
-563.75
-577.98
-602.57
-628.96
-651.21
-667.17
-670.13
-654.57
-620.04
-536.50
-401.67
-281.42
-197.04
-135.55
-90.63
-55.57
-25.37
2.91
31.62
57.83
81.89
113.75
154.80
196.39
227.74
239.32
226.40
190.29
132.53
58.37
-19.48
-93.68
-161.53
-218.73
-259.50
-278.65
-274.54
-253.38
-224.18
-191.70
-160.76
-134.80
-113.56
-95.02
-77.67
-61.36
-48.01
-38.43
-29.47
-18.02
-2.09
19.32
45.63
74.82
104.29
131.56
155.74
178.26
201.01
225.51
252.78
282.95
315.23
347.75
377.78
402.15
418.02
423.94
420.42
409.63
394.17
375.73
354.20
327.94
295.27
255.84
211.57
166.31
124.49
89.80
64.06
46.95
36.32
28.86
20.93
9.56
-6.61
-26.98
-49.13
-69.86
-86.44
-97.50
-103.02
-103.82
-100.75
-94.40
-85.40
-74.97
-65.10
-57.90
-54.50
-53.98
-53.56
-49.76
-40.33
-25.54
-8.25
7.78
19.97
28.25
34.91
42.80
53.65
67.22
82.12
97.34
113.43
132.21
155.38
182.75
211.48
236.97
254.83
262.70
261.15
253.01
241.88
230.42
219.37
207.29
191.32
168.37
136.48
95.99
49.85
3.21
-37.59
-66.33
-78.42
-72.41
-50.84
-20.23
10.16
30.82
34.57
18.33
-16.75
-66.50
-125.24
-186.54
-243.28
-287.37
-310.48
-306.10
-272.20
-212.91
-137.70
-58.53
13.75
71.88
112.24
133.32
134.03
113.24
71.62
14.04
-49.11
-103.61
-135.58
-136.57
-106.77
-55.20
3.77
55.57
89.63
100.99
89.27
56.54
6.07
-57.20
-125.43
-187.26
-229.43
-240.60
-215.33
-156.66
-75.93
10.16
84.28
132.60
147.53
128.46
81.02
15.58
-54.47
-115.08
-153.93
-162.82
-139.64
-88.80
-20.37
52.08
114.67
156.18
169.84
153.87
110.92
47.24
-27.76
-102.41
-163.99
-200.69
-204.41
-173.21
-112.65
-35.24
42.46
104.13
137.39
136.44
102.76
44.17
-26.98
-96.28
-149.87
-177.19
-172.70
-137.23
-77.67
-5.40
65.70
121.97
152.26
150.02
114.90
53.55
-21.10
-92.19
-142.84
-160.43
-139.65
-83.74
-3.50
85.29
165.35
221.26
242.54
226.04
177.04
108.66
38.95
-13.62
-35.24
-20.59
25.94
92.00
161.28
218.04
251.07
255.61
233.18
189.60
132.57
69.29
5.32
-55.88
-112.83
-165.45
-214.43
-260.47
-303.60
-342.82
-376.43
-402.81
-421.50
-433.40
-440.04
-442.33
-439.80
-431.25
-416.40
-397.28
-378.13
-363.31
-354.52
-349.24
-341.54
-325.14
-296.83
-257.86
-212.65
-165.86
-120.02
-75.49
-32.09
9.02
45.12
73.50
93.86
109.30
125.24
146.60
175.34
209.60
245.08
277.32
303.35
322.00
332.96
335.87
330.17
316.15
295.63
272.06
249.33
230.23
215.52
203.77
192.44
179.25
163.54
146.65
131.66
122.36
121.79
130.89
147.66
167.32
183.68
191.35
187.71
173.92
154.40
134.72
119.34
109.83
104.63
100.33
93.45
82.15
66.82
49.53
32.76
18.18
6.22
-3.66
-12.08
-19.09
-24.06
-26.27
-25.61
-23.09
-20.46
-19.57
-21.57
-26.49
-33.32
-40.37
-45.77
-47.79
-45.45
-38.77
-29.16
-19.09
-11.35
-7.91
-9.15
-13.72
-19.25
-23.43
-25.00
-24.19
-22.38
-21.34
-22.40
-25.96
-31.42
-37.46
-42.68
-46.12
-47.56
-47.53
-46.91
-46.68
-47.42
-49.30
-52.06
-55.26
-58.24
-60.12
-59.85
-56.24
-48.47
-36.41
-21.08
-4.67
9.88
19.73
23.10
19.86
11.71
1.46
-7.88
-14.22
-16.84
-16.40
-14.38
-12.38
-11.61
-12.57
-15.03
-18.27
-21.28
-23.05
-22.74
-19.83
-14.25
-6.43
2.75
11.94
19.56
24.26
25.23
22.68
17.75
12.08
7.23
4.12
2.76
2.51
2.48
2.09
1.20
0.17
-0.54
-0.64
-0.23
0.19
-0.05
-1.54
-4.43
-8.43
-12.82
-16.65
-18.97
-19.07
-16.63
-11.74
-4.90
3.09
11.21
18.48
24.12
27.76
29.46
29.79
29.59
29.69
30.71
32.73
35.33
37.74
39.13
38.83
36.60
32.60
27.35
21.72
16.70
13.29
12.26
13.84
17.54
22.24
26.63
29.68
31.15
31.38
31.00
30.41
29.53
28.04
25.79
23.09
20.58
19.02
18.64
19.09
19.70
19.92
19.84
20.15
21.76
25.09
29.72
34.27
37.04
36.78
33.38
28.05
22.80
19.62
19.51
22.02
25.23
26.60
23.90
16.11
3.75
-11.34
-26.70
-40.08
-50.03
-56.33
-59.61
-60.80
-60.42
-58.21
-53.60
-46.27
-36.98
-27.72
-21.26
-20.15
-25.61
-36.92
-51.42
-65.60
-76.18
-81.06
-79.60
-72.56
-61.61
-48.83
-36.14
-25.00
-16.68
-11.97
-10.81
-12.17
-14.66
-17.11
-18.79
-19.15
-17.51
-13.67
-7.66
0.43
10.44
21.63
32.55
41.85
49.05
54.79
58.87
60.31
58.29
53.14
46.40
40.23
36.89
38.03
43.71
49.85
49.58
36.43
7.31
-36.69
-91.22
-150.08
-206.73
-245.71
-253.39
-226.64
-175.97
-117.08
-61.34
-13.39
26.29
58.54
83.87
102.25
111.49
110.07
98.61
78.79
51.36
15.49
-30.47
-85.00
-143.97
-200.26
-244.35
-266.94
-263.00
-234.15
-187.68
-132.87
-77.14
-25.10
21.45
63.23
102.51
141.86
183.69
230.25
283.35
342.92
404.86
459.85
497.05
508.17
490.83
449.17
392.15
330.36
272.60
223.34
180.50
140.00
99.04
57.48
16.62
-22.44
-59.50
-94.82
-128.58
-163.84
-202.14
-241.98
-279.18
-309.49
-330.32
-341.11
-342.36
-335.20
-325.75
-319.55
-319.49
-325.63
-337.51
-355.59
-381.11
-414.87
-427.72
-401.83
-338.89
-258.33
-180.70
-116.98
-69.37
-36.42
-15.47
-2.70
2.97
5.62
12.60
31.67
65.74
110.73
157.19
195.18
218.91
224.94
215.68
198.20
181.21
170.57
167.31
167.21
163.41
149.63
120.27
74.78
18.58
-38.72
-88.73
-123.07
-136.14
-125.31
-91.65
-42.02
12.10
57.64
83.94
86.35
68.10
38.24
7.67
-15.46
-28.83
-35.08
-38.40
-41.96
-47.18
-54.34
-64.41
-79.61
-102.88
-136.36
-179.76
-228.39
-274.02
-307.24
-320.91
-313.20
-288.34
-254.82
-219.03
-187.96
-164.56
-147.00
-130.57
-110.74
-85.72
-57.05
-28.40
-3.45
15.54
29.35
40.98
54.08
71.17
92.26
114.76
134.35
146.87
149.70
143.74
132.96
122.86
118.39
122.48
135.61
156.09
180.42
202.87
216.16
212.44
186.05
136.80
72.05
5.95
-45.40
-70.86
-69.94
-53.41
-38.38
-39.84
-63.21
-101.93
-141.25
-165.97
-167.45
-146.48
-110.69
-69.26
-27.93
12.69
55.06
101.27
150.23
198.03
240.49
276.44
309.05
344.29
387.41
439.12
494.13
542.38
573.30
580.10
562.55
526.65
481.73
436.72
397.62
367.10
345.54
332.50
326.99
326.90
328.33
325.83
313.87
288.86
250.93
204.14
155.37
111.85
78.48
56.35
42.54
31.58
17.68
-3.02
-31.28
-65.02
-100.65
-134.98
-166.49
-195.62
-224.01
-253.60
-286.09
-322.41
-362.04
-402.18
-437.06
-458.13
-456.08
-423.89
-360.25
-271.64
-171.57
-77.12
-3.92
38.17
47.24
28.41
-9.33
-56.66
-106.66
-155.70
-202.92
-248.71
-293.27
-336.07
-376.29
-413.95
-450.13
-486.24
-522.28
-555.48
-580.39
-590.53
-581.50
-553.49
-511.79
-464.85
-420.82
-384.42
-355.89
-332.15
-309.35
-285.15
-259.54
-234.09
-210.51
-189.64
-171.16
-154.06
-137.36
-120.74
-104.65
-90.00
-77.66
-67.93
-60.27
-53.52
-46.22
-37.13
-25.65
-11.79
3.90
20.69
37.90
55.03
71.74
87.66
102.27
114.79
124.28
129.85
130.92
127.47
120.15
110.17
99.17
88.81
80.41
74.71
72.15
72.60
75.65
80.88
88.21
98.04
111.01
127.61
147.74
170.98
196.29
222.39
248.14
272.97
297.05
321.39
347.57
377.31
412.32
452.52
495.15
534.75
564.45
578.36
573.71
551.87
517.83
480.00
445.57
418.13
397.15
379.36
361.05
339.60
313.70
283.18
252.10
223.97
200.48
181.09
164.11
148.42
134.15
122.44
114.94
118.84
139.27
177.09
228.57
287.62
348.62
407.28
460.02
503.50
541.99
578.55
613.14
642.00
659.95
663.62
652.86
630.37
555.37
410.13
204.10
-27.05
-241.74
-413.67
-536.30
-615.58
-661.50
-683.55
-681.96
-657.43
-614.11
-560.05
-504.51
-454.30
-412.49
-379.37
-353.89
-328.45
-298.32
-263.22
-226.96
-195.08
-171.80
-158.80
-155.58
-160.27
-166.76
-169.76
-166.92
-158.56
-146.82
-134.20
-122.83
-114.66
-111.62
-114.13
-117.43
-120.38
-123.65
-129.19
-139.22
-155.62
-179.64
-212.06
-252.84
-301.78
-358.89
-422.16
-486.55
-543.82
-584.48
-600.74
-589.56
-553.86
-501.35
-442.05
-384.24
-332.46
-287.49
-247.77
-211.20
-176.22
-142.09
-108.56
-75.91
-44.23
-13.72
15.37
42.93
69.01
94.31
120.41
149.53
183.73
223.84
267.90
310.70
344.71
362.94
362.47
346.78
324.98
308.74
307.55
324.53
355.27
389.94
417.87
431.73
429.46
412.37
383.32
344.91
299.36
249.45
199.23
153.70
117.38
92.00
74.23
58.14
38.67
14.48
-11.65
-35.23
-53.23
-65.94
-76.70
-91.42
-114.40
-146.12
-183.29
-220.84
-255.03
-284.85
-311.08
-324.84
-317.89
-286.12
-232.82
-166.58
-96.23
-28.62
31.68
82.58
124.08
156.00
178.60
193.52
202.16
205.89
204.88
198.37
185.86
167.37
142.44
111.02
73.83
32.08
-13.12
-58.97
-103.94
-146.83
-186.29
-221.35
-250.56
-271.81
-282.53
-280.52
-266.83
-244.95
-219.54
-195.62
-178.02
-170.94
-177.97
-201.70
-230.18
-252.78
-260.58
-248.31
-215.41
-165.51
-106.17
-47.32
1.81
35.96
53.37
56.56
50.37
38.93
24.85
9.20
-7.21
-22.59
-34.23
-41.19
-44.74
-45.79
-45.97
-46.54
-48.00
-50.01
-51.50
-51.30
-49.73
-47.97
-47.51
-50.03
-56.09
-65.33
-76.55
-87.83
-97.13
-103.28
-105.57
-103.46
-99.65
-95.47
-91.65
-88.48
-85.74
-83.05
-80.30
-77.59
-75.27
-73.87
-73.39
-73.63
-74.16
-74.28
-73.19
-70.23
-65.05
-57.74
-48.84
-38.79
-28.11
-17.08
-5.66
6.47
19.68
34.26
50.07
66.67
83.69
100.85
118.28
136.54
156.40
178.48
202.84
228.83
255.27
280.96
304.99
327.05
347.31
366.19
384.14
401.75
419.90
439.59
461.25
483.46
502.20
511.09
503.19
473.42
420.64
348.12
262.25
170.44
79.36
-5.44
-78.80
-135.23
-169.23
-177.07
-159.14
-121.32
-74.03
-29.36
2.69
17.01
14.08
-1.39
-23.13
-45.35
-63.54
-74.21
-74.43
-61.97
-36.44
-0.50
39.76
76.20
101.14
110.16
103.54
85.79
63.49
42.48
25.80
12.98
0.91
-14.58
-37.00
-67.91
-106.28
-148.66
-189.98
-225.19
-250.66
-265.27
-270.56
-269.86
-266.85
-264.25
-263.14
-262.98
-262.16
-258.49
-249.76
-234.33
-211.82
-183.57
-152.46
-121.90
-94.13
-68.94
-43.66
-14.69
20.16
59.59
98.54
129.83
147.15
148.02
135.01
114.67
94.59
80.02
71.89
67.11
60.91
49.74
33.05
12.99
-7.37
-25.97
-42.37
-57.02
-69.76
-79.00
-82.27
-77.76
-65.73
-48.43
-28.96
-9.79
7.98
24.19
38.57
50.35
58.68
63.71
67.37
72.78
82.55
96.62
111.37
120.63
118.47
102.35
74.81
42.89
15.32
-0.82
-2.16
10.78
35.08
67.08
103.37
140.57
174.98
202.80
221.34
230.53
233.25
234.29
237.92
245.54
254.82
260.73
258.05
243.71
218.10
184.71
148.71
115.46
89.39
73.47
68.75
74.18
86.46
100.38
109.82
109.41
96.04
69.64
32.95
-9.79
-54.32
-97.32
-136.63
-170.70
-198.05
-217.22
-227.28
-228.46
-222.39
-211.69
-199.10
-186.55
-174.58
-162.46
-148.80
-132.41
-113.08
-91.74
-70.18
-50.16
-32.59
-17.14
-2.74
11.15
23.50
31.40
31.01
19.48
-3.36
-34.56
-69.03
-101.74
-129.45
-151.16
-167.05
-177.01
-179.56
-172.23
-153.01
-121.83
-81.43
-36.68
6.86
44.40
72.77
90.42
97.01
93.19
80.77
62.84
43.57
27.22
16.87
13.21
14.43
17.32
18.93
17.93
14.75
10.54
5.62
-1.30
-12.46
-29.52
-51.81
-75.92
-96.54
-108.68
-109.58
-99.73
-82.38
-62.08
-42.98
-27.80
-17.46
-11.43
-8.50
-7.36
-7.17
-7.60
-8.55
-9.72
-10.25
-8.76
-3.78
5.68
19.80
37.99
59.26
82.66
107.25
131.87
154.67
173.08
184.22
185.83
177.07
159.00
134.53
107.75
82.92
63.44
51.32
47.02
49.88
58.56
71.14
85.02
96.81
102.52
98.62
83.32
57.39
23.86
-13.40
-51.45
-89.23
-127.10
-165.48
-203.37
-238.24
-267.10
-288.16
-302.01
-311.44
-320.02
-330.40
-343.19
-356.91
-368.80
-375.98
-376.19
-368.15
-351.63
-327.17
-295.94
-259.46
-219.18
-176.38
-132.11
-87.25
-42.87
-0.38
38.49
72.28
100.18
122.73
141.74
159.83
179.86
204.22
234.70
272.18
316.15
363.92
410.32
448.13
469.93
470.53
448.90
408.50
355.98
298.40
240.75
184.81
130.01
75.82
23.61
-22.91
-59.29
-82.98
-95.34
-101.73
-109.47
-124.66
-149.38
-181.25
-215.13
-245.85
-270.16
-287.03
-296.57
-298.65
-292.60
-277.09
-252.27
-220.86
-187.63
-157.79
-135.51
-123.36
-122.11
-130.67
-144.07
-155.38
-157.68
-146.22
-119.72
-80.43
-33.16
16.62
64.73
111.89
160.06
209.71
258.26
301.49
336.24
361.98
381.10
397.96
420.83
456.49
506.55
565.98
624.81
671.75
697.87
699.32
656.21
563.79
435.65
299.44
181.85
95.84
40.07
6.58
-12.38
-19.74
-15.84
-1.16
20.77
43.33
59.56
65.40
60.44
46.96
28.59
11.32
-0.41
-5.87
-7.85
-10.72
-17.81
-30.30
-47.34
-66.96
-85.56
-100.26
-110.61
-118.82
-128.60
-143.23
-164.37
-191.64
-222.95
-254.63
-283.29
-307.35
-327.60
-346.54
-367.01
-391.21
-420.39
-454.87
-493.75
-534.56
-572.58
-600.74
-611.02
-597.38
-559.10
-502.57
-439.77
-384.02
-344.75
-324.37
-318.69
-320.36
-323.17
-324.39
-324.21
-323.19
-319.96
-310.76
-291.42
-259.89
-218.02
-171.20
-126.15
-88.19
-59.49
-39.06
-24.02
-11.54
-0.07
10.31
18.54
23.63
25.52
25.39
25.17
26.84
31.61
39.50
49.34
59.25
67.32
72.25
73.68
72.20
69.16
66.13
64.43
64.79
67.22
71.22
76.15
81.83
88.75
98.05
111.12
128.99
151.94
179.52
211.06
245.90
283.20
321.40
357.71
388.41
410.09
421.12
422.36
416.54
406.66
394.25
378.91
359.31
334.93
307.45
280.47
257.97
242.28
233.02
227.73
223.66
219.71
217.28
219.72
230.69
252.22
283.52
320.90
358.81
391.52
414.56
425.46
423.65
409.84
385.29
351.58
310.67
264.99
217.21
169.84
124.87
84.07
49.24
22.44
5.37
-1.77
-1.09
3.08
5.80
3.40
-4.92
-17.48
-31.37
-44.37
-56.26
-68.56
-83.19
-100.79
-119.95
-137.86
-152.03
-161.35
-166.29
-168.21
-168.20
-166.52
-162.80
-157.18
-150.89
-146.53
-146.09
-149.12
-152.15
-150.01
-138.58
-117.16
-89.34
-61.61
-42.36
-37.37
-47.46
-68.37
-92.68
-112.97
-124.23
-125.16
-118.27
-112.18
-115.89
-134.64
-167.04
-205.37
-238.85
-257.41
-255.03
-231.96
-199.85
-173.55
-164.79
-177.84
-209.63
-253.34
-302.03
-350.78
-397.38
-448.21
-509.04
-580.60
-657.15
-730.01
-792.67
-843.24
-883.60
-874.55
-790.65
-630.35
-421.33
-203.09
-5.38
158.88
288.36
386.76
459.05
503.72
520.47
513.27
491.29
465.40
443.97
430.79
425.87
427.17
427.01
419.20
401.68
378.22
353.73
332.08
314.42
299.43
284.60
264.23
234.09
193.33
145.74
97.57
54.31
19.04
-7.61
-26.80
-42.04
-56.43
-71.36
-85.85
-97.78
-105.45
-108.31
-107.33
-104.40
-101.97
-101.87
-105.01
-111.35
-120.09
-129.56
-136.77
-137.70
-128.49
-107.35
-75.97
-39.73
-5.68
20.15
34.91
39.47
37.01
30.79
22.75
13.48
3.02
-7.95
-17.76
-24.84
-28.67
-30.23
-31.22
-33.45
-36.47
-38.24
-35.72
-25.87
-6.69
22.18
59.11
99.99
138.51
167.63
181.33
177.04
157.10
128.22
98.95
76.29
63.15
58.20
57.79
58.41
58.65
59.31
61.85
66.65
72.41
76.24
75.85
70.64
61.92
51.70
42.01
33.59
25.58
16.10
3.23
-13.83
-34.08
-55.11
-73.75
-87.44
-95.18
-97.76
-97.19
-95.93
-95.88
-97.93
-102.14
-107.63
-112.42
-113.12
-105.67
-87.18
-57.91
-22.12
13.50
42.59
62.30
74.19
83.04
93.61
107.89
124.52
140.17
151.53
156.43
153.95
143.38
124.81
99.53
70.60
42.57
20.05
5.78
-0.43
-0.92
0.49
1.10
-0.27
-4.46
-12.61
-26.25
-46.25
-71.79
-99.80
-126.79
-148.36
-161.08
-164.22
-159.68
-151.08
-142.50
-137.92
-135.86
-136.68
-138.62
-137.79
-129.36
-109.48
-77.14
-35.05
10.17
51.79
79.33
86.49
74.74
51.35
24.12
-2.40
-26.99
-50.25
-72.30
-92.74
-109.48
-120.74
-126.43
-128.34
-130.48
-134.30
-139.98
-146.49
-152.67
-156.85
-158.06
-156.62
-154.15
-152.74
-153.63
-157.25
-162.90
-169.34
-174.56
-177.85
-179.00
-178.49
-177.10
-175.24
-173.19
-170.87
-168.23
-165.13
-161.68
-158.18
-155.13
-153.00
-151.76
-150.96
-149.70
-146.76
-140.78
-130.54
-115.04
-93.80
-66.89
-34.90
0.95
38.99
77.18
113.30
145.21
171.18
189.98
201.07
204.58
201.24
192.26
179.14
163.43
146.61
129.94
114.36
100.45
88.46
78.30
69.64
62.06
55.06
48.19
41.10
33.58
25.56
17.11
8.44
-0.16
-8.35
-15.78
-22.14
-27.19
-30.81
-33.00
-33.89
-33.73
-32.85
-31.55
-30.18
-28.98
-28.10
-27.63
-27.54
-27.73
-28.10
-28.48
-28.78
-28.90
-28.79
-28.45
-27.88
-27.11
-26.18
-25.15
-24.09
-23.04
-22.01
-21.03
-20.06
-19.01
-17.86
-16.56
-15.13
-13.62
-12.11
-10.68
-9.38
-8.21
-7.12
-6.07
-5.03
-4.01
-3.04
-2.16
-1.41
-0.71
0.07
1.09
2.48
4.29
6.40
8.58
10.59
12.27
13.64
15.00
16.77
19.38
23.04
27.64
32.73
37.75
42.29
46.33
50.32
55.04
61.24
69.28
78.88
89.22
99.25
108.28
116.37
124.77
135.17
148.98
166.65
187.31
209.28
230.61
249.97
267.07
283.02
299.54
318.41
341.06
368.31
399.96
434.23
467.31
493.45
507.11
504.15
483.59
448.48
405.12
360.97
322.08
291.36
268.28
252.75
244.23
242.17
245.81
253.59
263.30
272.39
278.68
281.16
285.53
297.96
322.58
359.16
403.18
448.01
487.60
518.31
539.49
561.11
592.80
639.71
699.87
765.34
826.30
875.12
907.86
923.87
934.92
951.08
976.73
1008.55
1038.07
1057.22
1062.55
1055.40
974.78
786.58
487.72
113.42
-278.47
-635.02
-925.59
-1141.68
-1288.94
-1379.23
-1415.30
-1401.52
-1346.22
-1263.14
-1168.72
-1077.13
-995.42
-926.14
-868.79
-814.12
-755.53
-691.82
-628.59
-575.32
-541.15
-531.89
-545.32
-573.24
-598.62
-604.79
-580.59
-525.31
-448.82
-370.72
-306.96
-269.18
-261.98
-279.11
-308.53
-336.85
-354.88
-359.10
-351.01
-334.48
-314.69
-296.74
-284.01
-279.05
-279.52
-283.16
-285.01
-278.03
-255.02
-212.38
-152.21
-81.62
-10.46
52.27
100.71
133.92
154.79
168.01
177.78
186.68
195.87
205.40
215.01
224.25
233.54
244.13
257.99
277.46
304.72
341.01
385.21
432.78
475.60
504.05
510.12
490.68
449.31
395.53
341.47
297.17
266.92
248.33
234.60
218.23
194.39
162.39
124.85
85.79
48.70
15.76
-11.91
-33.39
-47.52
-53.23
-50.34
-40.17
-25.41
-9.43
5.00
16.34
24.42
29.80
33.02
34.05
32.26
26.90
17.53
4.51
-11.34
-28.97
-47.61
-67.08
-87.56
-109.48
-133.41
-159.96
-189.19
-220.03
-249.44
-272.65
-284.35
-280.72
-261.58
-230.80
-194.86
-159.66
-127.81
-97.84
-66.18
-30.84
5.82
36.99
54.34
52.31
31.08
-3.53
-43.25
-81.33
-115.07
-145.22
-173.44
-199.21
-219.09
-228.86
-226.93
-216.56
-205.15
-200.81
-208.17
-226.67
-251.29
-275.84
-295.99
-310.15
-317.98
-317.95
-306.72
-280.45
-237.92
-182.70
-122.71
-67.24
-23.10
7.79
27.85
40.97
49.50
52.80
48.37
34.57
13.18
-9.96
-26.68
-29.98
-17.35
7.89
37.83
63.74
80.20
87.25
90.00
95.21
107.23
125.78
146.32
162.64
169.98
166.80
153.96
132.86
104.07
67.59
24.74
-20.07
-59.57
-85.88
-94.12
-84.84
-63.84
-39.43
-18.72
-5.10
2.11
5.42
6.63
5.47
0.16
-10.30
-24.42
-37.82
-44.78
-40.96
-25.53
-1.80
24.05
45.44
58.13
61.49
58.39
53.68
52.04
56.17
65.87
78.61
91.08
100.87
107.35
111.31
113.40
112.64
106.16
90.26
62.86
25.37
-16.59
-54.77
-81.36
-92.01
-87.67
-74.14
-59.43
-50.55
-50.79
-59.09
-71.09
-81.51
-86.52
-85.08
-78.76
-70.54
-63.34
-58.85
-57.29
-57.88
-59.39
-60.67
-60.50
-57.30
-49.33
-35.19
-14.85
9.55
33.89
53.40
64.62
66.99
62.94
56.48
51.00
47.79
45.95
43.53
39.51
34.59
31.17
31.79
37.78
48.61
61.95
74.37
82.14
81.97
71.57
50.64
21.29
-11.87
-42.86
-66.19
-78.71
-80.56
-74.78
-65.76
-57.44
-52.18
-50.64
-52.46
-57.08
-63.83
-71.78
-79.25
-84.12
-84.65
-80.89
-75.63
-73.93
-81.28
-100.36
-128.96
-159.59
-181.72
-185.69
-166.43
-125.52
-70.58
-12.67
37.34
71.75
87.73
87.43
76.89
63.91
55.61
56.06
64.78
77.19
86.84
88.69
81.74
69.74
59.18
55.63
60.64
70.88
80.12
82.87
77.66
67.69
58.61
54.89
57.05
61.60
63.47
59.52
50.66
41.37
37.26
41.93
55.23
73.31
90.42
101.10
102.19
93.65
78.32
60.52
44.17
31.16
21.09
12.28
3.49
-4.98
-11.67
-15.74
-18.72
-24.44
-36.98
-57.56
-82.68
-104.82
-115.78
-110.70
-90.68
-61.96
-32.77
-9.36
6.18
15.58
21.79
26.33
28.02
23.91
11.76
-8.03
-31.78
-54.21
-70.81
-79.70
-81.98
-80.63
-78.60
-77.48
-77.33
-77.31
-76.64
-75.17
-73.50
-72.65
-73.51
-76.22
-79.99
-83.04
-83.05
-77.77
-66.01
-48.32
-27.44
-7.74
6.21
11.30
7.36
-2.51
-13.13
-19.39
-18.48
-10.96
-0.05
10.15
16.65
18.68
17.38
14.58
11.65
9.07
6.73
4.54
2.86
2.46
4.24
8.93
16.94
28.54
43.83
62.51
83.18
102.70
116.19
118.01
103.83
73.00
29.52
-19.05
-64.44
-100.81
-126.69
-144.33
-157.39
-168.05
-175.52
-176.57
-167.74
-147.48
-117.29
-81.27
-44.03
-9.06
22.48
51.60
80.31
110.53
143.40
179.42
218.40
259.32
299.50
334.30
357.67
363.85
349.57
315.55
266.22
207.91
146.97
88.44
36.16
-6.53
-36.57
-51.62
-50.69
-34.26
-3.88
38.41
89.73
145.35
197.75
237.11
253.89
242.18
202.81
144.27
80.78
27.64
-4.07
-11.12
1.47
23.58
44.67
57.76
60.76
55.10
42.98
25.71
3.91
-21.11
-46.38
-68.24
-84.80
-97.72
-111.36
-129.75
-153.20
-177.31
-195.56
-203.09
-199.40
-187.52
-170.97
-150.74
-124.98
-91.67
-51.74
-10.40
25.31
50.44
65.02
73.67
82.08
92.59
102.28
104.90
94.92
71.25
38.28
3.70
-24.98
-43.23
-50.18
-47.55
-37.84
-23.38
-6.25
11.19
26.13
36.11
39.96
38.47
34.04
29.55
26.96
26.83
28.90
33.12
40.38
51.90
67.77
85.53
99.83
103.95
92.49
63.90
21.25
-28.59
-77.30
-117.41
-144.04
-155.39
-152.31
-137.53
-114.52
-86.80
-57.63
-30.25
-8.23
4.64
5.10
-8.29
-34.16
-68.60
-106.34
-142.33
-172.84
-195.48
-208.78
-211.82
-204.46
-187.98
-165.21
-139.72
-114.61
-91.75
-72.04
-56.37
-46.36
-44.00
-50.33
-64.00
-81.26
-97.50
-109.35
-116.14
-119.67
-122.43
-125.54
-127.66
-125.58
-115.80
-96.08
-66.17
-27.49
17.39
65.15
111.99
153.97
187.74
210.98
222.75
223.63
215.50
201.79
187.35
178.07
179.41
194.65
223.40
261.53
302.76
341.01
372.20
394.24
405.89
405.25
389.64
356.92
307.62
246.09
180.19
119.33
72.09
44.26
37.72
50.16
75.63
105.92
132.51
148.77
151.70
142.20
123.78
100.62
75.41
48.66
19.19
-14.21
-50.73
-86.24
-113.33
-123.49
-110.60
-74.40
-21.84
34.37
80.03
104.53
104.35
83.28
49.52
11.44
-25.50
-59.32
-89.84
-116.48
-137.35
-150.07
-153.94
-151.72
-149.76
-155.90
-175.41
-207.71
-245.09
-275.20
-286.18
-271.72
-233.36
-178.61
-116.86
-55.35
1.87
52.34
92.63
117.33
121.52
104.54
72.37
36.30
8.32
-4.29
-1.50
11.13
26.52
40.06
50.78
59.59
66.52
69.65
66.30
55.83
41.38
28.70
23.00
25.33
31.13
32.03
20.57
-5.51
-41.38
-76.48
-99.49
-103.33
-88.50
-63.04
-39.15
-28.47
-37.43
-64.76
-102.19
-138.11
-162.60
-171.75
-169.22
-163.84
-165.35
-179.66
-206.34
-239.34
-270.03
-290.83
-297.91
-292.01
-276.99
-257.89
-238.96
-222.76
-209.95
-200.06
-192.00
-184.79
-177.59
-169.58
-160.27
-150.05
-140.97
-136.70
-141.22
-156.29
-179.26
-202.79
-217.09
-214.15
-191.28
-152.10
-104.51
-56.82
-14.59
20.24
48.59
72.61
94.65
117.10
141.95
169.68
197.61
219.17
225.62
210.04
171.70
118.11
63.58
24.03
11.22
29.04
73.50
135.62
205.14
272.86
331.00
372.55
391.33
383.97
352.40
304.86
253.93
211.68
184.05
167.85
152.54
125.83
81.01
21.55
-39.16
-83.32
-96.62
-74.82
-25.61
34.68
87.64
119.33
123.69
102.13
60.74
7.28
-50.49
-105.11
-149.03
-175.39
-179.33
-159.69
-119.40
-64.64
-3.25
56.97
109.32
148.78
172.48
180.29
175.08
161.93
146.34
131.95
119.24
105.83
88.36
64.70
35.16
2.21
-30.69
-60.69
-86.21
-106.93
-123.03
-134.50
-141.02
-142.32
-138.79
-131.83
-123.59
-116.13
-110.32
-105.43
-99.52
-90.67
-78.40
-64.16
-50.82
-41.19
-36.60
-36.39
-38.42
-40.46
-41.17
-40.64
-39.77
-39.73
-41.12
-44.37
-49.86
-57.96
-68.56
-80.46
-91.41
-98.84
-101.06
-97.93
-90.89
-82.07
-73.18
-64.92
-57.01
-48.75
-39.59
-29.56
-19.22
-9.46
-1.31
4.07
5.34
1.41
-7.93
-21.47
-36.54
-49.54
-56.94
-56.42
-47.69
-33.05
-16.68
-3.57
2.44
-0.02
-9.31
-21.54
-32.38
-38.70
-39.76
-37.03
-33.11
-30.15
-29.07
-29.62
-31.11
-33.16
-35.61
-38.09
-39.42
-37.80
-31.79
-21.65
-10.11
-1.31
1.25
-2.78
-9.81
-13.55
-7.78
10.58
40.23
76.25
112.55
144.10
168.10
183.41
189.34
185.00
169.48
143.29
109.43
73.49
42.09
20.84
12.51
16.49
29.51
47.26
65.91
82.90
96.92
107.37
114.10
117.08
116.53
112.47
104.47
91.47
72.42
47.39
18.61
-9.40
-31.28
-42.91
-43.21
-34.74
-22.66
-12.77
-9.51
-14.55
-26.54
-41.83
-55.77
-64.41
-65.87
-60.88
-52.19
-42.93
-35.06
-28.65
-22.46
-15.25
-6.88
1.37
7.70
10.71
10.21
7.31
4.06
2.93
6.23
15.51
30.81
50.23
69.79
84.28
88.93
81.40
62.89
38.08
13.46
-4.96
-13.91
-13.79
-8.32
-2.96
-2.76
-10.78
-27.35
-50.12
-74.67
-95.43
-106.79
-105.00
-89.72
-65.00
-38.49
-18.98
-13.02
-22.17
-42.51
-66.45
-85.95
-95.41
-93.06
-80.64
-62.05
-41.73
-23.62
-10.70
-4.42
-4.34
-7.86
-10.82
-8.94
0.43
17.10
38.18
59.14
75.63
84.80
85.97
80.41
70.39
58.33
46.02
34.31
23.32
13.03
3.64
-4.47
-10.98
-16.23
-21.34
-27.75
-36.52
-47.57
-59.66
-71.00
-80.24
-87.02
-91.82
-95.59
-99.19
-103.36
-108.65
-115.44
-123.34
-131.07
-136.56
-137.82
-133.69
-124.13
-109.73
-90.94
-67.89
-40.96
-11.88
16.02
38.59
52.70
57.83
56.35
52.23
48.97
48.16
49.27
51.04
52.80
55.18
59.69
67.26
77.07
86.43
91.98
91.33
84.61
74.61
65.43
60.75
62.32
69.70
80.83
93.32
105.13
114.78
121.09
122.77
118.74
108.53
93.08
74.76
56.85
42.53
34.02
31.97
35.33
41.79
48.48
52.94
53.99
51.77
47.47
42.16
35.97
27.79
15.94
-0.72
-21.65
-44.59
-66.16
-83.00
-92.85
-95.05
-90.60
-81.82
-71.70
-62.96
-57.21
-54.44
-53.29
-51.84
-48.62
-43.50
-37.62
-32.92
-31.06
-32.38
-35.68
-38.48
-38.16
-33.01
-23.06
-10.16
2.84
13.47
20.78
25.92
31.18
38.59
48.69
60.17
70.90
79.13
84.32
86.89
87.83
88.03
88.43
90.30
95.04
103.67
115.81
129.25
140.70
147.33
148.43
145.87
142.93
142.28
144.52
147.75
148.74
144.86
135.40
122.12
108.29
97.34
91.13
89.48
90.26
90.37
87.26
79.70
68.68
57.20
49.68
50.52
62.32
84.64
113.67
143.44
167.77
182.58
187.17
184.20
178.13
173.10
171.37
172.80
175.76
178.28
179.26
178.64
177.04
175.02
172.34
168.01
160.44
148.42
131.84
112.08
91.76
73.76
60.21
51.76
47.78
46.86
47.69
49.62
52.43
56.04
59.93
62.96
63.67
60.67
53.12
40.82
24.22
4.15
-18.33
-42.07
-65.82
-88.34
-108.70
-126.59
-142.61
-158.12
-175.00
-194.79
-218.05
-243.98
-270.63
-295.77
-317.92
-337.02
-354.54
-372.99
-394.97
-422.09
-454.40
-490.15
-525.57
-555.22
-572.76
-572.66
-552.33
-513.88
-464.26
-413.36
-370.25
-339.49
-319.37
-302.96
-281.62
-249.16
-204.58
-152.15
-98.98
-51.73
-14.17
13.33
32.57
45.74
54.15
57.79
56.27
49.88
40.43
31.04
24.97
24.43
29.63
38.64
48.46
56.27
60.78
62.50
63.17
64.47
66.87
69.30
69.95
67.64
62.64
56.54
50.98
46.37
41.60
34.73
24.58
11.88
-0.55
-9.28
-11.92
-8.28
-0.21
9.59
18.89
26.73
33.32
39.50
45.92
52.64
58.94
63.47
64.62
60.97
52.07
38.86
23.68
9.78
0.18
-3.25
-0.34
7.64
18.55
30.44
42.04
52.76
62.38
70.54
76.37
78.67
76.77
71.15
63.76
57.71
56.00
60.27
69.94
82.31
93.42
99.62
98.94
91.41
78.75
63.41
47.63
32.97
20.35
10.39
3.50
-0.22
-1.30
-0.93
-0.60
-1.15
-2.22
-2.44
-0.08
5.74
14.43
23.87
31.41
34.94
33.81
29.05
22.70
17.03
13.99
15.05
21.07
32.26
47.84
65.90
83.76
98.66
108.70
113.55
114.58
114.37
115.85
121.20
130.93
143.79
157.17
167.96
173.44
172.08
164.12
151.72
138.54
128.79
125.82
130.83
142.08
155.16
164.16
163.79
151.12
126.63
93.88
58.01
23.90
-5.16
-27.66
-43.34
-52.34
-54.72
-50.85
-41.93
-30.50
-20.13
-14.60
-16.54
-26.63
-43.52
-64.67
-87.61
-111.07
-135.40
-162.22
-193.69
-231.80
-277.99
-332.80
-395.16
-461.66
-526.06
-580.06
-615.36
-626.43
-612.59
-578.29
-531.39
-480.19
-430.86
-386.43
-347.37
-313.02
-282.70
-255.88
-231.75
-208.83
-185.10
-158.92
-129.73
-98.35
-66.50
-35.98
-7.86
18.07
43.20
69.73
99.79
134.41
172.42
209.94
241.05
259.65
261.80
247.58
221.20
189.26
158.26
132.24
112.02
96.25
83.12
71.88
62.94
56.97
53.71
51.81
49.40
45.20
39.28
32.96
27.98
25.47
25.39
26.79
28.59
30.15
31.44
32.60
33.46
33.34
31.47
27.48
21.93
16.34
12.76
13.15
19.01
30.98
48.88
71.92
98.74
127.39
155.01
177.79
191.48
192.83
180.99
158.52
130.99
104.91
85.26
73.84
69.30
68.89
70.16
71.76
72.87
72.34
68.07
58.11
42.14
22.67
4.53
-6.94
-8.19
0.99
17.75
37.20
54.35
65.59
69.80
68.30
64.02
59.93
57.41
55.69
52.51
46.21
37.17
28.26
23.27
24.53
31.44
40.55
47.75
50.52
49.26
46.58
45.57
48.08
53.82
61.11
67.70
71.89
72.79
70.35
65.14
58.44
52.28
48.72
49.07
52.97
58.52
63.23
65.03
62.81
56.20
45.03
29.09
8.67
-14.61
-37.30
-54.83
-63.57
-62.83
-55.90
-48.92
-48.16
-56.86
-73.74
-93.44
-108.67
-113.05
-102.87
-77.85
-40.77
3.26
48.10
87.49
116.13
130.58
129.70
114.68
88.32
54.16
16.33
-20.55
-51.68
-72.90
-81.80
-78.94
-67.89
-53.98
-42.25
-35.37
-32.87
-31.79
-28.42
-20.11
-6.27
11.42
29.76
44.81
53.26
53.60
47.03
37.46
30.03
28.90
35.19
46.32
57.24
62.72
59.64
48.38
32.38
16.23
3.76
-3.24
-5.12
-3.71
-1.62
-1.69
-6.42
-17.15
-33.61
-53.85
-74.91
-93.46
-106.57
-112.13
-108.71
-95.76
-74.00
-45.80
-15.29
12.31
32.55
43.34
45.91
44.19
43.01
45.94
54.72
69.12
87.61
108.12
128.74
147.93
165.24
181.12
196.28
211.24
226.01
239.78
251.09
258.35
259.70
253.70
239.37
216.08
184.74
148.48
112.15
80.75
57.51
41.71
29.59
16.42
-2.77
-29.66
-61.98
-94.80
-123.70
-146.13
-164.15
-180.67
-196.54
-212.94
-229.07
-243.13
-253.58
-260.70
-264.81
-269.23
-275.27
-281.48
-290.58
-305.79
-328.98
-359.09
-392.55
-422.25
-445.97
-462.08
-469.21
-474.60
-487.61
-515.26
-559.21
-615.78
-674.86
-731.10
-779.32
-771.79
-677.56
-495.73
-260.23
-19.15
169.00
308.20
411.35
488.25
544.21
577.62
583.77
562.86
522.30
473.28
428.65
390.36
355.59
320.49
277.01
219.72
149.50
73.49
1.58
-55.75
-97.51
-127.47
-151.41
-178.46
-216.04
-265.77
-322.02
-373.42
-405.04
-407.61
-378.01
-319.88
-244.36
-165.14
-93.05
-32.83
16.88
61.81
106.71
154.59
205.91
257.83
305.35
343.02
366.39
373.43
365.46
346.17
320.74
294.14
269.47
247.22
225.79
202.55
175.37
143.86
110.00
77.97
53.05
39.70
40.17
53.77
77.59
108.14
142.42
177.97
211.97
240.45
258.82
263.98
256.77
243.10
232.28
233.28
250.50
281.43
317.41
347.31
362.13
358.09
336.49
301.90
259.27
212.36
162.81
110.27
53.84
-6.41
-68.43
-128.17
-180.33
-219.52
-241.75
-247.05
-240.76
-231.50
-227.58
-233.89
-250.98
-275.43
-300.74
-318.27
-319.69
-299.57
-256.47
-192.90
-115.12
-32.35
42.59
92.80
108.06
91.66
55.59
12.05
-31.38
-71.06
-105.26
-133.06
-153.76
-166.84
-172.98
-175.30
-177.79
-183.55
-193.53
-206.67
-220.82
-233.30
-242.92
-247.41
-246.94
-242.74
-236.36
-228.78
-220.22
-210.60
-199.72
-187.33
-173.56
-160.01
-148.09
-139.00
-133.06
-129.67
-127.56
-124.91
-119.39
-108.19
-93.84
-77.52
-60.30
-43.00
-26.38
-11.17
1.97
12.49
19.97
23.85
24.51
22.51
18.81
14.60
11.22
9.89
11.55
16.76
25.42
37.49
52.25
68.61
85.14
100.38
112.92
121.59
125.53
124.22
117.93
107.24
93.02
76.34
58.31
40.06
22.55
6.54
-7.48
-19.19
-28.50
-35.61
-40.86
-44.65
-47.41
-49.45
-51.01
-52.21
-52.96
-53.09
-52.39
-50.67
-47.37
-42.21
-35.18
-26.82
-18.05
-9.96
-3.56
0.33
1.11
-1.10
-6.01
-13.16
-22.11
-32.34
-43.13
-53.50
-62.33
-68.49
-70.08
-65.78
-55.23
-39.25
-19.59
1.70
22.78
42.33
59.48
76.48
95.45
117.32
141.24
165.01
186.43
204.22
218.28
229.31
243.78
267.12
301.53
344.76
391.46
436.08
475.12
507.80
535.37
568.81
617.43
685.04
767.62
855.34
937.21
1004.96
1054.44
1085.06
1110.12
1142.14
1188.08
1246.35
1309.16
1368.42
1420.14
1465.30
1436.37
1292.01
1024.81
671.23
293.63
-52.06
-335.86
-553.60
-717.37
-845.60
-943.91
-1013.77
-1054.70
-1068.15
-1058.98
-1034.06
-1000.75
-965.97
-935.32
-903.07
-862.16
-808.25
-743.23
-674.66
-611.51
-560.14
-522.72
-497.64
-475.75
-448.49
-411.21
-364.94
-315.06
-267.76
-227.43
-195.68
-171.92
-151.73
-131.24
-108.55
-84.81
-63.08
-46.47
-36.70
-33.49
-35.10
-38.05
-39.13
-36.45
-29.72
-20.03
-8.82
2.40
12.80
22.23
30.74
38.61
45.92
52.73
59.14
65.61
72.39
79.92
88.67
98.70
109.54
120.22
129.73
137.33
143.10
147.18
150.22
152.73
154.74
155.39
153.05
145.86
131.98
114.65
95.87
77.06
58.87
40.92
22.51
3.49
-15.10
-31.03
-41.94
-47.10
-47.37
-44.99
-42.80
-42.89
-46.02
-51.82
-59.76
-69.22
-79.45
-87.71
-88.82
-76.62
-47.38
-2.97
48.02
92.49
118.12
118.08
94.05
55.08
13.14
-22.03
-46.08
-60.20
-68.81
-76.56
-86.14
-97.56
-108.59
-116.11
-117.40
-111.33
-98.47
-80.60
-59.70
-36.95
-12.80
12.64
38.06
60.20
74.78
78.41
70.19
52.33
29.44
6.27
-13.91
-30.66
-45.70
-60.44
-74.30
-84.08
-85.59
-76.42
-57.95
-35.26
-15.52
-5.78
-9.35
-24.85
-47.24
-70.69
-90.70
-104.79
-111.64
-110.72
-104.97
-98.35
-95.31
-99.74
-114.40
-139.73
-172.89
-207.83
-237.78
-263.99
-290.76
-322.63
-361.24
-405.00
-449.42
-487.45
-510.78
-512.94
-500.45
-482.69
-466.73
-454.15
-443.44
-432.66
-419.75
-401.71
-375.78
-352.04
-340.15
-344.45
-363.26
-393.72
-435.10
-487.37
-547.37
-545.54
-439.95
-236.35
13.11
251.02
446.31
593.69
700.97
777.76
839.35
879.98
890.71
870.04
825.69
769.78
712.03
651.13
589.90
533.42
477.49
418.03
356.05
297.10
248.65
215.69
199.04
198.26
210.86
227.13
233.05
228.54
217.99
207.49
201.81
202.45
210.21
224.30
239.55
251.07
256.94
256.27
248.21
239.94
232.87
227.35
222.48
215.72
204.92
190.11
171.97
152.34
133.64
116.45
102.18
92.23
88.02
90.41
99.97
115.84
136.44
159.94
182.69
202.01
216.08
224.25
226.59
223.79
216.49
205.57
192.04
174.85
153.73
129.48
104.01
79.38
56.98
37.03
19.00
1.77
-20.34
-51.26
-91.45
-137.75
-185.88
-232.80
-277.48
-320.40
-362.64
-413.75
-479.60
-558.71
-642.33
-719.70
-783.31
-830.54
-862.68
-883.17
-909.66
-954.55
-1018.88
-1091.88
-1159.41
-1211.57
-1245.07
-1261.30
-1263.84
-1274.29
-1308.11
-1367.58
-1441.57
-1515.35
-1578.58
-1626.15
-1655.36
-1553.84
-1267.52
-821.90
-313.28
155.66
526.21
787.94
958.45
1063.78
1126.99
1146.59
1120.53
1055.83
971.43
888.19
819.48
769.18
734.52
710.29
678.38
627.86
558.11
484.00
422.57
384.52
372.23
382.36
409.06
438.18
459.74
469.31
470.89
471.00
474.18
481.31
490.01
495.30
486.93
456.75
402.96
332.48
257.20
189.51
138.17
106.03
90.08
82.69
76.65
68.43
59.09
51.30
46.88
45.55
45.60
45.06
43.38
41.21
39.97
41.18
45.00
50.00
53.55
53.63
47.63
34.91
16.83
-3.79
-23.56
-39.33
-49.06
-52.04
-48.88
-41.16
-30.96
-20.70
-12.92
-9.77
-12.55
-21.02
-33.45
-46.95
-58.04
-64.41
-65.63
-63.29
-59.93
-57.99
-58.77
-62.31
-67.76
-74.19
-80.89
-87.60
-94.55
-101.81
-109.17
-116.15
-122.13
-126.29
-128.24
-128.28
-125.55
-119.56
-109.97
-96.62
-79.73
-59.86
-37.91
-15.12
7.10
27.39
44.38
56.98
64.52
67.11
65.68
61.73
57.01
53.00
50.39
49.17
48.33
46.52
42.96
38.01
32.82
28.98
27.66
28.64
30.72
31.55
28.40
19.77
6.11
-10.46
-26.75
-39.07
-44.50
-41.27
-30.50
-16.62
-6.69
-8.85
-29.53
-70.48
-126.96
-192.08
-252.32
-294.43
-310.71
-301.52
-274.38
-240.08
-208.13
-183.40
-166.57
-155.56
-148.81
-145.81
-146.26
-149.08
-151.99
-151.79
-144.67
-129.25
-106.93
-81.62
-57.49
-36.58
-18.23
0.11
21.41
50.30
88.42
133.63
180.94
225.59
265.32
300.65
333.57
365.89
402.56
445.35
491.46
534.98
570.50
595.68
611.36
620.43
626.54
638.89
662.99
697.01
731.90
755.64
758.47
736.06
690.68
591.72
434.86
242.24
51.21
-108.09
-225.10
-304.34
-355.86
-388.94
-407.41
-412.65
-406.69
-394.36
-382.12
-374.82
-373.59
-376.63
-381.38
-385.28
-380.89
-363.62
-334.17
-297.65
-260.05
-225.38
-194.96
-167.60
-141.62
-112.88
-80.07
-45.53
-13.40
10.03
22.67
27.19
29.33
30.19
30.99
28.75
17.56
-7.31
-45.59
-92.84
-142.36
-189.41
-229.19
-256.11
-265.89
-255.96
-225.82
-172.53
-96.98
-10.49
68.41
121.72
141.72
133.33
110.05
86.26
74.98
74.77
79.79
84.19
83.79
78.03
69.34
61.55
55.31
53.50
57.66
66.38
76.63
80.43
69.87
41.51
-2.60
-56.21
-109.87
-159.34
-199.71
-226.33
-239.28
-240.58
-233.33
-218.84
-201.98
-186.73
-175.32
-164.98
-149.94
-127.06
-93.03
-44.71
17.05
85.78
151.61
194.89
198.99
176.28
138.68
90.45
40.47
-3.05
-35.09
-53.22
-57.31
-47.20
-23.76
7.16
39.42
69.37
94.80
115.25
132.00
146.12
157.93
165.09
160.55
138.70
99.92
50.15
-0.99
-43.67
-71.32
-81.15
-73.15
-50.41
-15.90
28.54
79.44
130.46
173.42
200.87
209.46
201.10
179.65
148.19
108.87
62.32
9.40
-46.72
-100.25
-144.15
-171.74
-180.75
-174.68
-158.93
-138.18
-114.48
-86.50
-51.64
-8.52
41.88
94.23
138.59
166.32
173.17
160.60
135.27
105.63
70.11
30.48
-3.31
-34.19
-69.30
-109.73
-151.44
-183.45
-194.21
-178.78
-144.09
-100.31
-57.31
-20.29
8.85
29.73
43.59
52.07
56.81
60.41
61.09
56.50
43.66
20.25
-13.62
-54.12
-95.74
-133.81
-166.01
-192.62
-214.23
-230.36
-239.34
-239.13
-228.39
-208.00
-178.95
-144.30
-105.47
-63.21
-18.01
30.05
81.56
137.59
198.21
261.12
320.92
372.25
408.68
424.59
417.69
390.44
348.90
299.62
247.14
181.71
103.41
21.31
-50.93
-102.59
-129.92
-135.40
-125.24
-106.62
-85.62
-64.14
-43.19
-23.57
-5.90
9.82
25.84
41.96
56.28
65.83
69.09
64.23
49.28
22.56
-16.35
-66.97
-121.56
-169.82
-202.12
-211.77
-198.67
-169.60
-135.43
-106.58
-88.79
-82.58
-85.07
-92.42
-101.90
-113.09
-126.68
-142.61
-160.10
-174.40
-180.79
-176.57
-161.47
-137.06
-106.12
-71.23
-33.54
4.55
42.17
78.79
113.29
143.77
167.87
183.51
189.97
187.95
179.73
168.89
158.56
150.85
146.75
146.41
149.14
153.10
154.88
150.26
136.08
111.69
80.09
47.27
19.83
2.21
-4.74
-3.26
2.46
9.18
14.82
18.34
18.90
15.62
7.62
-5.08
-21.62
-40.31
-58.89
-74.74
-84.48
-84.60
-72.50
-48.28
-15.07
21.25
53.47
75.25
82.81
75.80
57.06
31.95
6.38
-14.00
-25.32
-26.50
-19.39
-7.70
4.54
13.81
18.24
16.72
9.39
-2.80
-18.52
-35.95
-52.90
-67.30
-79.39
-84.54
-81.91
-71.71
-54.47
-30.73
-0.86
34.99
76.05
119.92
162.94
200.17
227.21
240.73
238.54
219.83
187.42
148.10
110.08
78.99
56.07
40.56
31.72
29.25
33.02
34.46
33.90
32.58
30.70
27.99
24.74
21.25
16.43
6.84
0.02
-3.57
-3.72
-1.99
0.78
4.80
10.60
17.65
23.88
26.40
18.52
-0.66
-33.07
-77.43
-129.79
-184.98
-238.59
-288.01
-331.83
-374.60
-413.01
-449.29
-484.48
-518.06
-547.93
-570.83
-582.81
-580.35
-568.03
-542.37
-510.17
-477.94
-448.59
-420.10
-387.02
-343.90
-255.33
-168.87
-84.51
-12.59
39.42
70.28
84.61
90.01
93.85
101.77
110.97
135.52
170.79
202.03
213.93
200.44
165.90
119.46
69.45
17.20
-29.20
-68.80
-99.66
-118.39
-121.72
-105.39
-70.97
-23.14
30.56
88.27
144.74
196.02
239.82
274.64
299.00
311.15
310.97
300.62
287.09
276.14
273.38
282.95
305.47
336.94
368.88
391.75
400.04
394.23
378.75
360.80
346.91
340.01
338.24
335.75
325.72
305.61
275.87
239.37
200.50
164.51
137.19
123.82
127.15
131.25
122.40
91.69
39.74
-25.58
-95.21
-162.46
-223.67
-277.60
-323.88
-359.38
-383.34
-394.58
-393.09
-380.67
-360.09
-333.58
-302.08
-265.14
-219.20
-158.80
-85.61
-5.57
72.79
139.80
185.99
203.91
190.69
151.46
97.57
43.02
0.05
-25.12
-33.34
-30.45
-23.30
-16.76
-11.31
-5.03
4.01
16.26
30.30
43.89
55.15
64.36
70.61
73.45
71.34
61.72
42.47
13.76
-20.62
-54.10
-78.07
-87.97
-84.45
-73.12
-61.37
-54.79
-55.44
-60.63
-65.74
-66.63
-61.42
-49.95
-33.14
-12.17
11.06
33.13
49.11
53.69
42.97
16.57
-20.70
-60.38
-91.39
-105.32
-100.22
-80.01
-51.00
-19.10
12.66
43.90
74.77
104.15
128.80
146.04
153.00
149.04
134.97
113.21
86.23
55.61
21.87
-15.01
-54.56
-95.36
-134.84
-171.07
-201.34
-222.52
-231.12
-224.06
-200.53
-163.75
-121.06
-76.71
-39.53
-14.99
-2.25
5.28
16.35
36.71
65.61
96.01
118.39
124.67
112.47
84.67
46.99
5.83
-32.54
-61.38
-73.62
-63.37
-29.11
24.84
87.30
142.89
177.62
184.48
166.34
134.06
101.27
78.46
69.69
71.22
74.08
68.85
49.24
14.14
-33.46
-88.02
-142.20
-187.62
-217.39
-228.22
-221.21
-201.80
-178.01
-157.52
-144.48
-136.65
-126.65
-107.02
-74.39
-30.18
20.64
72.94
123.06
163.12
183.59
180.42
156.95
119.04
71.47
16.65
-40.92
-95.19
-140.33
-171.48
-184.62
-179.43
-160.82
-135.68
-114.24
-102.07
-99.45
-101.52
-100.76
-89.54
-64.70
-29.64
9.91
41.70
57.76
53.76
29.45
-10.94
-58.80
-102.92
-131.70
-132.42
-103.76
-47.57
28.37
113.83
199.83
280.99
354.84
399.07
435.06
454.48
453.42
431.30
391.92
342.18
289.15
236.75
184.27
131.54
71.97
6.02
-61.24
-122.04
-169.15
-198.95
-212.85
-216.21
-212.87
-210.87
-213.24
-220.93
-233.30
-248.52
-263.61
-274.76
-278.23
-269.67
-251.13
-225.15
-195.79
-166.96
-141.35
-120.18
-104.00
-93.56
-87.98
-89.47
-96.36
-104.56
-108.28
-101.98
-82.32
-49.69
-8.48
35.97
71.65
90.22
87.43
65.22
31.50
-1.93
-23.54
-25.86
-4.39
32.01
74.69
115.24
148.18
171.85
187.63
197.98
204.71
212.92
217.63
218.83
218.03
218.58
224.77
240.62
267.34
272.71
284.12
284.72
265.19
223.02
165.16
105.58
61.42
45.61
61.28
104.88
155.34
194.81
210.26
198.52
163.97
117.34
70.08
30.26
4.75
-10.91
-19.62
-24.24
-25.38
-25.58
-26.83
-32.80
-47.50
-70.77
-102.70
-136.72
-163.93
-174.61
-166.69
-142.49
-109.07
-74.43
-43.14
-17.08
5.94
18.67
33.56
45.42
48.46
38.88
18.47
-5.30
-23.78
-33.04
-37.77
-48.59
-80.02
-140.81
-228.43
-329.69
-423.46
-483.48
-492.81
-453.10
-378.15
-284.28
-185.29
-92.00
-8.13
59.75
104.90
124.56
122.84
111.19
97.97
89.31
89.43
97.71
110.48
125.20
140.61
155.36
157.40
157.90
148.95
127.33
93.49
51.57
9.59
-23.78
-42.49
-43.65
-23.99
11.27
58.19
111.67
166.59
219.86
269.36
310.95
324.39
322.73
297.81
246.52
170.64
78.60
-14.44
-92.66
-148.35
-184.72
-210.66
-240.70
-284.05
-341.85
-406.15
-462.64
-487.24
-464.21
-396.91
-320.76
-257.10
-210.77
-173.26
-136.20
-91.21
-33.47
34.49
104.25
166.92
216.02
248.10
263.16
264.41
257.76
248.84
240.07
231.68
224.14
218.98
214.68
205.78
184.20
143.99
84.99
14.17
-55.27
-108.93
-137.14
-142.22
-137.30
-139.86
-162.86
-209.80
-274.88
-346.88
-413.86
-465.01
-492.20
-488.69
-449.81
-375.03
-271.20
-152.99
-39.07
54.59
120.44
160.42
183.07
197.60
209.84
221.13
230.64
238.18
244.88
251.79
257.35
256.66
242.89
210.76
159.93
95.90
27.65
-36.05
-90.10
-134.06
-169.60
-198.22
-219.34
-230.07
-227.06
-209.09
-178.47
-140.21
-99.85
-59.78
-20.43
18.77
57.95
96.40
132.54
164.60
191.57
213.67
234.16
255.22
276.64
296.21
311.75
322.05
326.98
327.07
323.20
319.16
317.22
316.51
313.27
302.46
279.48
241.73
189.97
113.59
18.37
-76.58
-149.81
-191.21
-205.15
-203.07
-195.38
-187.66
-181.17
-172.47
-159.87
-145.10
-131.65
-121.86
-115.80
-111.96
-108.62
-105.25
-100.49
-94.59
-89.36
-86.44
-85.98
-86.20
-84.54
-79.02
-69.06
-54.43
-36.23
-16.78
1.84
17.74
29.83
37.53
40.07
36.60
27.18
11.85
-9.54
-36.69
-67.07
-96.25
-118.03
-126.70
-119.38
-97.50
-66.92
-35.99
-11.95
1.75
5.81
3.89
-0.12
-3.96
-7.40
-11.04
-15.31
-19.59
-22.62
-23.79
-23.47
-22.76
-22.65
-23.64
-25.10
-25.71
-24.27
-20.36
-14.70
-8.86
-4.55
-2.30
-1.74
-1.43
0.39
4.94
12.33
21.61
31.39
40.22
47.40
52.82
56.59
58.77
59.56
59.51
59.53
60.16
60.65
59.04
52.94
40.91
23.88
5.59
-8.66
-14.28
-9.54
3.56
20.56
36.74
48.73
55.05
55.12
48.56
34.57
12.01
-19.33
-56.48
-92.54
-118.40
-126.04
-112.89
-83.53
-48.76
-21.64
-12.94
-26.48
-58.53
-100.30
-141.60
-174.04
-192.18
-194.19
-176.42
-141.05
-94.19
-44.26
0.48
34.61
56.78
69.44
76.57
81.47
85.61
90.13
96.50
106.33
120.00
135.66
150.13
158.88
156.83
139.60
105.92
58.26
1.74
-57.62
-114.17
-161.10
-191.23
-198.43
-179.19
-133.44
-65.44
15.73
96.50
156.51
180.53
166.79
125.59
70.90
13.22
-42.04
-92.85
-138.24
-178.89
-212.65
-236.05
-246.90
-245.12
-232.12
-209.26
-177.37
-133.54
-80.36
-21.87
37.16
91.60
137.04
170.65
191.83
201.73
202.35
195.53
184.17
171.12
158.24
146.46
136.16
127.73
121.36
116.65
112.27
107.45
101.95
95.76
89.30
83.19
78.16
74.78
73.44
74.17
77.09
81.35
84.34
81.90
69.79
46.18
13.23
-23.20
-55.67
-78.08
-88.17
-87.76
-80.97
-71.75
-61.86
-50.84
-37.61
-21.71
-4.09
13.32
28.70
41.50
51.58
59.25
64.70
67.22
65.49
58.11
44.38
24.68
1.41
-22.66
-44.63
-62.21
-74.34
-81.40
-84.76
-86.07
-86.66
-87.05
-87.55
-87.97
-88.09
-87.89
-87.96
-89.13
-91.89
-96.79
-102.02
-105.75
-105.99
-101.09
-90.44
-74.80
-56.16
-37.02
-19.64
-5.42
5.19
12.54
17.39
20.34
21.31
19.80
15.24
7.21
-4.27
-18.50
-35.42
-53.48
-69.47
-78.87
-77.43
-63.22
-38.53
-9.19
17.40
35.07
41.62
38.86
30.85
21.32
12.05
2.48
-8.67
-21.82
-35.83
-48.02
-55.90
-57.53
-52.63
-42.18
-27.93
-11.45
6.20
24.38
42.86
61.13
78.07
91.82
100.28
101.79
95.85
83.68
67.86
52.00
39.53
32.77
32.67
39.10
51.17
67.27
84.86
99.13
105.66
100.83
84.11
59.10
32.71
12.57
3.78
7.23
19.38
34.57
47.59
55.04
55.35
48.18
33.44
10.89
-18.62
-52.94
-88.27
-119.98
-143.64
-156.18
-156.37
-143.81
-121.82
-94.04
-64.04
-34.63
-7.85
15.09
33.50
47.25
56.52
61.63
63.80
63.75
62.24
59.88
56.97
53.56
49.58
44.81
38.71
31.18
22.05
11.28
-0.90
-14.56
-30.31
-48.71
-70.78
-95.99
-120.92
-139.77
-146.26
-136.54
-111.98
-79.31
-48.19
-27.43
-20.95
-26.78
-38.73
-50.18
-56.06
-54.85
-47.10
-33.62
-15.01
7.82
32.00
52.43
63.82
64.39
57.32
50.56
52.85
68.77
95.95
125.76
147.53
152.24
139.03
113.01
81.71
51.05
23.52
-1.05
-23.34
-43.02
-58.26
-67.55
-70.72
-69.44
-66.41
-64.40
-64.94
-67.88
-72.01
-74.60
-73.37
-67.34
-57.12
-44.30
-30.69
-17.52
-5.34
5.81
16.29
26.09
34.64
40.53
42.15
38.69
30.57
19.39
7.54
-1.93
-6.49
-4.42
4.28
17.86
33.90
49.56
62.15
69.34
69.93
61.53
44.95
21.87
-5.87
-36.36
-67.59
-97.35
-124.25
-146.30
-161.53
-168.06
-165.00
-152.53
-131.64
-103.87
-70.69
-34.82
1.55
36.70
69.37
98.14
121.41
137.69
146.08
146.64
140.84
131.48
121.89
114.83
111.46
111.08
111.71
110.82
106.40
97.99
87.03
76.35
69.33
68.48
74.47
84.91
94.36
95.87
83.46
54.85
12.86
-35.00
-78.44
-107.42
-114.78
-98.39
-62.11
-15.05
30.61
63.18
75.33
66.65
43.27
14.96
-9.21
-24.40
-30.65
-31.29
-29.74
-27.80
-25.52
-22.72
-20.31
-20.43
-25.28
-35.74
-50.33
-65.72
-78.38
-85.68
-86.96
-83.74
-78.63
-74.22
-71.66
-70.45
-67.99
-62.54
-52.63
-37.83
-19.17
1.33
21.04
37.97
50.76
59.27
63.76
64.68
62.25
56.24
46.04
31.21
11.97
-10.29
-32.91
-52.27
-64.63
-67.23
-59.45
-43.09
-22.10
-1.79
13.04
19.34
16.59
6.25
-8.93
-26.38
-44.73
-63.82
-85.04
-109.85
-139.19
-172.08
-205.16
-233.06
-249.01
-246.80
-223.07
-179.62
-123.92
-68.13
-25.80
-7.68
-17.69
-50.67
-93.83
-131.27
-150.33
-145.56
-119.41
-79.50
-34.04
9.82
46.96
75.73
97.36
112.99
123.26
129.20
133.16
138.89
149.85
167.88
191.74
217.51
238.64
249.27
248.02
239.46
231.33
230.19
237.77
249.81
259.32
257.94
240.83
209.28
170.24
132.40
102.86
86.33
85.61
102.52
133.18
167.72
191.96
192.25
159.85
94.27
4.36
-101.17
-197.82
-260.53
-279.89
-265.41
-232.76
-193.17
-151.42
-108.35
-64.55
-20.94
18.21
50.07
72.19
85.32
92.42
96.06
96.94
93.54
83.84
60.93
25.22
-19.50
-66.47
-108.52
-140.62
-160.76
-169.90
-170.39
-165.56
-158.20
-151.12
-145.82
-142.72
-141.15
-138.86
-132.20
-117.12
-91.25
-55.91
-17.28
17.18
41.47
53.31
53.63
44.04
26.13
1.11
-28.91
-60.50
-86.74
-99.62
-92.97
-65.83
-20.50
31.65
78.95
116.72
143.03
158.57
165.36
165.28
159.65
149.62
136.27
122.41
111.35
105.35
105.48
111.36
121.17
132.11
140.04
141.38
134.65
120.23
98.92
71.25
40.28
8.39
-21.80
-50.58
-78.18
-104.03
-126.77
-145.36
-159.33
-168.82
-174.25
-175.93
-177.38
-181.89
-191.15
-204.93
-222.95
-244.88
-270.75
-300.64
-314.85
-302.78
-266.32
-218.17
-171.82
-135.13
-109.71
-93.90
-84.87
-79.17
-75.45
-70.14
-57.86
-33.82
2.74
47.27
91.50
127.51
150.93
159.94
156.93
146.59
133.54
120.47
108.19
96.92
87.39
80.91
76.89
74.02
70.59
65.37
57.69
47.97
37.46
27.93
21.09
16.85
14.05
11.05
6.32
-1.02
-10.83
-22.36
-34.53
-46.37
-58.09
-70.54
-84.60
-100.39
-117.47
-132.85
-142.79
-143.71
-133.34
-111.40
-79.65
-41.22
0.28
41.75
80.43
114.78
144.10
168.24
187.46
202.23
212.72
217.85
215.28
202.18
176.79
140.20
97.10
54.55
19.43
-4.12
-16.27
-20.31
-20.42
-19.55
-18.61
-17.03
-14.25
-11.11
-9.39
-10.75
-15.58
-22.55
-29.23
-33.26
-33.44
-30.48
-26.55
-24.20
-25.25
-29.88
-36.58
-42.85
-46.54
-46.57
-43.50
-39.13
-35.43
-33.98
-35.49
-39.97
-46.62
-53.64
-57.76
-54.97
-41.88
-17.45
15.62
51.64
84.00
108.00
122.52
130.28
135.64
142.51
151.45
160.53
166.90
168.28
163.90
154.36
140.75
123.77
102.68
78.67
52.17
24.36
-3.12
-28.27
-49.09
-64.21
-73.37
-77.38
-77.95
-77.78
-79.20
-83.91
-92.61
-104.66
-118.33
-131.53
-141.45
-145.10
-140.34
-125.95
-102.99
-75.38
-49.10
-30.04
-21.83
-22.93
-27.33
-27.91
-19.15
-0.16
25.24
51.07
71.93
84.78
89.04
85.61
75.80
61.68
46.11
32.60
23.87
20.52
19.72
16.91
8.10
-7.71
-27.45
-45.53
-56.70
-58.27
-50.84
-37.25
-20.66
-3.33
13.58
29.05
41.63
49.29
50.50
44.49
32.43
17.09
1.57
-11.61
-21.36
-28.07
-33.52
-39.56
-47.71
-58.49
-71.54
-85.95
-100.64
-114.61
-127.26
-137.89
-145.39
-148.53
-145.95
-136.53
-119.82
-96.25
-67.34
-35.27
-3.25
26.14
50.91
70.03
83.34
91.32
94.94
95.10
93.19
89.69
85.23
80.29
75.26
70.45
65.97
61.95
58.17
54.52
50.84
47.21
43.73
40.57
38.01
36.32
35.75
36.29
37.87
40.12
42.67
45.02
46.69
47.70
47.40
45.43
41.49
35.47
27.38
17.80
7.62
-1.74
-8.66
-11.92
-10.75
-5.26
3.53
14.03
24.72
34.45
42.66
49.41
54.89
59.23
62.05
62.49
59.75
53.54
44.47
33.98
24.04
16.56
13.17
15.03
22.66
35.69
51.99
67.64
77.66
77.76
66.35
45.57
20.77
-1.84
-17.66
-25.47
-27.31
-26.51
-25.70
-25.70
-26.11
-25.97
-25.17
-24.36
-24.37
-25.24
-25.85
-24.43
-19.53
-11.38
-1.51
7.24
11.87
9.84
-0.37
-19.51
-48.27
-83.63
-124.14
-168.76
-216.64
-266.33
-315.14
-358.79
-391.77
-408.35
-403.86
-376.63
-327.54
-259.97
-178.78
-89.53
2.19
91.19
173.01
244.39
303.19
349.13
383.13
406.78
421.29
427.00
423.96
412.45
394.01
371.33
348.14
327.79
312.16
301.10
292.68
284.25
273.56
259.63
242.83
224.49
205.89
187.37
168.05
146.04
119.52
87.53
50.44
9.67
-33.30
-77.45
-122.40
-167.54
-211.32
-250.77
-282.06
-301.82
-307.71
-298.90
-275.45
-237.98
-188.20
-129.75
-68.56
-11.85
33.91
65.18
83.29
93.64
102.58
114.02
127.28
138.79
144.84
143.70
136.23
125.53
115.70
109.73
108.60
110.85
113.87
114.77
111.21
100.98
84.28
64.33
45.96
33.78
29.61
33.59
44.60
60.54
74.77
82.64
83.08
76.37
62.93
39.16
2.80
-45.54
-102.98
-173.35
-254.99
-338.46
-412.48
-467.64
-506.22
-532.74
-551.30
-566.14
-593.98
-642.53
-705.06
-768.84
-819.99
-859.19
-887.46
-903.74
-907.61
-916.71
-940.53
-973.27
-1003.46
-1017.37
-1017.09
-1002.20
-968.66
-803.42
-481.19
-78.19
292.43
524.02
649.03
699.89
697.15
660.92
599.37
502.73
373.78
255.29
190.45
201.42
266.85
354.99
442.52
516.75
561.48
573.24
562.86
543.60
529.09
518.42
509.37
501.38
493.35
475.61
442.42
395.40
337.57
271.03
200.08
135.34
89.77
71.65
77.65
98.99
126.28
150.45
166.24
169.44
159.14
136.51
103.36
61.25
14.43
-30.13
-65.93
-88.94
-99.72
-101.73
-98.98
-94.21
-88.53
-82.07
-75.17
-69.46
-66.81
-68.16
-73.47
-81.89
-91.12
-97.21
-95.83
-83.82
-61.80
-35.15
-12.61
-2.89
-11.21
-36.39
-71.17
-105.19
-128.79
-136.05
-125.71
-101.67
-67.47
-28.51
9.74
42.55
66.73
81.07
86.31
84.13
76.79
66.36
54.28
41.71
29.58
18.09
6.49
-6.55
-22.08
-40.12
-58.87
-75.33
-86.07
-88.38
-81.21
-65.25
-42.62
-15.95
12.20
40.09
66.50
90.60
111.52
128.09
139.06
143.25
140.16
130.43
115.79
98.46
80.68
64.10
49.58
37.50
27.81
20.70
16.91
17.62
23.69
34.99
50.10
66.49
81.71
93.56
101.07
104.65
105.76
106.07
106.93
109.26
113.52
119.97
127.26
132.67
132.34
122.85
102.62
72.78
36.45
-4.49
-45.52
-83.46
-117.02
-145.87
-168.86
-182.74
-182.60
-164.55
-127.46
-73.97
-10.94
52.49
107.65
148.98
174.88
187.06
187.17
176.55
156.33
127.73
92.79
54.43
16.74
-16.24
-41.63
-60.62
-75.73
-88.55
-98.70
-104.52
-105.04
-100.85
-94.10
-88.10
-89.16
-102.10
-127.92
-163.95
-205.84
-250.19
-295.50
-341.78
-371.40
-372.86
-347.03
-306.81
-266.57
-232.53
-201.85
-166.86
-120.86
-62.26
1.45
58.67
99.96
121.95
127.56
122.92
114.34
105.80
98.26
88.83
74.82
56.40
36.92
20.74
10.73
6.61
8.06
14.07
22.48
31.89
42.19
54.30
68.88
85.18
101.19
115.08
125.98
133.97
140.35
146.63
153.19
158.08
157.08
145.44
120.97
85.51
44.45
4.97
-26.46
-45.81
-51.28
-43.92
-27.28
-6.17
13.89
27.62
30.82
20.42
-2.27
-30.64
-55.73
-70.62
-72.67
-63.82
-48.00
-28.85
-8.94
10.71
29.65
47.32
62.71
75.67
86.36
95.42
103.61
110.83
116.66
121.30
123.40
121.60
115.61
106.17
94.78
83.26
72.56
63.33
55.48
48.25
40.19
29.89
16.04
-2.43
-23.09
-45.05
-67.14
-88.24
-106.95
-122.39
-133.85
-141.09
-144.65
-145.16
-144.40
-143.48
-142.97
-142.59
-142.44
-142.60
-143.47
-146.21
-151.83
-161.43
-174.78
-193.31
-212.38
-227.91
-236.40
-235.92
-226.40
-209.36
-188.04
-166.51
-149.44
-140.46
-142.05
-153.83
-172.34
-192.19
-208.16
-217.70
-221.56
-223.23
-225.94
-231.30
-237.83
-241.99
-239.79
-228.37
-206.58
-174.15
-131.99
-80.57
-20.54
46.78
118.33
189.48
255.07
310.58
353.54
384.18
405.33
420.95
434.57
447.61
459.52
468.50
472.60
470.84
463.71
453.28
442.78
435.33
432.15
432.89
435.50
435.48
426.48
402.03
357.96
295.14
218.95
135.77
52.99
-22.50
-86.56
-137.48
-174.67
-197.61
-204.18
-193.10
-168.46
-135.90
-100.58
-68.12
-43.50
-30.26
-29.38
-36.69
-44.78
-48.56
-42.65
-22.21
12.46
55.87
99.53
122.88
112.44
88.19
63.56
37.72
12.06
-12.72
-35.64
-54.54
-66.33
-66.49
-52.52
-29.56
-5.09
15.65
29.62
36.92
39.58
39.33
36.90
30.60
13.71
-19.56
-69.28
-130.91
-196.83
-259.34
-313.00
-354.70
-383.20
-392.56
-377.87
-337.48
-276.74
-205.37
-132.91
-65.76
-7.99
42.80
86.57
120.44
141.59
148.58
143.00
126.80
105.88
85.45
71.70
65.96
63.26
56.21
39.71
14.12
-15.05
-41.40
-60.01
-67.76
-64.28
-51.01
-29.41
-0.82
33.00
70.47
107.64
140.38
166.74
187.46
205.80
226.06
250.92
279.09
305.25
321.93
323.06
306.86
275.92
235.88
192.94
151.74
114.08
79.72
47.45
16.59
-12.55
-39.65
-64.96
-89.43
-113.84
-138.24
-161.31
-180.95
-194.99
-202.15
-202.63
-197.91
-189.89
-179.90
-168.34
-154.96
-139.81
-123.89
-108.57
-95.06
-83.84
-74.63
-66.99
-61.28
-59.08
-63.00
-76.48
-101.60
-138.45
-184.81
-236.29
-286.64
-328.82
-356.56
-366.68
-361.27
-345.64
-326.11
-307.73
-292.26
-277.98
-261.83
-241.67
-218.00
-193.83
-170.67
-147.21
-121.40
-93.11
-65.46
-44.40
-36.13
-31.37
-19.30
11.44
66.62
141.97
226.34
308.23
377.85
435.68
482.44
515.74
532.30
529.57
505.44
456.43
382.38
293.80
208.83
145.45
113.17
104.84
111.57
125.68
141.96
158.02
175.48
191.51
199.83
193.05
167.31
125.36
74.40
23.17
-20.76
-53.74
-77.33
-96.24
-115.79
-139.01
-165.39
-193.23
-220.71
-246.32
-269.16
-289.59
-308.72
-328.04
-349.54
-374.90
-405.69
-441.77
-479.66
-512.14
-530.40
-526.81
-498.02
-446.63
-380.05
-308.00
-239.21
-178.99
-128.60
-86.69
-50.55
-17.37
15.46
50.28
88.25
128.35
166.49
196.11
210.06
203.21
175.08
130.81
80.25
35.09
4.99
-5.89
-0.31
13.17
23.78
23.19
8.80
-15.51
-41.69
-61.47
-69.84
-66.22
-53.46
-35.16
-13.49
11.09
38.85
69.30
100.69
130.62
157.27
180.24
200.38
218.80
235.71
249.83
258.64
259.30
249.77
229.77
201.21
167.84
134.41
105.41
84.15
72.19
69.38
74.11
83.80
95.36
105.53
111.51
111.45
105.04
93.57
79.50
65.42
53.14
43.05
34.16
24.54
12.00
-5.09
-27.03
-52.14
-76.71
-95.90
-105.45
-103.67
-92.49
-76.88
-62.51
-52.98
-47.78
-42.73
-32.46
-13.68
12.46
40.49
62.91
73.52
69.91
54.17
31.58
8.24
-10.96
-23.40
-28.51
-26.99
-20.23
-10.09
0.93
9.91
14.05
11.70
3.18
-9.15
-21.67
-30.89
-34.72
-33.02
-27.43
-20.49
-14.70
-11.81
-12.63
-17.02
-24.26
-33.25
-42.59
-50.61
-55.54
-55.76
-50.43
-39.97
-26.07
-11.21
2.37
13.83
23.86
34.15
46.06
59.39
72.08
81.23
84.58
81.68
74.21
64.96
56.52
50.32
46.42
44.14
42.75
41.97
41.73
41.88
42.01
41.51
40.04
37.74
35.31
33.57
33.12
34.05
36.09
38.78
41.70
44.44
46.60
47.79
47.91
47.28
46.82
47.80
51.19
57.00
63.99
69.91
72.52
70.64
64.70
56.62
48.89
43.56
41.23
41.01
40.94
38.91
33.60
25.00
14.37
3.58
-5.60
-12.29
-16.68
-19.78
-22.85
-26.88
-32.45
-39.92
-49.68
-62.08
-76.96
-93.23
-108.78
-121.12
-128.28
-129.59
-125.64
-117.77
-107.05
-93.84
-78.00
-59.55
-39.44
-19.58
-2.30
10.58
18.34
21.61
21.86
20.62
19.07
17.76
16.82
16.32
16.42
17.31
19.09
21.67
24.63
27.39
29.30
29.71
28.27
24.99
20.42
15.58
11.70
9.84
10.41
13.02
16.66
20.10
22.31
22.73
21.31
18.46
14.79
11.15
8.42
7.26
7.94
10.19
13.31
16.19
17.50
15.64
9.17
-2.74
-19.69
-39.58
-59.00
-74.18
-82.38
-83.00
-77.83
-70.17
-63.53
-60.35
-61.31
-65.41
-70.53
-74.08
-73.68
-67.84
-56.40
-40.73
-23.40
-7.26
5.48
13.91
18.42
20.16
19.99
18.06
13.83
6.63
-3.42
-15.10
-26.12
-33.87
-36.34
-32.91
-24.55
-13.58
-2.80
5.50
10.17
11.36
10.19
8.20
6.77
6.88
8.91
12.67
17.53
22.57
26.78
29.32
29.83
28.47
25.74
22.27
18.41
14.39
10.37
6.71
3.83
2.03
1.09
0.31
-1.35
-4.77
-10.30
-17.67
-26.26
-35.49
-45.04
-54.84
-64.54
-73.33
-80.02
-83.57
-83.70
-81.16
-77.30
-73.27
-69.38
-64.77
-57.81
-46.74
-30.39
-8.54
17.85
46.67
74.94
99.22
116.57
125.35
125.85
120.18
111.32
102.01
93.91
87.43
82.17
77.64
73.60
70.12
67.31
65.07
63.07
60.90
58.29
55.24
52.09
49.41
47.74
47.45
48.44
50.20
51.82
52.31
50.75
46.54
39.49
29.72
17.74
4.41
-9.12
-21.39
-31.03
-36.92
-38.66
-36.68
-32.32
-27.46
-24.01
-23.19
-25.09
-28.74
-32.40
-34.45
-33.93
-30.90
-26.18
-20.92
-16.07
-12.10
-9.15
-7.16
-6.11
-6.10
-7.24
-9.47
-12.38
-15.25
-17.12
-17.02
-14.25
-8.74
-1.17
7.09
14.37
19.33
21.31
20.62
18.30
15.71
13.92
13.41
14.16
15.73
17.62
19.33
20.34
20.04
17.87
13.45
6.97
-0.74
-8.45
-14.85
-19.02
-20.59
-19.76
-17.05
-13.24
-9.21
-5.87
-4.22
-4.89
-7.99
-12.92
-18.51
-23.39
-26.39
-26.93
-24.99
-21.21
-16.51
-11.89
-8.22
-5.94
-4.97
-4.74
-4.45
-3.44
-1.66
0.31
1.64
1.63
0.37
-1.24
-1.92
-0.70
2.55
6.96
11.05
13.46
13.51
11.50
8.50
5.79
4.30
4.28
5.34
6.78
8.04
8.85
9.34
9.78
10.14
10.07
8.97
6.39
2.43
-2.13
-6.15
-8.56
-8.89
-7.55
-5.49
-3.62
-2.44
-1.70
-0.77
0.89
3.37
6.16
8.50
9.77
9.88
9.20
8.40
8.13
8.77
10.47
13.16
16.63
20.53
24.36
27.49
29.34
29.58
28.20
25.54
22.10
18.41
14.99
12.28
10.60
10.14
10.85
12.26
13.64
14.10
12.97
10.06
5.83
1.26
-2.62
-5.06
-5.97
-5.91
-5.71
-6.07
-7.25
-8.97
-10.70
-11.95
-12.45
-12.15
-11.10
-9.28
-6.60
-3.08
1.05
5.26
8.82
11.08
11.70
10.67
8.44
5.68
3.09
1.24
0.31
0.09
0.18
0.12
-0.35
-1.26
-2.40
-3.59
-4.66
-5.58
-6.32
-6.75
-6.74
-6.14
-4.97
-3.47
-2.06
-1.17
-1.05
-1.76
-3.02
-4.52
-5.97
-7.15
-7.99
-8.55
-8.89
-9.06
-9.07
-8.88
-8.51
-8.05
-7.72
-7.75
-8.40
-9.70
-11.45
-13.21
-14.45
-14.74
-13.96
-12.26
-10.08
-7.90
-6.10
-4.87
-4.19
-3.99
-4.24
-4.95
-6.07
-7.38
-8.38
-8.35
-6.70
-3.21
1.77
7.29
12.14
15.20
15.81
13.93
10.18
5.59
1.27
-1.90
-3.56
-3.92
-3.70
-3.75
-4.82
-7.13
-10.44
-14.09
-17.33
-19.58
-20.57
-20.36
-19.20
-17.44
-15.42
-13.50
-11.92
-10.79
-10.05
-9.40
-8.45
-6.87
-4.54
-1.64
1.34
3.91
5.70
6.62
6.89
6.90
7.00
7.46
8.33
9.38
10.33
10.83
10.65
9.72
8.14
6.13
4.03
2.18
0.83
0.20
0.35
1.13
2.26
3.31
3.79
3.29
1.68
-0.90
-3.97
-6.90
-9.03
-9.88
-9.27
-7.41
-4.85
-2.22
-0.10
1.34
2.23
2.97
3.98
5.33
6.77
7.75
7.80
6.75
4.94
3.05
1.86
1.84
2.92
4.54
5.99
6.73
6.56
5.72
4.56
3.38
2.19
0.77
-1.08
-3.36
-5.82
-7.99
-9.44
-9.92
-9.58
-8.91
-8.55
-9.05
-10.68
-13.21
-15.95
-18.04
-18.64
-17.36
-14.40
-10.56
-6.88
-4.34
-3.36
-3.68
-4.55
-5.05
-4.53
-2.81
-0.27
2.46
4.70
6.05
6.39
5.95
5.14
4.48
4.48
5.45
7.33
9.68
11.81
13.13
13.48
13.19
12.83
12.88
13.39
13.86
13.59
12.15
9.55
6.41
3.50
1.33
0.03
-0.71
-1.37
-2.28
-3.50
-4.85
-6.06
-7.00
-7.75
-8.42
-9.16
-9.91
-10.31
-9.87
-8.25
-5.41
-1.79
1.85
4.80
6.64
7.39
7.49
7.40
7.34
7.26
7.01
6.53
6.07
5.97
6.47
7.57
8.84
9.69
9.66
8.64
6.87
4.92
3.20
1.84
0.70
-0.54
-2.13
-3.98
-5.77
-7.11
-7.71
-7.59
-7.12
-6.67
-6.51
-6.64
-6.81
-6.78
-6.51
-6.14
-6.02
-6.54
-7.91
-10.13
-12.99
-15.98
-18.47
-19.77
-19.37
-17.17
-13.57
-9.27
-5.13
-1.77
0.67
2.32
3.47
4.40
5.20
5.90
6.62
7.57
8.98
10.98
13.33
15.51
16.87
16.87
15.33
12.51
9.07
5.76
3.18
1.44
0.17
-1.20
-3.15
-5.66
-8.23
-10.02
-10.32
-8.82
-5.75
-1.77
2.42
6.23
9.33
11.58
12.91
13.29
12.68
11.08
8.51
5.15
1.21
-2.90
-6.69
-9.66
-11.46
-12.04
-11.64
-10.83
-10.24
-10.42
-11.51
-13.23
-14.86
-15.57
-14.71
-12.15
-8.36
-4.19
-0.55
2.08
3.73
4.79
5.62
6.19
6.09
4.83
2.21
-1.39
-5.18
-8.24
-10.13
-11.00
-11.52
-12.46
-14.27
-16.84
-19.57
-21.63
-22.31
-21.31
-18.92
-15.87
-13.08
-11.30
-10.79
-11.23
-11.85
-11.70
-10.10
-6.93
-2.63
1.89
5.63
7.82
8.11
6.65
4.03
1.06
-1.41
-2.74
-2.66
-1.32
0.68
2.60
3.67
3.47
2.01
-0.25
-2.55
-4.16
-4.57
-3.71
-1.91
0.21
2.01
3.06
3.32
3.12
2.97
3.36
4.43
5.93
7.24
7.55
6.23
3.11
-1.41
-6.47
-10.87
-13.61
-14.05
-12.24
-8.76
-4.60
-0.73
2.09
3.40
3.23
1.82
-0.31
-2.55
-4.29
-5.06
-4.65
-3.24
-1.34
0.41
1.48
1.67
1.26
0.87
1.16
2.57
4.89
7.50
9.53
10.32
9.64
7.89
5.68
3.62
2.01
0.82
-0.12
-0.85
-1.26
-1.19
-0.68
-0.11
-0.12
-1.23
-3.55
-6.66
-9.70
-11.79
-12.43
-11.76
-10.29
-8.68
-7.23
-5.88
-4.27
-2.01
1.01
4.62
8.38
11.79
14.35
15.71
15.60
13.94
10.91
6.95
2.81
-0.69
-2.77
-2.98
-1.34
1.69
5.23
8.33
10.05
9.91
7.96
4.85
1.74
-0.11
0.37
3.59
9.18
15.98
22.46
27.17
29.25
28.66
25.99
22.19
18.02
13.80
9.50
4.99
0.37
-3.84
-6.97
-8.36
-7.63
-4.85
-0.45
4.94
10.57
15.71
19.73
22.27
23.36
23.41
23.01
22.64
22.48
22.35
21.97
21.22
20.32
19.85
20.47
22.53
25.81
29.48
32.36
33.29
31.72
27.87
22.86
18.41
16.30
17.94
23.59
31.88
39.62
42.12
34.24
12.23
-24.38
-71.71
-121.93
-165.37
-193.63
-202.12
-191.35
-166.07
-133.06
-98.62
-66.86
-39.46
-16.42
2.70
18.20
30.13
38.66
44.47
48.65
52.20
55.57
58.48
60.16
60.01
58.04
54.92
51.68
49.02
46.93
44.77
41.64
36.95
30.82
24.01
17.77
13.49
12.31
14.50
18.87
22.37
20.51
8.83
-15.01
-49.45
-88.71
-124.34
-148.30
-155.89
-147.37
-127.39
-102.71
-79.53
-61.61
-49.80
-42.82
-38.46
-34.56
-29.65
-23.34
-16.39
-10.57
-8.09
-10.76
-19.07
-31.68
-45.59
-56.85
-61.81
-57.93
-44.51
-22.69
4.77
34.09
61.23
82.76
96.75
103.06
103.20
99.66
94.90
90.80
88.29
87.53
88.11
89.28
90.02
89.20
85.82
79.29
69.78
58.33
46.60
36.32
28.75
24.00
21.07
18.22
13.70
6.60
-2.65
-12.34
-20.12
-23.79
-21.99
-14.30
-1.24
15.64
33.48
47.92
53.48
44.91
19.32
-22.00
-72.99
-124.00
-164.78
-187.35
-188.46
-170.02
-138.11
-100.62
-65.12
-36.96
-18.50
-9.17
-6.11
-5.51
-3.80
1.35
10.57
22.69
35.28
45.46
50.76
50.04
43.91
34.54
24.99
18.03
14.98
15.27
16.88
17.28
14.66
8.79
1.18
-5.29
-7.49
-3.44
6.40
18.72
27.84
27.76
14.67
-11.03
-44.10
-76.13
-98.40
-105.14
-95.37
-72.92
-44.43
-16.76
5.09
19.00
25.47
26.55
24.98
23.49
24.28
28.82
37.49
49.19
61.52
71.24
75.53
73.17
65.06
53.67
41.71
30.67
20.19
8.76
-5.08
-21.32
-38.01
-51.91
-59.73
-59.35
-50.47
-34.58
-14.39
6.79
25.73
39.83
47.62
49.22
46.31
41.70
38.17
37.52
39.77
43.22
45.31
43.68
37.39
27.37
16.16
6.96
2.52
3.99
10.41
18.79
24.80
23.98
13.04
-9.00
-40.26
-76.07
-110.08
-135.94
-149.06
-148.09
-135.15
-115.01
-93.34
-74.91
-62.28
-55.55
-53.01
-52.04
-50.03
-44.97
-35.70
-22.17
-5.50
12.16
28.08
39.77
45.72
45.87
41.58
35.08
28.85
25.00
24.81
28.52
35.15
42.71
48.69
51.01
48.71
42.38
33.82
25.32
18.93
15.96
16.96
21.76
29.55
38.76
47.28
52.92
54.14
50.72
43.86
35.56
27.85
21.94
18.02
15.54
13.73
12.01
10.15
8.13
6.12
4.39
3.44
3.81
5.89
9.64
14.34
18.78
21.64
22.02
19.84
15.79
11.06
6.78
3.65
1.73
0.69
0.13
-0.05
0.52
2.54
6.54
12.41
19.22
25.33
29.12
29.72
27.45
23.68
20.23
18.47
18.89
21.07
24.16
27.44
30.51
32.99
34.27
33.42
29.56
22.32
12.10
-0.00
-12.63
-24.60
-35.03
-43.29
-48.85
-51.43
-51.24
-49.28
-47.19
-46.74
-49.02
-53.88
-59.76
-64.26
-65.14
-61.19
-52.84
-42.16
-32.14
-25.71
-24.71
-29.39
-38.33
-48.99
-58.50
-64.41
-65.20
-60.56
-51.20
-38.63
-24.85
-11.95
-1.62
5.27
8.94
10.56
11.85
14.38
19.08
25.94
34.08
41.99
47.90
50.16
47.64
40.25
29.23
17.10
7.11
2.14
3.48
10.19
19.35
27.15
30.64
28.84
23.06
15.98
10.27
7.32
6.88
7.46
7.28
5.32
1.67
-2.62
-6.12
-7.82
-7.53
-6.00
-4.64
-4.98
-7.95
-13.51
-20.50
-27.01
-31.19
-32.00
-29.67
-25.52
-21.26
-18.23
-16.91
-16.88
-17.18
-16.94
-15.80
-14.05
-12.38
-11.56
-12.07
-13.96
-16.84
-19.86
-21.97
-22.09
-19.55
-14.34
-7.34
-0.14
5.44
8.09
7.56
4.80
1.53
-0.63
-0.88
0.52
2.43
3.57
3.08
0.87
-2.56
-6.53
-10.56
-14.55
-18.63
-22.95
-27.47
-32.00
-36.25
-39.98
-42.99
-45.16
-46.28
-45.99
-43.71
-38.69
-30.33
-18.49
-3.62
13.21
30.61
47.23
62.04
74.38
83.84
90.14
92.99
92.21
87.81
80.13
69.87
57.96
45.45
33.35
22.48
13.35
6.12
0.68
-3.08
-5.25
-5.78
-4.81
-2.83
-0.65
0.84
1.07
0.06
-1.67
-3.51
-5.12
-6.64
-8.30
-10.12
-11.67
-12.31
-11.68
-10.18
-8.89
-9.01
-11.24
-15.27
-19.96
-23.75
-25.34
-24.17
-20.45
-15.06
-9.28
-4.49
-1.99
-2.59
-6.34
-12.22
-18.41
-22.83
-23.98
-21.62
-16.90
-11.94
-8.90
-9.14
-12.69
-18.32
-24.11
-28.17
-29.41
-27.81
-24.37
-20.66
-18.16
-17.70
-19.12
-21.42
-23.03
-22.44
-18.69
-11.78
-2.63
7.06
15.24
20.08
20.41
16.16
8.37
-1.09
-9.92
-16.10
-18.34
-16.36
-10.97
-3.71
3.61
9.43
12.86
13.92
13.49
12.98
13.79
16.73
21.78
28.02
33.91
37.79
38.37
35.09
28.29
19.09
9.14
0.17
-6.48
-10.29
-11.64
-11.55
-11.22
-11.39
-12.17
-13.16
-13.89
-14.21
-14.33
-14.49
-14.78
-14.94
-14.56
-13.43
-11.60
-9.37
-6.86
-3.89
-0.11
4.60
9.67
13.99
16.22
15.69
12.68
8.43
4.47
1.94
1.16
1.81
3.40
5.54
8.04
10.55
12.21
11.71
7.73
-0.20
-11.23
-23.13
-33.12
-38.94
-39.80
-36.78
-32.32
-29.28
-29.67
-33.91
-40.43
-46.06
-47.01
-40.13
-24.09
-0.07
28.47
56.80
80.45
96.59
104.67
106.11
103.22
97.99
91.44
83.60
74.19
63.31
51.71
40.56
30.76
22.42
14.87
7.14
-1.44
-10.74
-19.90
-27.66
-33.00
-35.39
-34.81
-31.44
-25.47
-17.21
-7.31
3.08
12.45
19.37
23.11
23.79
22.29
19.58
16.25
12.23
7.08
0.52
-7.20
-15.18
-22.32
-27.74
-31.31
-33.54
-35.21
-36.78
-37.83
-37.19
-33.45
-25.79
-14.64
-1.77
10.36
19.48
24.35
25.12
22.99
19.55
16.13
13.41
11.40
9.80
8.10
5.84
2.71
-1.60
-7.22
-13.94
-21.01
-26.91
-29.72
-27.74
-20.30
-8.13
6.69
21.58
34.41
44.17
50.99
55.55
58.25
58.96
57.14
52.27
44.41
34.36
23.46
13.19
4.85
-0.81
-3.65
-4.21
-3.58
-3.08
-3.89
-6.63
-11.11
-16.35
-20.90
-23.34
-22.84
-19.50
-14.35
-9.17
-5.88
-5.87
-9.52
-16.08
-24.01
-31.54
-37.21
-40.05
-39.70
-36.19
-29.82
-21.26
-11.56
-2.19
5.33
9.79
10.88
9.22
6.21
3.46
2.10
2.45
4.03
5.93
7.27
7.63
7.00
5.68
4.07
2.46
1.09
0.13
-0.27
-0.12
0.42
0.99
1.27
1.14
0.76
0.57
0.98
2.19
4.08
6.35
8.73
11.09
13.40
15.48
16.96
17.30
16.02
13.10
9.22
5.63
3.86
5.05
9.31
15.52
21.70
25.64
25.95
22.64
17.10
11.47
7.53
5.94
6.08
6.58
6.12
4.04
0.44
-4.13
-9.05
-13.78
-17.83
-20.60
-21.44
-20.01
-16.59
-12.17
-8.21
-6.03
-6.24
-8.47
-11.41
-13.41
-13.15
-10.08
-4.62
2.12
8.96
15.00
19.83
23.43
25.72
26.39
24.97
21.11
15.00
7.54
0.13
-5.84
-9.44
-10.51
-9.67
-7.92
-6.25
-5.39
-5.50
-6.26
-7.06
-7.19
-6.14
-3.78
-0.37
3.48
7.15
10.21
12.74
15.31
18.70
23.42
29.23
35.09
39.37
40.73
38.80
34.54
29.99
27.37
28.07
32.09
38.13
44.21
48.50
49.92
48.15
43.40
36.20
27.27
17.53
8.03
-0.34
-7.23
-12.97
-18.35
-23.75
-28.60
-31.00
-28.37
-18.70
-1.73
20.37
43.67
63.69
77.22
83.30
83.41
80.57
77.99
77.94
81.07
86.36
91.47
93.44
89.54
78.33
60.52
39.12
18.59
2.87
-6.44
-11.36
-16.73
-28.06
-48.88
-78.97
-114.54
-150.17
-181.71
-208.08
-231.62
-256.75
-287.81
-327.15
-373.81
-423.49
-469.26
-503.27
-518.72
-511.75
