1679647917.00
64.000000
-0.00
-0.00
-0.00
-0.00
-0.00
-0.00
-0.00
-0.00
-0.00
-0.00
0.00
0.01
0.01
-0.00
-0.03
-0.05
-0.05
0.00
0.13
0.36
0.66
1.01
1.37
1.72
2.06
2.40
2.79
3.24
3.80
4.42
5.06
5.66
6.20
6.68
7.15
7.68
8.31
9.14
10.09
11.04
11.88
12.56
13.14
13.76
14.65
15.96
17.91
20.32
22.90
25.38
27.58
29.57
31.68
34.32
37.81
42.54
48.15
54.10
59.83
64.97
69.58
74.14
79.34
85.71
93.76
103.00
112.62
121.73
129.77
136.75
143.30
150.75
157.77
166.64
177.95
191.79
206.97
220.57
228.25
225.36
208.53
176.87
132.76
80.05
23.07
-34.94
-92.44
-149.16
-205.23
-260.37
-313.74
-363.87
-409.83
-450.91
-486.50
-515.74
-537.23
-549.22
-549.96
-538.37
-514.21
-478.67
-433.88
-382.45
-327.02
-269.84
-212.63
-156.66
-102.95
-52.37
-5.90
35.58
71.43
101.35
125.50
144.38
158.69
169.15
176.37
180.75
182.57
182.07
179.51
175.23
169.65
163.18
156.15
148.81
141.30
133.69
126.02
118.33
110.69
103.16
95.80
88.68
81.83
75.25
68.95
62.95
57.25
51.86
46.78
42.03
37.59
33.45
29.61
26.07
22.81
19.83
17.11
14.67
12.48
10.54
8.83
7.35
6.07
4.97
4.05
3.27
2.62
2.09
1.65
1.30
1.01
0.79
0.61
0.47
0.37
0.29
0.23
0.19
0.17
0.15
0.15
0.16
0.18
0.20
0.23
0.26
0.30
0.34
0.39
0.43
0.48
0.52
0.57
0.62
0.68
0.74
0.80
0.87
0.94
1.02
1.11
1.21
1.33
1.45
1.59
1.75
1.93
2.12
2.35
2.59
2.86
3.15
3.48
3.84
4.23
4.65
5.11
5.61
6.14
6.72
7.34
8.00
8.70
9.45
10.24
11.08
11.96
12.88
13.86
14.90
16.00
17.17
18.39
19.65
20.92
22.15
23.25
24.13
24.67
24.76
24.26
23.11
21.24
18.66
15.42
11.58
7.34
2.87
-1.62
-5.91
-9.81
-13.15
-15.83
-17.77
-18.96
-19.44
-19.29
-18.60
-17.49
-16.05
-14.38
-12.57
-10.70
-8.82
-6.92
-5.07
-3.27
-1.49
0.29
2.11
3.95
5.81
7.70
9.66
11.62
13.59
15.61
17.74
20.00
22.39
24.91
27.54
30.41
33.32
36.30
39.42
42.78
46.41
50.25
54.18
58.14
62.20
66.08
69.82
73.63
77.72
82.09
86.58
90.84
94.56
97.65
99.69
100.72
101.00
100.68
99.47
96.49
90.18
78.29
63.16
45.53
26.25
6.29
-13.55
-32.90
-51.86
-70.85
-90.47
-111.28
-134.45
-160.56
-189.20
-218.60
-245.58
-266.12
-276.64
-275.29
-262.58
-241.76
-216.91
-191.71
-168.39
-147.71
-129.55
-113.65
-100.05
-88.92
-80.40
-73.89
-68.11
-61.64
-53.49
-43.49
-32.23
-20.83
-10.31
-1.40
5.80
11.68
16.82
21.67
26.33
30.61
34.15
36.68
38.12
38.70
38.85
39.02
39.48
40.29
41.27
42.15
42.76
42.98
42.84
42.41
41.77
40.92
39.89
38.62
37.04
35.11
32.79
30.09
27.13
24.07
21.09
18.35
15.88
13.67
11.60
9.53
7.33
4.91
2.20
-0.77
-4.00
-7.38
-10.71
-13.72
-16.04
-17.29
-17.19
-15.67
-12.95
-9.44
-5.63
-1.95
1.35
4.21
6.65
8.70
10.33
11.48
12.08
12.19
11.96
11.63
11.47
11.68
12.33
13.33
14.47
15.48
16.16
16.38
16.19
15.69
15.04
14.30
13.48
12.52
11.36
10.01
8.48
6.84
5.13
3.39
1.61
-0.21
-2.11
-4.11
-6.21
-8.41
-10.73
-13.18
-15.73
-18.30
-20.69
-22.56
-23.53
-23.23
-21.45
-18.22
-13.89
-8.99
-4.08
0.33
3.94
6.66
8.48
9.49
9.79
9.56
9.09
8.67
8.60
8.99
9.78
10.80
11.84
12.78
13.57
14.19
14.62
14.75
14.46
13.64
12.30
10.53
8.51
6.38
4.23
2.11
0.05
-1.93
-3.80
-5.59
-7.38
-9.31
-11.52
-14.08
-16.84
-19.47
-21.48
-22.38
-21.83
-19.69
-16.17
-11.64
-6.62
-1.66
2.77
6.36
8.94
10.56
11.41
11.78
11.94
12.08
12.27
12.48
12.70
12.94
13.31
13.85
14.55
15.25
15.78
16.00
15.94
15.68
15.32
14.82
14.04
12.81
11.09
9.03
6.87
4.89
3.19
1.70
0.22
-1.50
-3.62
-6.21
-9.27
-12.72
-16.37
-19.88
-22.72
-24.35
-24.32
-22.48
-19.06
-14.61
-9.79
-5.23
-1.30
1.90
4.44
6.49
8.20
9.64
10.83
11.79
12.57
13.31
14.13
15.12
16.31
17.62
18.91
20.10
21.09
21.86
22.40
22.70
22.70
22.31
21.44
20.04
18.17
15.95
13.59
11.29
9.19
7.36
5.71
4.12
2.40
0.36
-2.12
-5.07
-8.40
-11.82
-14.94
-17.28
-18.41
-18.07
-16.25
-13.22
-9.40
-5.28
-1.30
2.29
5.35
7.85
9.74
11.02
11.65
11.66
11.22
10.60
10.12
10.02
10.45
11.33
12.52
13.80
14.99
15.93
16.55
16.86
16.91
16.78
16.57
16.30
15.89
15.18
14.03
12.38
10.34
8.15
6.07
4.24
2.61
0.97
-0.91
-3.22
-5.98
-9.03
-12.08
-14.80
-16.81
-17.79
-17.55
-16.03
-13.40
-9.97
-6.14
-2.32
1.23
4.30
6.79
8.63
9.80
10.33
10.33
10.04
9.72
9.59
9.86
10.57
11.70
13.10
14.56
15.83
16.71
17.09
17.00
16.57
15.94
15.16
14.19
12.92
11.31
9.44
7.49
5.68
4.16
2.88
1.64
0.21
-1.63
-3.98
-6.80
-9.91
-13.05
-15.86
-17.97
-18.97
-18.62
-16.89
-14.03
-10.50
-6.84
-3.49
-0.67
1.58
3.42
4.98
6.32
7.42
8.21
8.66
8.85
8.90
8.98
9.25
9.76
10.52
11.42
12.30
13.00
13.39
13.43
13.17
12.73
12.23
11.74
11.22
10.54
9.56
8.19
6.45
4.48
2.52
0.76
-0.71
-1.95
-3.17
-4.58
-6.35
-8.51
-10.99
-13.64
-16.27
-18.63
-20.38
-21.15
-20.64
-18.77
-15.75
-12.06
-8.25
-4.83
-2.03
0.18
1.91
3.31
4.43
5.27
5.83
6.16
6.42
6.71
7.11
7.59
8.09
8.52
8.83
9.00
9.07
9.04
8.95
8.80
8.60
8.34
8.03
7.65
7.18
6.60
5.88
5.04
4.10
3.09
2.06
1.05
0.06
-0.95
-2.07
-3.37
-4.85
-6.45
-8.04
-9.55
-11.01
-12.56
-14.35
-16.36
-18.33
-19.75
-20.07
-18.95
-16.43
-12.97
-9.24
-5.87
-3.19
-1.21
0.29
1.55
2.72
3.77
4.59
5.07
5.21
5.08
4.90
4.88
5.19
5.85
6.76
7.68
8.39
8.74
8.74
8.52
8.25
8.01
7.76
7.39
6.81
6.02
5.07
4.04
2.96
1.76
0.38
-1.18
-2.79
-4.25
-5.37
-6.05
-6.36
-6.44
-6.49
-6.62
-6.91
-7.39
-8.06
-8.97
-10.13
-11.57
-13.30
-15.29
-17.45
-19.66
-21.70
-23.28
-24.14
-24.08
-23.08
-21.26
-18.83
-16.04
-13.06
-10.06
-7.20
-4.68
-2.69
-1.36
-0.67
-0.46
-0.46
-0.38
-0.05
0.60
1.52
2.66
3.86
5.04
6.07
6.84
7.27
7.36
7.10
6.57
5.87
5.08
4.27
3.50
2.80
2.24
1.84
1.57
1.33
1.01
0.50
-0.24
-1.13
-2.07
-2.92
-3.64
-4.21
-4.68
-5.08
-5.44
-5.81
-6.23
-6.77
-7.45
-8.30
-9.33
-10.57
-12.12
-14.08
-16.44
-19.07
-21.64
-23.66
-24.66
-24.36
-22.74
-20.04
-16.71
-13.24
-10.06
-7.43
-5.40
-3.92
-2.89
-2.22
-1.88
-1.78
-1.82
-1.75
-1.37
-0.50
0.86
2.62
4.55
6.45
8.12
9.45
10.36
10.81
10.82
10.43
9.72
8.81
7.77
6.70
5.67
4.77
4.02
3.40
2.84
2.19
1.40
0.43
-0.61
-1.58
-2.37
-2.96
-3.43
-3.94
-4.59
-5.39
-6.24
-6.97
-7.51
-7.91
-8.46
-9.49
-11.30
-13.95
-17.12
-20.30
-22.86
-24.32
-24.47
-23.41
-21.40
-18.78
-15.84
-12.81
-9.84
-7.09
-4.68
-2.72
-1.26
-0.26
0.38
0.79
1.09
1.38
1.71
2.15
2.79
3.67
4.81
6.08
7.33
8.35
9.04
9.44
9.64
9.81
10.02
10.31
10.64
10.99
11.30
11.57
11.73
11.68
11.36
10.69
9.68
8.40
6.93
5.39
3.91
2.57
1.47
0.65
0.07
-0.38
-0.83
-1.45
-2.36
-3.61
-5.21
-7.11
-9.17
-11.22
-13.03
-14.32
-14.80
-14.22
-12.40
-9.37
-5.34
-0.68
4.16
8.83
13.18
17.25
21.22
25.19
29.18
32.95
36.27
38.98
41.18
43.28
45.86
49.45
54.34
60.36
66.98
73.37
78.70
82.27
83.68
82.73
79.46
74.05
66.88
58.39
49.15
39.65
30.26
21.14
12.33
3.89
-3.98
-11.00
-16.85
-21.37
-24.63
-26.88
-28.44
-29.52
-30.21
-30.52
-30.48
-30.14
-29.71
-29.42
-29.51
-30.14
-31.39
-33.20
-35.34
-37.51
-39.32
-40.37
-40.40
-39.28
-37.12
-34.18
-30.84
-27.49
-24.41
-21.73
-19.46
-17.52
-15.74
-13.97
-12.03
-9.73
-6.88
-3.36
0.89
5.82
11.33
17.33
23.67
30.15
36.46
41.96
45.74
46.71
44.01
37.38
27.55
16.16
5.36
-2.90
-7.49
-8.36
-6.36
-2.75
1.19
4.54
6.67
7.20
5.94
2.94
-1.44
-6.60
-11.78
-16.33
-19.86
-22.31
-23.88
-24.97
-26.02
-27.40
-29.27
-31.46
-33.58
-35.06
-35.49
-34.75
-33.15
-31.21
-29.53
-28.52
-28.27
-28.62
-29.18
-29.58
-29.47
-28.63
-27.02
-24.70
-21.86
-18.71
-15.48
-12.31
-9.32
-6.59
-4.19
-2.21
-0.65
0.49
1.34
1.98
2.53
3.01
3.38
3.55
3.47
3.13
2.61
2.04
1.55
1.23
1.07
0.98
0.79
0.38
-0.33
-1.27
-2.31
-3.34
-4.30
-5.26
-6.34
-7.58
-8.87
-9.97
-10.56
-10.38
-9.40
-7.73
-5.62
-3.28
-0.88
1.48
3.64
5.41
6.60
7.07
6.80
5.95
4.78
3.60
2.66
2.18
2.19
2.63
3.30
3.96
4.39
4.48
4.29
3.97
3.64
3.39
3.22
2.99
2.62
2.03
1.21
0.24
-0.77
-1.74
-2.61
-3.43
-4.32
-5.36
-6.59
-7.89
-9.00
-9.65
-9.62
-8.89
-7.57
-5.89
-4.14
-2.51
-1.13
-0.01
0.92
1.75
2.56
3.37
4.13
4.73
5.05
4.95
4.37
3.26
1.62
-0.48
-2.88
-5.33
-7.53
-9.17
-10.07
-10.26
-9.94
-9.45
-9.09
-9.03
-9.21
-9.38
-9.33
-8.93
-8.21
-7.39
-6.76
-6.57
-6.94
-7.88
-9.16
-10.48
-11.42
-11.57
-10.65
-8.57
-5.43
-1.51
2.76
6.98
10.82
14.08
16.71
18.78
20.35
21.48
22.19
22.38
21.99
20.99
19.45
17.52
15.40
13.33
11.44
9.81
8.40
7.09
5.69
3.98
1.80
-0.90
-3.97
-7.14
-9.99
-12.15
-13.35
-13.56
-12.96
-11.95
-11.01
-10.54
-10.77
-11.68
-12.99
-14.27
-15.07
-15.04
-14.03
-12.12
-9.54
-6.63
-3.66
-0.85
1.68
3.85
5.60
6.82
7.42
7.37
6.73
5.73
4.67
3.90
3.72
4.35
5.80
7.94
10.52
13.18
15.61
17.54
18.80
19.36
19.29
18.70
17.69
16.30
14.45
12.01
8.84
4.95
0.59
-3.78
-7.62
-10.41
-11.94
-12.25
-11.65
-10.56
-9.40
-8.48
-8.08
-8.31
-9.13
-10.28
-11.29
-11.68
-11.08
-9.46
-7.09
-4.43
-1.91
0.17
1.71
2.68
3.11
3.07
2.63
1.93
1.06
0.05
-1.14
-2.55
-4.16
-5.86
-7.51
-9.02
-10.41
-11.87
-13.58
-15.63
-17.97
-20.43
-22.70
-24.47
-25.44
-25.41
-24.35
-22.40
-19.86
-17.10
-14.47
-12.21
-10.47
-9.27
-8.58
-8.30
-8.35
-8.61
-8.99
-9.41
-9.74
-9.78
-9.35
-8.33
-6.75
-4.87
-3.04
-1.62
-0.76
-0.43
-0.43
-0.64
-1.01
-1.60
-2.48
-3.58
-4.71
-5.67
-6.38
-6.99
-7.75
-8.91
-10.48
-12.23
-13.68
-14.40
-14.15
-12.96
-11.12
-8.93
-6.64
-4.36
-2.12
0.03
1.99
3.57
4.62
5.10
5.11
4.88
4.68
4.72
5.11
5.86
6.84
7.91
8.92
9.76
10.38
10.81
11.11
11.44
11.91
12.59
13.42
14.19
14.64
14.52
13.70
12.24
10.39
8.45
6.67
5.19
3.94
2.70
1.22
-0.69
-3.09
-5.90
-8.88
-11.72
-14.02
-15.46
-15.79
-14.89
-12.83
-9.82
-6.23
-2.43
1.17
4.30
6.81
8.71
10.08
11.11
11.93
12.66
13.37
14.04
14.69
15.30
15.93
16.62
17.41
18.26
19.11
19.86
20.44
20.86
21.16
21.39
21.52
21.51
21.24
20.71
20.00
19.27
18.70
18.36
18.13
17.75
16.96
15.59
13.70
11.52
9.36
7.47
5.94
4.73
3.69
2.68
1.58
0.32
-1.17
-2.98
-5.16
-7.73
-10.56
-13.33
-15.59
-16.82
-16.64
-14.91
-11.83
-7.86
-3.60
0.41
3.83
6.62
8.94
11.03
13.06
15.04
16.87
18.49
19.98
21.55
23.50
26.07
29.28
32.97
36.78
40.37
43.52
46.20
48.47
50.39
51.95
53.05
53.51
53.17
51.88
49.59
46.30
42.14
37.37
32.34
27.42
22.91
18.95
15.50
12.39
9.40
6.43
3.53
0.85
-1.44
-3.24
-4.56
-5.53
-6.31
-7.06
-7.87
-8.72
-9.51
-10.01
-9.98
-9.17
-7.52
-5.10
-2.23
0.62
3.01
4.65
5.51
5.80
5.85
5.94
6.26
6.85
7.67
8.70
9.88
11.22
12.70
14.27
15.90
17.56
19.30
21.15
23.13
25.12
26.88
28.09
28.44
27.79
26.20
23.87
21.06
17.92
14.53
10.88
7.01
3.08
-0.66
-4.01
-6.88
-9.39
-11.71
-14.01
-16.36
-18.71
-20.97
-23.03
-24.84
-26.41
-27.75
-28.96
-30.14
-31.45
-33.10
-35.20
-37.68
-40.27
-42.54
-44.03
-44.39
-43.52
-41.49
-38.58
-35.13
-31.52
-28.07
-25.05
-22.65
-20.93
-19.82
-19.12
-18.61
-18.05
-17.31
-16.33
-15.15
-13.80
-12.34
-10.84
-9.32
-7.83
-6.38
-4.99
-3.62
-2.29
-1.05
-0.06
0.58
0.74
0.44
-0.13
-0.75
-1.19
-1.35
-1.32
-1.31
-1.54
-2.11
-2.92
-3.79
-4.55
-5.10
-5.53
-5.97
-6.56
-7.37
-8.35
-9.42
-10.44
-11.30
-11.95
-12.41
-12.79
-13.26
-14.05
-15.36
-17.32
-19.87
-22.79
-25.66
-28.02
-29.45
-29.67
-28.63
-26.45
-23.42
-19.86
-16.10
-12.45
-9.14
-6.36
-4.23
-2.75
-1.87
-1.50
-1.58
-2.02
-2.70
-3.43
-3.91
-3.83
-2.97
-1.34
0.84
3.13
5.08
6.35
6.84
6.69
6.21
5.66
5.21
4.89
4.63
4.33
3.98
3.63
3.34
3.08
2.80
2.33
1.67
0.93
0.39
0.36
0.94
2.00
3.13
3.85
3.88
3.16
1.88
0.33
-1.32
-3.01
-4.83
-6.89
-9.30
-12.18
-15.63
-19.69
-24.27
-29.03
-33.41
-36.75
-38.61
-38.88
-37.83
-36.00
-33.90
-31.87
-29.93
-28.01
-25.95
-23.78
-21.57
-19.45
-17.48
-15.66
-13.93
-12.17
-10.33
-8.36
-6.33
-4.25
-2.22
-0.27
1.59
3.36
4.99
6.44
7.62
8.44
8.80
8.72
8.29
7.68
6.99
6.29
5.56
4.80
4.03
3.29
2.61
1.96
1.22
0.24
-1.09
-2.70
-4.35
-5.81
-6.86
-7.51
-7.93
-8.37
-9.09
-10.27
-11.95
-14.11
-16.59
-19.14
-21.33
-22.69
-22.74
-21.20
-18.07
-13.73
-8.74
-3.77
0.66
4.27
7.03
9.07
10.61
11.80
12.67
13.27
13.60
13.77
13.94
14.33
15.06
16.12
17.39
18.66
19.74
20.55
21.09
21.41
21.55
21.49
21.10
20.30
19.00
17.24
15.19
13.05
11.02
9.21
7.60
6.06
4.44
2.63
0.65
-1.42
-3.42
-5.20
-6.67
-7.82
-8.78
-9.82
-11.22
-13.29
-16.16
-19.72
-23.62
-27.25
-29.94
-31.09
-30.32
-27.56
-23.11
-17.47
-11.31
-5.25
0.24
4.87
8.59
11.48
13.71
15.43
16.76
17.77
18.52
19.10
19.62
20.22
21.03
22.13
23.49
25.01
26.54
27.93
29.10
30.00
30.61
30.88
30.77
30.20
29.18
27.75
26.03
24.18
22.33
20.56
18.85
17.15
15.37
13.44
11.36
9.15
6.86
4.51
2.09
-0.44
-3.19
-6.23
-9.60
-13.27
-17.17
-21.17
-25.12
-28.73
-31.66
-33.48
-33.76
-32.16
-28.67
-23.55
-17.41
-10.98
-4.95
0.24
4.44
7.73
10.34
12.43
14.10
15.38
16.27
16.89
17.41
18.06
19.03
20.38
22.06
23.89
25.67
27.23
28.47
29.40
30.01
30.30
30.20
29.61
28.47
26.81
24.73
22.48
20.26
18.23
16.43
14.76
13.04
11.08
8.78
6.16
3.38
0.66
-1.76
-3.76
-5.38
-6.76
-8.11
-9.65
-11.53
-13.89
-16.83
-20.39
-24.46
-28.73
-32.65
-35.58
-36.94
-36.40
-33.98
-29.97
-24.85
-19.17
-13.39
-7.89
-3.00
1.04
4.09
6.19
7.50
8.32
8.96
9.64
10.55
11.73
13.15
14.74
16.43
18.18
20.00
21.87
23.75
25.49
26.88
27.71
27.83
27.23
25.99
24.29
22.32
20.24
18.19
16.29
14.64
13.30
12.21
11.20
10.04
8.51
6.49
4.04
1.37
-1.24
-3.59
-5.66
-7.60
-9.72
-12.31
-15.54
-19.37
-23.63
-28.01
-32.16
-35.69
-38.15
-39.15
-38.36
-35.72
-31.43
-26.03
-20.17
-14.46
-9.28
-4.84
-1.17
1.76
3.94
5.41
6.24
6.62
6.78
7.04
7.61
8.55
9.80
11.16
12.46
13.59
14.50
15.22
15.79
16.21
16.42
16.39
16.13
15.70
15.14
14.44
13.53
12.31
10.77
8.97
7.09
5.23
3.42
1.54
-0.57
-3.01
-5.77
-8.75
-11.84
-14.94
-18.02
-20.96
-23.48
-25.14
-25.46
-24.11
-21.10
-16.75
-11.71
-6.62
-2.03
1.79
4.78
7.00
8.52
9.37
9.58
9.27
8.68
8.14
7.92
8.25
9.11
10.38
11.85
13.30
14.61
15.71
16.59
17.22
17.55
17.50
16.97
15.97
14.61
13.11
11.68
10.46
9.38
8.24
6.80
4.88
2.51
-0.11
-2.69
-5.04
-7.11
-9.01
-10.95
-13.19
-15.96
-19.40
-23.51
-28.06
-32.53
-36.19
-38.23
-38.05
-35.47
-30.77
-24.64
-17.94
-11.44
-5.63
-0.73
3.34
6.72
9.58
12.03
14.12
15.89
17.38
18.66
19.85
21.08
22.41
23.83
25.23
26.49
27.49
28.19
28.65
28.91
29.02
28.93
28.52
27.65
26.26
24.45
22.43
20.43
18.55
16.78
14.97
12.92
10.51
7.75
4.75
1.71
-1.21
-3.88
-6.25
-8.39
-10.40
-12.46
-14.78
-17.57
-20.93
-24.85
-29.09
-33.20
-36.58
-38.57
-38.66
-36.64
-32.67
-27.20
-20.89
-14.42
-8.39
-3.27
0.63
3.20
4.59
5.17
5.41
5.78
6.55
7.74
9.20
10.76
12.31
13.90
15.56
17.28
18.94
20.34
21.35
21.95
22.22
22.29
22.23
22.02
21.52
20.62
19.23
17.45
15.46
13.49
11.74
10.27
8.98
7.69
6.19
4.36
2.24
-0.07
-2.38
-4.58
-6.68
-8.78
-11.08
-13.76
-16.95
-20.66
-24.74
-28.89
-32.62
-35.31
-36.38
-35.47
-32.57
-28.08
-22.67
-17.09
-11.93
-7.45
-3.66
-0.46
2.23
4.37
5.86
6.71
7.09
7.30
7.73
8.64
10.07
11.85
13.71
15.37
16.67
17.58
18.18
18.57
18.85
19.04
19.08
18.85
18.24
17.20
15.80
14.21
12.60
11.11
9.80
8.56
7.25
5.73
3.97
2.01
-0.00
-1.96
-3.83
-5.67
-7.69
-10.11
-13.16
-16.90
-21.26
-25.94
-30.46
-34.26
-36.72
-37.36
-35.91
-32.44
-27.40
-21.51
-15.58
-10.23
-5.77
-2.18
0.80
3.41
5.76
7.82
9.52
10.89
12.06
13.21
14.46
15.84
17.27
18.63
19.84
20.88
21.78
22.58
23.32
24.03
24.72
25.34
25.74
25.70
25.05
23.73
21.86
19.74
17.62
15.69
13.94
12.22
10.34
8.15
5.65
2.95
0.21
-2.42
-4.87
-7.17
-9.47
-11.91
-14.66
-17.79
-21.32
-25.14
-29.07
-32.82
-36.00
-38.13
-38.76
-37.57
-34.52
-29.90
-24.31
-18.44
-12.92
-8.13
-4.18
-0.98
1.68
4.00
6.09
8.04
9.88
11.64
13.36
15.06
16.75
18.38
19.90
21.26
22.39
23.29
23.97
24.44
24.71
24.75
24.53
24.04
23.23
22.13
20.77
19.27
17.72
16.21
14.75
13.24
11.58
9.64
7.42
5.04
2.66
0.47
-1.51
-3.35
-5.24
-7.38
-9.92
-12.95
-16.47
-20.44
-24.74
-29.13
-33.22
-36.46
-38.26
-38.15
-35.94
-31.85
-26.42
-20.41
-14.53
-9.29
-4.92
-1.41
1.39
3.56
5.16
6.21
6.81
7.14
7.48
8.07
9.02
10.29
11.78
13.37
14.99
16.61
18.17
19.60
20.74
21.41
21.48
20.88
19.70
18.10
16.31
14.56
13.00
11.64
10.38
9.07
7.57
5.82
3.85
1.74
-0.41
-2.50
-4.46
-6.19
-7.73
-9.24
-11.02
-13.40
-16.58
-20.46
-24.56
-28.12
-30.38
-30.74
-29.08
-25.64
-21.00
-15.83
-10.71
-6.04
-2.02
1.29
3.92
5.90
7.29
8.17
8.70
9.10
9.59
10.36
11.47
12.89
14.48
16.11
17.64
18.98
20.08
20.92
21.48
21.77
21.78
21.47
20.78
19.71
18.25
16.53
14.68
12.85
11.12
9.50
7.93
6.33
4.63
2.83
0.92
-1.08
-3.17
-5.37
-7.70
-10.18
-12.86
-15.82
-19.13
-22.79
-26.63
-30.25
-33.11
-34.64
-34.45
-32.44
-28.83
-24.06
-18.65
-13.11
-7.87
-3.26
0.52
3.34
5.25
6.45
7.22
7.80
8.40
9.12
9.99
11.07
12.38
13.89
15.50
17.03
18.31
19.22
19.77
20.06
20.18
20.12
19.83
19.17
18.08
16.62
14.96
13.32
11.86
10.61
9.49
8.33
6.95
5.25
3.23
1.00
-1.24
-3.32
-5.13
-6.67
-8.06
-9.48
-11.13
-13.19
-15.78
-18.91
-22.44
-26.04
-29.20
-31.28
-31.74
-30.30
-27.04
-22.44
-17.20
-12.05
-7.51
-3.81
-0.87
1.49
3.46
5.11
6.41
7.29
7.79
8.03
8.27
8.70
9.36
10.17
10.96
11.60
12.03
12.33
12.58
12.85
13.15
13.42
13.55
13.44
13.03
12.32
11.38
10.31
9.22
8.18
7.15
6.10
4.94
3.65
2.24
0.82
-0.56
-1.88
-3.15
-4.48
-5.95
-7.64
-9.57
-11.74
-14.13
-16.74
-19.56
-22.55
-25.52
-28.10
-29.76
-29.96
-28.44
-25.29
-21.03
-16.43
-12.16
-8.62
-5.85
-3.66
-1.84
-0.31
0.90
1.69
2.02
2.04
2.00
2.20
2.82
3.88
5.23
6.64
7.93
9.00
9.83
10.49
10.99
11.29
11.31
10.98
10.29
9.34
8.29
7.29
6.41
5.65
4.92
4.16
3.31
2.36
1.33
0.25
-0.87
-2.02
-3.20
-4.40
-5.60
-6.77
-7.87
-8.92
-10.02
-11.34
-13.06
-15.31
-18.09
-21.17
-24.14
-26.48
-27.73
-27.60
-26.03
-23.28
-19.74
-15.86
-12.06
-8.56
-5.48
-2.85
-0.69
0.96
2.09
2.75
3.07
3.23
3.44
3.81
4.40
5.17
6.01
6.81
7.51
8.12
8.70
9.33
10.01
10.64
11.02
10.98
10.49
9.64
8.65
7.70
6.89
6.18
5.51
4.79
4.01
3.19
2.35
1.48
0.50
-0.65
-2.00
-3.52
-5.15
-6.82
-8.49
-10.21
-12.09
-14.28
-16.89
-19.87
-22.96
-25.76
-27.80
-28.68
-28.18
-26.34
-23.39
-19.73
-15.78
-11.92
-8.41
-5.35
-2.76
-0.59
1.19
2.56
3.49
3.96
4.03
3.85
3.66
3.69
4.07
4.89
6.06
7.45
8.86
10.13
11.17
11.91
12.34
12.42
12.13
11.44
10.41
9.13
7.75
6.41
5.20
4.11
3.09
2.05
0.90
-0.40
-1.86
-3.42
-5.04
-6.65
-8.21
-9.66
-10.99
-12.23
-13.47
-14.82
-16.39
-18.19
-20.11
-21.89
-23.25
-23.86
-23.51
-22.07
-19.55
-16.07
-11.87
-7.33
-2.90
0.98
3.96
5.87
6.77
6.88
6.53
6.11
5.94
6.26
7.10
8.27
9.41
10.16
10.28
9.80
8.94
7.99
7.14
6.39
5.54
4.33
2.55
0.26
-2.28
-4.68
-6.57
-7.78
-8.34
-8.48
-8.45
-8.42
-8.43
-8.43
-8.38
-8.31
-8.30
-8.41
-8.63
-8.92
-9.26
-9.76
-10.60
-11.98
-13.93
-16.23
-18.43
-19.95
-20.25
-19.08
-16.54
-13.02
-9.12
-5.42
-2.31
0.05
1.67
2.68
3.21
3.38
3.32
3.20
3.16
3.38
3.89
4.72
5.81
7.07
8.43
9.84
11.28
12.74
14.19
15.52
16.55
17.07
16.94
16.16
14.96
13.63
12.46
11.58
10.91
10.19
9.20
7.81
6.06
4.09
2.03
-0.02
-2.01
-3.96
-5.86
-7.69
-9.51
-11.43
-13.59
-16.13
-19.08
-22.26
-25.26
-27.50
-28.38
-27.53
-24.91
-20.88
-16.05
-11.07
-6.50
-2.65
0.30
2.33
3.47
3.81
3.53
2.93
2.33
2.06
2.30
3.07
4.24
5.63
7.04
8.32
9.42
10.32
11.07
11.74
12.37
12.94
13.37
13.52
13.26
12.55
11.44
10.06
8.62
7.25
6.03
4.91
3.77
2.47
0.97
-0.68
-2.35
-3.92
-5.40
-6.93
-8.68
-10.84
-13.46
-16.49
-19.66
-22.65
-25.09
-26.64
-27.02
-26.07
-23.80
-20.40
-16.22
-11.72
-7.34
-3.48
-0.36
1.96
3.55
4.54
5.09
5.31
5.30
5.16
5.03
5.07
5.45
6.21
7.30
8.51
9.64
10.52
11.15
11.64
12.10
12.59
12.99
13.10
12.71
11.77
10.31
8.53
6.64
4.76
3.00
1.36
-0.18
-1.66
-3.15
-4.71
-6.44
-8.42
-10.68
-13.23
-15.98
-18.70
-21.08
-22.69
-23.19
-22.33
-20.14
-16.86
-12.90
-8.65
-4.46
-0.55
2.95
5.92
8.20
9.69
10.38
10.37
9.93
9.43
9.14
9.24
9.75
10.53
11.47
12.46
13.45
14.40
15.28
15.96
16.34
16.35
15.95
15.21
14.21
13.04
11.73
10.31
8.78
7.16
5.45
3.68
1.91
0.20
-1.38
-2.81
-4.09
-5.41
-6.98
-9.04
-11.73
-14.99
-18.51
-21.79
-24.29
-25.55
-25.31
-23.58
-20.55
-16.56
-12.04
-7.41
-3.11
0.47
3.12
4.84
5.82
6.37
6.78
7.24
7.78
8.33
8.84
9.30
9.75
10.27
10.91
11.66
12.53
13.47
14.44
15.29
15.85
15.92
15.40
14.34
12.96
11.61
10.56
9.95
9.72
9.63
9.40
8.82
7.78
6.32
4.57
2.70
0.83
-0.99
-2.84
-4.89
-7.37
-10.48
-14.23
-18.36
-22.34
-25.49
-27.09
-26.72
-24.35
-20.36
-15.44
-10.37
-5.72
-1.80
1.38
3.96
6.08
7.76
8.97
9.69
10.00
10.16
10.46
11.12
12.22
13.67
15.23
16.70
17.96
18.97
19.78
20.42
20.83
20.92
20.57
19.74
18.51
17.04
15.49
13.99
12.57
11.20
9.80
8.29
6.59
4.67
2.54
0.33
-1.78
-3.59
-5.00
-6.04
-6.95
-8.04
-9.60
-11.80
-14.64
-17.90
-21.27
-24.32
-26.58
-27.64
-27.18
-25.10
-21.60
-17.15
-12.39
-7.92
-4.18
-1.30
0.88
2.68
4.35
6.00
7.55
8.84
9.76
10.37
10.83
11.36
12.11
13.07
14.20
15.41
16.67
17.91
19.06
19.96
20.42
20.31
19.61
18.43
16.95
15.39
13.84
12.32
10.81
9.21
7.50
5.68
3.78
1.87
-0.02
-1.83
-3.54
-5.12
-6.62
-8.04
-9.47
-11.04
-12.88
-15.17
-17.99
-21.29
-24.81
-28.15
-30.75
-32.12
-31.89
-29.96
-26.52
-21.98
-16.88
-11.76
-7.01
-2.88
0.52
3.21
5.23
6.69
7.70
8.46
9.15
10.01
11.18
12.75
14.66
16.77
18.89
20.85
22.46
23.61
24.20
24.19
23.65
22.67
21.33
19.68
17.74
15.53
13.18
10.88
8.85
7.24
6.01
4.94
3.73
2.17
0.22
-1.98
-4.20
-6.27
-8.16
-9.97
-11.90
-14.11
-16.70
-19.67
-22.93
-26.37
-29.74
-32.69
-34.81
-35.63
-34.84
-32.33
-28.35
-23.38
-18.05
-12.98
-8.61
-5.17
-2.64
-0.82
0.58
1.77
2.89
3.99
5.05
6.09
7.15
8.34
9.68
11.12
12.49
13.63
14.47
15.09
15.61
16.16
16.68
17.06
17.09
16.71
15.90
14.80
13.56
12.30
11.07
9.88
8.71
7.54
6.27
4.82
3.08
1.03
-1.21
-3.47
-5.49
-7.16
-8.48
-9.66
-11.01
-12.87
-15.44
-18.76
-22.65
-26.74
-30.56
-33.59
-35.33
-35.39
-33.58
-30.00
-25.04
-19.41
-13.90
-9.19
-5.61
-3.11
-1.34
0.15
1.68
3.35
5.06
6.72
8.31
10.04
12.16
14.92
18.37
22.37
26.64
30.85
34.72
38.09
40.86
43.00
44.55
45.62
46.46
47.33
48.44
49.77
51.12
52.12
52.40
51.67
49.75
46.45
41.64
35.20
27.09
17.42
6.40
-5.68
-18.39
-31.02
-42.50
-51.52
-56.91
-58.24
-56.10
-52.14
-48.46
-46.78
-47.77
-50.91
-54.85
-58.05
-59.47
-58.78
-56.32
-52.69
-48.41
-43.76
-38.81
-33.64
-28.49
-23.86
-20.31
-18.27
-17.77
-18.36
-19.36
-20.10
-20.24
-19.84
-19.31
-19.04
-19.28
-19.92
-20.62
-20.93
-20.47
-19.08
-16.81
-13.91
-10.75
-7.72
-5.11
-3.09
-1.69
-0.83
-0.44
-0.46
-0.89
-1.66
-2.63
-3.56
-4.20
-4.39
-4.24
-4.06
-4.32
-5.44
-7.61
-10.69
-14.20
-17.39
-19.50
-19.91
-18.39
-15.01
-10.24
-4.68
1.04
6.35
10.82
14.21
16.45
17.70
18.27
18.48
18.57
18.62
18.62
18.53
18.44
18.50
18.86
19.58
20.47
21.26
21.64
21.47
20.76
19.68
18.39
17.00
15.55
14.00
12.39
10.81
9.40
8.24
7.31
6.44
5.33
3.79
1.77
-0.51
-2.75
-4.68
-6.29
-7.82
-9.69
-12.21
-15.45
-19.11
-22.64
-25.39
-26.82
-26.68
-24.96
-21.94
-18.01
-13.62
-9.16
-4.93
-1.11
2.21
5.01
7.29
9.07
10.42
11.43
12.25
13.04
13.97
15.16
16.69
18.55
20.63
22.80
24.81
26.44
27.47
27.81
27.51
26.75
25.80
24.88
24.10
23.44
22.75
21.83
20.57
18.92
16.92
14.67
12.25
9.71
7.11
4.54
2.10
-0.12
-2.14
-4.13
-6.37
-9.14
-12.52
-16.22
-19.66
-22.09
-22.89
-21.74
-18.80
-14.57
-9.76
-5.04
-0.87
2.54
5.21
7.33
9.04
10.43
11.52
12.24
12.61
12.70
12.65
12.64
12.79
13.15
13.74
14.55
15.56
16.71
17.90
18.99
19.80
20.20
20.12
19.57
18.67
17.55
16.33
15.08
13.79
12.35
10.68
8.74
6.61
4.48
2.53
0.84
-0.69
-2.35
-4.44
-7.19
-10.59
-14.38
-18.10
-21.13
-22.92
-23.06
-21.36
-17.99
-13.40
-8.28
-3.32
0.96
4.35
6.92
8.95
10.68
12.27
13.67
14.71
15.27
15.35
15.16
15.00
15.17
15.82
16.90
18.22
19.50
20.53
21.14
21.27
20.86
19.90
18.35
16.30
13.93
11.58
9.50
7.87
6.63
5.56
4.39
2.99
1.34
-0.44
-2.22
-3.99
-5.85
-8.00
-10.57
-13.54
-16.67
-19.54
-21.63
-22.47
-21.75
-19.42
-15.73
-11.13
-6.13
-1.17
3.46
7.53
10.83
13.14
14.26
14.15
13.09
11.63
10.43
10.01
10.58
12.03
13.99
16.08
18.00
19.57
20.74
21.50
21.81
21.69
21.15
20.27
19.16
17.86
16.49
15.08
13.65
12.15
10.50
8.58
6.34
3.81
1.15
-1.41
-3.67
-5.54
-7.08
-8.50
-10.07
-12.04
-14.54
-17.56
-20.86
-24.01
-26.49
-27.77
-27.49
-25.57
-22.23
-17.91
-13.18
-8.54
-4.39
-0.95
1.70
3.58
4.82
5.59
6.11
6.54
7.06
7.74
8.61
9.65
10.83
12.07
13.30
14.41
15.32
16.01
16.53
17.00
17.52
18.14
18.73
19.09
19.03
18.44
17.41
16.16
14.98
14.04
13.31
12.60
11.62
10.11
8.01
5.47
2.78
0.25
-1.91
-3.70
-5.29
-6.92
-8.81
-11.10
-13.75
-16.72
-19.79
-22.71
-25.04
-26.33
-26.16
-24.36
-21.08
-16.85
-12.37
-8.29
-5.02
-2.66
-1.02
0.18
1.14
1.96
2.59
2.93
2.98
2.82
2.66
2.75
3.27
4.26
5.60
7.06
8.40
9.44
10.10
10.40
10.41
10.14
9.62
8.86
7.90
6.87
5.89
5.04
4.35
3.72
3.04
2.18
1.10
-0.15
-1.48
-2.76
-3.95
-5.07
-6.25
-7.71
-9.63
-12.10
-15.02
-18.09
-20.81
-22.66
-23.19
-22.15
-19.58
-15.77
-11.22
-6.52
-2.19
1.36
3.92
5.47
6.08
5.94
5.26
4.29
3.32
2.59
2.25
2.35
2.78
3.39
4.00
4.51
4.87
5.10
5.21
5.20
5.07
4.82
4.46
3.99
3.41
2.70
1.89
1.07
0.34
-0.21
-0.59
-0.90
-1.32
-2.00
-3.04
-4.36
-5.80
-7.17
-8.36
-9.40
-10.44
-11.75
-13.55
-15.99
-19.01
-22.40
-25.79
-28.71
-30.68
-31.26
-30.18
-27.48
-23.48
-18.80
-14.12
-10.01
-6.72
-4.21
-2.24
-0.57
0.89
2.11
2.97
3.44
3.63
3.74
3.97
4.45
5.11
5.76
6.21
6.31
6.06
5.57
5.00
4.51
4.22
4.16
4.34
4.72
5.26
5.86
6.42
6.82
7.00
6.95
6.71
6.33
5.85
5.28
4.63
3.92
3.20
2.51
1.84
1.14
0.32
-0.65
-1.78
-2.97
-4.10
-5.06
-5.83
-6.44
-7.00
-7.61
-8.32
-9.23
-10.42
-12.06
-14.27
-17.11
-20.45
-23.90
-26.93
-28.96
-29.59
-28.65
-26.26
-22.80
-18.77
-14.69
-11.00
-7.96
-5.61
-3.85
-2.54
-1.56
-0.93
-0.71
-0.92
-1.49
-2.23
-2.88
-3.25
-3.23
-2.86
-2.20
-1.32
-0.31
0.80
1.90
2.91
3.66
4.06
4.08
3.79
3.36
2.96
2.68
2.49
2.33
2.10
1.79
1.44
1.07
0.63
-0.02
-1.07
-2.64
-4.70
-7.12
-9.69
-12.25
-14.70
-17.00
-18.98
-20.38
-20.82
-19.96
-17.69
-14.20
-9.99
-5.71
-1.94
0.95
2.92
4.09
4.71
4.93
4.84
4.53
4.08
3.69
3.57
3.92
4.77
5.99
7.34
8.61
9.63
10.38
10.95
11.45
11.89
12.15
12.08
11.54
10.54
9.28
8.07
7.15
6.52
5.97
5.17
3.86
2.04
-0.09
-2.20
-4.08
-5.69
-7.17
-8.74
-10.57
-12.73
-15.18
-17.82
-20.48
-22.92
-24.79
-25.67
-25.20
-23.22
-19.89
-15.66
-11.10
-6.73
-2.90
0.27
2.80
4.73
6.09
6.85
7.05
6.79
6.27
5.73
5.34
5.21
5.33
5.67
6.22
6.94
7.80
8.74
9.63
10.38
10.93
11.22
11.29
11.12
10.70
10.03
9.15
8.13
7.06
6.00
4.92
3.73
2.34
0.71
-1.09
-2.92
-4.65
-6.26
-7.85
-9.69
-12.03
-15.02
-18.54
-22.21
-25.45
-27.68
-28.48
-27.70
-25.49
-22.19
-18.24
-14.03
-9.86
-5.95
-2.53
0.24
2.20
3.32
3.70
3.62
3.39
3.29
3.54
4.18
5.23
6.58
8.14
9.81
11.48
13.03
14.34
15.30
15.85
15.96
15.65
14.99
14.03
12.92
11.71
10.53
9.42
8.36
7.28
6.03
4.45
2.47
0.12
-2.43
-4.96
-7.26
-9.28
-11.13
-13.06
-15.29
-17.88
-20.71
-23.34
-25.21
-25.75
-24.62
-21.76
-17.49
-12.34
-6.94
-1.90
2.41
5.80
8.29
10.03
11.17
11.83
12.08
11.97
11.63
11.24
11.03
11.21
11.81
12.76
13.83
14.81
15.49
15.75
15.56
14.88
13.74
12.20
10.36
8.30
6.12
3.85
1.52
-0.88
-3.31
-5.66
-7.82
-9.68
-11.22
-12.55
-13.86
-15.39
-17.28
-19.54
-22.01
-24.34
-26.13
-26.98
-26.58
-24.78
-21.65
-17.49
-12.75
-7.93
-3.51
0.21
3.07
5.08
6.27
6.69
6.44
5.69
4.75
4.01
3.79
4.28
5.47
7.15
9.07
10.96
12.61
13.90
14.76
15.12
14.96
14.27
13.11
11.55
9.70
7.67
5.56
3.45
1.39
-0.60
-2.49
-4.29
-6.03
-7.79
-9.65
-11.74
-14.16
-16.96
-20.16
-23.67
-27.27
-30.62
-33.27
-34.77
-34.77
-33.13
-30.00
-25.74
-20.86
-15.85
-11.07
-6.74
-2.92
0.34
3.00
5.06
6.54
7.56
8.30
8.98
9.80
10.89
12.25
13.85
15.64
17.53
19.43
21.19
22.62
23.54
23.83
23.48
22.58
21.32
19.93
18.58
17.37
16.30
15.28
14.17
12.79
11.04
8.87
6.34
3.63
0.97
-1.49
-3.66
-5.68
-7.83
-10.47
-13.86
-18.05
-22.71
-27.25
-30.95
-33.15
-33.46
-31.82
-28.48
-23.90
-18.59
-13.02
-7.62
-2.70
1.50
4.90
7.54
9.53
10.98
11.96
12.53
12.70
12.63
12.56
12.77
13.50
14.83
16.61
18.53
20.27
21.56
22.34
22.68
22.69
22.47
22.03
21.34
20.40
19.25
17.96
16.64
15.32
14.04
12.78
11.53
10.27
8.96
7.47
5.68
3.53
1.10
-1.40
-3.76
-5.85
-7.81
-9.92
-12.55
-15.95
-20.14
-24.88
-29.67
-33.88
-36.83
-37.93
-36.83
-33.53
-28.44
-22.27
-15.87
-9.97
-5.03
-1.17
1.74
3.87
5.40
6.44
7.10
7.54
8.02
8.79
10.04
11.78
13.85
16.06
18.22
20.28
22.23
24.11
25.80
27.13
27.91
28.05
27.59
26.72
25.62
24.42
23.17
21.83
20.39
18.84
17.27
15.75
14.34
13.02
11.70
10.35
8.90
7.37
5.76
4.04
2.12
-0.08
-2.63
-5.47
-8.48
-11.57
-14.72
-18.07
-21.79
-25.91
-30.16
-33.96
-36.56
-37.26
-35.71
-31.98
-26.54
-20.12
-13.56
-7.61
-2.81
0.57
2.59
3.60
4.08
4.50
5.11
6.01
7.16
8.52
10.13
12.04
14.29
16.76
19.22
21.42
23.19
24.50
25.47
26.21
26.82
27.32
27.66
27.76
27.52
26.85
25.74
24.26
22.54
20.80
19.18
17.78
16.57
15.47
14.37
13.21
11.92
10.40
8.49
6.05
3.04
-0.41
-4.00
-7.40
-10.39
-13.05
-15.72
-18.81
-22.58
-26.97
-31.51
-35.45
-38.04
-38.75
-37.35
-34.00
-29.08
-23.12
-16.72
-10.43
-4.77
-0.09
3.45
5.88
7.42
8.35
8.96
9.45
9.98
10.66
11.61
12.91
14.58
16.55
18.68
20.80
22.74
24.36
25.53
26.15
26.20
25.75
24.91
23.86
22.71
21.54
20.33
19.10
17.83
16.58
15.36
14.20
13.03
11.77
10.37
8.77
6.99
5.06
3.05
1.03
-0.98
-2.95
-4.97
-7.10
-9.44
-11.99
-14.73
-17.57
-20.42
-23.16
-25.55
-27.28
-27.89
-27.00
-24.41
-20.25
-15.05
-9.55
-4.54
-0.55
2.23
3.94
4.89
5.46
5.94
6.52
7.33
8.51
10.22
12.59
15.69
19.39
23.44
27.55
31.48
35.11
38.48
41.67
44.70
47.53
50.05
52.14
53.77
54.97
55.88
56.75
57.81
59.30
61.26
63.51
65.61
67.01
67.12
65.57
62.25
57.29
51.02
43.71
35.64
26.92
17.63
7.78
-2.61
-13.54
-24.92
-36.51
-47.86
-58.31
-67.03
-73.19
-76.16
-75.70
-72.09
-66.07
-58.66
-50.90
-43.61
-37.29
-32.09
-27.94
-24.52
-21.47
-18.41
-14.95
-10.85
-5.94
-0.23
6.07
12.46
18.19
22.40
24.42
24.07
21.81
18.64
15.60
13.24
11.32
9.02
5.43
0.08
-6.72
-14.06
-20.89
-26.57
-31.06
-34.89
-38.79
-43.28
-48.43
-53.84
-58.84
-62.73
-65.11
-65.92
-65.49
-64.25
-62.54
-60.55
-58.28
-55.72
-52.93
-49.98
-46.88
-43.45
-39.41
-34.50
-28.69
-22.25
-15.69
-9.58
-4.34
-0.19
2.85
4.86
6.01
6.52
6.70
6.94
7.55
8.75
10.53
12.73
15.10
17.45
19.66
21.68
23.49
25.05
26.31
27.21
27.70
27.75
27.34
26.45
25.15
23.50
21.67
19.81
18.03
16.41
14.88
13.42
11.96
10.51
9.11
7.81
6.59
5.30
3.74
1.65
-1.17
-4.77
-8.96
-13.27
-17.07
-19.65
-20.50
-19.41
-16.56
-12.44
-7.68
-2.92
1.43
5.12
8.07
10.23
11.56
11.98
11.48
10.21
8.49
6.71
5.24
4.27
3.77
3.53
3.27
2.83
2.19
1.43
0.71
0.12
-0.38
-0.91
-1.63
-2.68
-4.19
-6.12
-8.38
-10.75
-12.97
-14.78
-15.97
-16.49
-16.41
-15.93
-15.31
-14.72
-14.17
-13.50
-12.37
-10.38
-7.27
-3.01
2.11
7.57
12.78
17.16
20.37
22.25
22.82
22.11
20.21
17.25
13.53
9.48
5.69
2.69
0.83
0.14
0.38
1.14
2.02
2.73
3.10
3.09
2.72
2.06
1.25
0.50
-0.04
-0.27
-0.27
-0.26
-0.50
-1.17
-2.31
-3.88
-5.75
-7.84
-10.05
-12.26
-14.26
-15.71
-16.32
-15.83
-14.21
-11.65
-8.49
-5.16
-2.04
0.56
2.45
3.51
3.72
3.13
1.87
0.15
-1.74
-3.51
-4.84
-5.47
-5.24
-4.15
-2.38
-0.25
1.80
3.39
4.25
4.37
4.00
3.47
3.10
2.98
2.97
2.83
2.40
1.70
0.99
0.60
0.78
1.61
3.05
5.01
7.41
10.11
12.82
15.09
16.40
16.40
15.06
12.71
9.86
6.99
4.40
2.13
0.06
-1.90
-3.80
-5.62
-7.33
-8.92
-10.38
-11.67
-12.72
-13.47
-13.92
-14.17
-14.43
-14.90
-15.76
-17.05
-18.75
-20.78
-23.11
-25.73
-28.62
-31.65
-34.50
-36.71
-37.76
-37.23
-34.96
-31.16
-26.32
-21.18
-16.37
-12.40
-9.45
-7.49
-6.37
-5.93
-6.11
-6.82
-7.94
-9.19
-10.22
-10.72
-10.53
-9.72
-8.54
-7.26
-6.12
-5.16
-4.41
-3.86
-3.54
-3.57
-4.05
-5.04
-6.50
-8.31
-10.27
-12.24
-14.21
-16.31
-18.81
-21.85
-25.41
-29.07
-32.16
-33.93
-33.83
-31.71
-27.87
-22.94
-17.67
-12.67
-8.32
-4.72
-1.78
0.65
2.68
4.27
5.34
5.85
5.90
5.79
5.89
6.53
7.79
9.49
11.30
12.88
14.05
14.81
15.29
15.56
15.58
15.22
14.36
12.96
11.12
9.03
6.85
4.66
2.42
0.04
-2.58
-5.50
-8.74
-12.26
-15.89
-19.27
-21.90
-23.25
-22.92
-20.85
-17.37
-13.06
-8.59
-4.46
-0.88
2.11
4.61
6.66
8.20
9.11
9.33
8.93
8.17
7.44
7.17
7.74
9.30
11.76
14.71
17.59
19.87
21.26
21.79
21.82
21.84
22.17
22.81
23.43
23.53
22.75
21.06
18.74
16.21
13.85
11.77
9.88
7.99
5.94
3.64
1.02
-1.97
-5.33
-8.88
-12.17
-14.58
-15.51
-14.60
-11.96
-8.07
-3.60
0.84
4.87
8.33
11.18
13.45
15.10
16.18
16.79
17.13
17.41
17.75
18.15
18.47
18.56
18.35
17.91
17.37
16.94
16.72
16.78
17.08
17.54
18.02
18.36
18.42
18.09
17.35
16.27
15.00
13.72
12.53
11.50
10.60
9.76
8.91
7.95
6.83
5.53
4.04
2.33
0.34
-2.02
-4.79
-7.90
-11.02
-13.66
-15.22
-15.26
-13.59
-10.38
-6.09
-1.33
3.29
7.32
10.49
12.76
14.22
15.07
15.49
15.61
15.54
15.34
15.08
14.86
14.80
14.97
15.41
16.06
16.80
17.51
18.10
18.55
18.87
19.05
19.06
18.84
18.35
17.63
16.74
15.78
14.78
13.71
12.50
11.13
9.68
8.34
7.34
6.84
6.82
7.15
7.54
7.73
7.50
6.72
5.36
3.50
1.28
-1.02
-3.08
-4.52
-4.99
-4.29
-2.41
0.44
3.86
7.40
10.68
13.48
15.70
17.34
18.42
18.92
18.93
18.60
18.28
18.35
19.12
20.67
22.78
25.04
27.05
28.62
29.87
31.14
32.85
35.23
38.22
41.42
44.18
45.75
45.40
42.61
37.32
30.02
21.72
13.76
7.29
2.96
0.67
-0.30
-0.90
-1.94
-3.79
-6.49
-9.88
-13.86
-18.43
-23.63
-29.34
-35.28
-40.97
-45.89
-49.62
-51.95
-52.83
-52.47
-51.19
-49.34
-47.23
-45.04
-42.79
-40.47
-38.10
-35.83
-33.86
-32.37
-31.36
-30.65
-29.87
-28.70
-26.91
-24.44
-21.33
-17.60
-13.30
-8.46
-3.29
1.85
6.42
9.91
11.96
12.48
11.73
10.12
8.10
6.05
4.25
2.87
2.02
1.80
2.10
2.63
2.92
2.49
1.06
-1.27
-4.15
-7.10
-9.76
-11.94
-13.61
-14.86
-15.72
-16.29
-16.57
-16.54
-16.09
-15.01
-13.10
-10.26
-6.67
-2.77
0.88
3.77
5.64
6.45
6.30
5.33
3.68
1.50
-0.98
-3.48
-5.72
-7.54
-8.89
-9.93
-10.87
-11.90
-13.10
-14.35
-15.44
-16.16
-16.50
-16.60
-16.73
-17.09
-17.67
-18.27
-18.60
-18.48
-17.88
-16.96
-15.86
-14.70
-13.47
-12.16
-10.84
-9.69
-8.97
-8.89
-9.56
-10.92
-12.84
-15.16
-17.69
-20.24
-22.52
-24.16
-24.76
-23.97
-21.66
-17.98
-13.38
-8.47
-3.90
-0.18
2.42
3.90
4.42
4.28
3.70
2.84
1.82
0.68
-0.44
-1.36
-1.88
-1.90
-1.39
-0.54
0.38
1.11
1.52
1.65
1.63
1.60
1.58
1.46
1.08
0.30
-0.84
-2.18
-3.47
-4.51
-5.22
-5.64
-5.88
-6.07
-6.26
-6.49
-6.79
-7.17
-7.73
-8.48
-9.39
-10.32
-11.01
-11.16
-10.47
-8.84
-6.33
-3.24
-0.03
2.78
4.82
5.93
6.11
5.56
4.47
3.04
1.41
-0.27
-1.86
-3.16
-4.00
-4.29
-4.08
-3.53
-2.89
-2.40
-2.20
-2.35
-2.81
-3.48
-4.23
-5.03
-5.84
-6.67
-7.51
-8.30
-8.92
-9.26
-9.31
-9.22
-9.27
-9.78
-11.00
-12.88
-15.08
-17.07
-18.30
-18.44
-17.48
-15.68
-13.41
-10.96
-8.54
-6.24
-4.10
-2.25
-0.78
0.16
0.57
0.51
0.10
-0.53
-1.29
-2.09
-2.90
-3.63
-4.19
-4.52
-4.56
-4.32
-3.86
-3.33
-2.92
-2.78
-3.00
-3.56
-4.34
-5.22
-6.09
-6.93
-7.76
-8.67
-9.79
-11.17
-12.85
-14.76
-16.80
-18.81
-20.57
-21.86
-22.44
-22.04
-20.44
-17.55
-13.49
-8.67
-3.73
0.68
4.04
6.17
7.20
7.40
7.09
6.43
5.54
4.48
3.45
2.70
2.51
3.03
4.22
5.84
7.54
8.92
9.75
9.93
9.58
8.91
8.19
7.54
6.96
6.31
5.42
4.16
2.51
0.45
-2.04
-5.04
-8.54
-12.40
-16.16
-19.20
-20.85
-20.72
-18.79
-15.42
-11.25
-6.91
-2.86
0.64
3.49
5.68
7.17
7.95
8.06
7.65
7.06
6.65
6.75
7.52
8.90
10.69
12.64
14.50
16.14
17.50
18.55
19.25
19.58
19.50
19.09
18.40
17.52
16.50
15.35
14.06
12.56
10.79
8.68
6.20
3.46
0.62
-2.01
-4.08
-5.18
-5.02
-3.44
-0.55
3.32
7.59
11.67
15.02
17.33
18.57
18.86
18.45
17.58
16.44
15.32
14.44
14.03
14.18
14.80
15.65
16.48
17.08
17.43
17.57
17.58
17.44
17.05
16.35
15.34
14.15
12.91
11.68
10.41
8.97
7.23
5.12
2.66
-0.13
-3.21
-6.51
-9.87
-12.97
-15.33
-16.45
-15.91
-13.61
-9.79
-4.98
0.19
5.12
9.39
12.77
15.15
16.49
16.80
16.16
14.74
12.88
10.97
9.41
8.51
8.38
8.94
9.98
11.13
12.05
12.48
12.32
11.67
10.73
9.70
8.67
7.58
6.29
4.67
2.71
0.52
-1.77
-4.07
-6.43
-8.88
-11.42
-13.84
-15.73
-16.56
-15.90
-13.52
-9.58
-4.57
0.83
5.89
10.07
13.07
14.81
15.42
15.05
13.93
12.29
10.48
8.88
7.86
7.71
8.49
9.98
11.81
13.51
14.75
15.35
15.33
14.77
13.80
12.52
11.01
9.34
7.63
5.95
4.33
2.70
0.90
-1.25
-3.89
-7.02
-10.45
-13.84
-16.68
-18.45
-18.69
-17.16
-13.90
-9.35
-4.16
0.93
5.36
8.81
11.36
13.22
14.62
15.64
16.22
16.29
15.98
15.64
15.70
16.49
17.99
19.86
21.58
22.70
23.07
22.79
22.14
21.36
20.52
19.52
18.19
16.41
14.19
11.69
9.18
6.88
4.92
3.26
1.66
-0.18
-2.55
-5.65
-9.40
-13.51
-17.46
-20.70
-22.67
-23.01
-21.60
-18.62
-14.52
-9.85
-5.20
-0.96
2.65
5.61
7.98
9.75
10.86
11.23
10.87
9.98
8.98
8.34
8.45
9.44
11.16
13.22
15.20
16.77
17.78
18.23
18.19
17.78
17.11
16.33
15.55
14.90
14.42
14.04
13.67
13.21
12.63
12.00
11.37
10.81
10.30
9.79
9.13
8.21
6.87
4.98
2.47
-0.55
-3.78
-6.71
-8.74
-9.41
-8.50
-6.15
-2.79
1.05
4.86
8.22
10.90
12.73
13.68
13.80
13.26
12.35
11.39
10.74
10.69
11.44
13.04
15.42
18.38
21.60
24.72
27.40
29.45
30.83
31.65
32.16
32.57
33.01
33.46
33.78
33.71
33.03
31.56
29.22
26.13
22.50
18.63
14.77
11.02
7.38
3.77
0.16
-3.39
-6.78
-9.92
-12.89
-15.83
-18.95
-22.31
-25.85
-29.37
-32.66
-35.59
-38.10
-40.06
-41.23
-41.27
-39.88
-36.98
-32.78
-27.80
-22.64
-17.82
-13.62
-10.09
-7.14
-4.60
-2.36
-0.31
1.62
3.54
5.63
8.08
11.03
14.47
18.22
21.95
25.28
27.99
30.05
31.65
33.11
34.65
36.38
38.22
39.95
41.36
42.19
42.25
41.30
39.26
36.14
32.23
27.89
23.48
19.17
14.88
10.40
5.53
0.27
-5.21
-10.59
-15.64
-20.25
-24.45
-28.39
-32.24
-36.16
-40.32
-44.84
-49.71
-54.64
-59.04
-62.10
-63.09
-61.55
-57.56
-51.64
-44.60
-37.23
-30.08
-23.39
-17.22
-11.61
-6.70
-2.77
-0.11
1.14
1.20
0.58
0.03
0.33
1.94
4.94
8.90
13.18
17.16
20.49
23.17
25.48
27.76
30.26
33.07
36.14
39.29
42.13
43.91
43.73
40.77
34.89
26.88
18.35
11.12
6.48
4.66
4.94
6.05
6.91
6.88
5.69
3.03
-1.61
-8.92
-19.24
-32.11
-46.17
-59.51
-70.35
-77.59
-81.13
-81.61
-80.06
-77.38
-74.00
-69.93
-64.93
-58.90
-52.08
-45.16
-39.00
-34.43
-31.87
-31.26
-32.16
-33.89
-35.84
-37.49
-38.49
-38.53
-37.38
-34.93
-31.30
-26.87
-22.18
-17.76
-13.98
-10.90
-8.41
-6.26
-4.24
-2.23
-0.30
1.42
2.70
3.37
3.34
2.69
1.61
0.37
-0.80
-1.77
-2.51
-3.07
-3.49
-3.94
-4.62
-5.81
-7.74
-10.46
-13.84
-17.53
-21.16
-24.50
-27.47
-30.07
-32.20
-33.59
-33.87
-32.76
-30.25
-26.64
-22.48
-18.25
-14.26
-10.59
-7.24
-4.20
-1.56
0.58
2.24
3.58
4.94
6.63
8.77
11.25
13.79
16.04
17.75
18.88
19.44
19.50
19.10
18.23
16.89
15.14
13.10
10.93
8.78
6.81
5.18
4.06
3.55
3.61
4.07
4.64
5.04
5.06
4.62
3.76
2.48
0.82
-1.15
-3.25
-5.15
-6.41
-6.59
-5.47
-3.05
0.42
4.52
8.81
12.86
16.31
18.90
20.46
20.96
20.50
19.36
17.90
16.49
15.43
14.86
14.81
15.20
15.89
16.71
17.49
18.12
18.54
18.78
18.89
18.90
18.71
18.14
16.91
14.88
12.02
8.59
4.99
1.59
-1.37
-3.91
-6.23
-8.60
-11.19
-14.02
-16.95
-19.68
-21.86
-23.14
-23.26
-22.05
-19.57
-16.06
-11.99
-7.86
-4.17
-1.22
0.93
2.35
3.28
3.94
4.50
5.09
5.78
6.58
7.55
8.69
10.03
11.58
13.32
15.24
17.31
19.34
21.00
21.90
21.64
20.02
17.09
13.16
8.67
4.07
-0.31
-4.29
-7.94
-11.48
-15.23
-19.47
-24.28
-29.43
-34.38
-38.41
-40.85
-41.30
-39.75
-36.56
-32.31
-27.65
-23.14
-19.18
-16.01
-13.66
-12.06
-11.07
-10.48
-10.11
-9.79
-9.35
-8.65
-7.65
-6.32
-4.71
-2.89
-0.99
0.86
2.52
3.86
4.76
5.17
5.12
4.70
4.03
3.19
2.20
1.06
-0.32
-2.03
-4.18
-6.84
-9.98
-13.41
-16.70
-19.27
-20.53
-20.09
-17.82
-13.98
-9.01
-3.45
2.19
7.53
12.26
16.13
18.97
20.73
21.49
21.47
20.94
20.19
19.42
18.78
18.39
18.35
18.65
19.20
19.74
20.03
19.85
19.11
17.84
16.12
14.04
11.64
8.94
6.04
3.07
0.17
-2.64
-5.49
-8.65
-12.36
-16.58
-21.00
-24.93
-27.61
-28.46
-27.24
-24.15
-19.70
-14.53
-9.15
-3.93
0.87
5.09
8.52
11.06
12.65
13.46
13.73
13.77
13.87
14.20
14.85
15.83
17.08
18.50
19.94
21.24
22.24
22.75
22.64
21.77
20.07
17.59
14.56
11.27
8.08
5.22
2.74
0.47
-1.90
-4.65
-8.00
-11.98
-16.44
-21.00
-25.15
-28.27
-29.72
-29.05
-26.12
-21.20
-14.94
-8.17
-1.66
4.06
8.81
12.65
15.68
17.88
19.07
19.11
18.03
16.25
14.49
13.49
13.76
15.28
17.55
19.85
21.57
22.40
22.39
21.79
20.80
19.48
17.70
15.31
12.32
8.87
5.27
1.80
-1.38
-4.32
-7.20
-10.28
-13.78
-17.83
-22.42
-27.41
-32.54
-37.41
-41.53
-44.30
-45.24
-43.95
-40.38
-34.77
-27.66
-19.75
-11.76
-4.31
2.18
7.48
11.51
14.32
16.06
16.93
17.22
17.23
17.26
17.57
18.26
19.32
20.61
21.91
23.06
23.93
24.49
24.66
24.36
23.46
21.84
19.49
16.56
13.29
10.00
6.93
4.19
1.71
-0.69
-3.27
-6.31
-10.06
-14.65
-19.99
-25.72
-31.13
-35.36
-37.61
-37.39
-34.70
-29.96
-23.87
-17.12
-10.31
-3.82
2.10
7.25
11.51
14.76
17.05
18.53
19.53
20.39
21.47
22.99
24.99
27.32
29.72
31.93
33.75
35.13
36.09
36.69
36.93
36.73
35.98
34.65
32.76
30.47
27.98
25.48
23.08
20.76
18.41
15.89
13.10
10.04
6.82
3.60
0.49
-2.51
-5.51
-8.72
-12.39
-16.71
-21.72
-27.27
-32.96
-38.17
-42.14
-44.20
-43.91
-41.23
-36.51
-30.40
-23.66
-16.98
-10.90
-5.65
-1.30
2.24
5.11
7.40
9.17
10.49
11.46
12.25
13.08
14.14
15.56
17.36
19.46
21.68
23.86
25.88
27.68
29.24
30.55
31.51
32.00
31.88
31.10
29.72
27.92
25.91
23.89
21.97
20.15
18.37
16.52
14.50
12.19
9.49
6.38
2.92
-0.73
-4.43
-7.98
-11.29
-14.35
-17.21
-20.02
-23.00
-26.43
-30.50
-35.23
-40.29
-45.07
-48.71
-50.38
-49.49
-45.90
-39.95
-32.36
-24.04
-15.83
-8.42
-2.19
2.70
6.24
8.54
9.78
10.21
10.16
10.08
10.44
11.55
13.52
16.17
19.14
22.01
24.51
26.55
28.22
29.62
30.82
31.75
32.28
32.31
31.84
30.93
29.72
28.31
26.81
25.27
23.72
22.17
20.64
19.08
17.41
15.48
13.15
10.30
6.93
3.14
-0.83
-4.73
-8.33
-11.46
-14.09
-16.28
-18.27
-20.35
-22.86
-26.13
-30.27
-35.02
-39.78
-43.65
-45.70
-45.27
-42.16
-36.74
-29.74
-22.15
-14.80
-8.33
-3.08
0.90
3.63
5.27
5.99
6.03
5.73
5.48
5.63
6.46
8.07
10.40
13.24
16.33
19.45
22.37
24.93
26.99
28.49
29.40
29.74
29.55
28.88
27.78
26.34
24.73
23.10
21.60
20.26
19.00
17.68
16.19
14.54
12.83
11.21
9.78
8.56
7.50
6.55
5.71
5.02
4.46
3.89
3.03
1.53
-0.90
-4.30
-8.40
-12.63
-16.26
-18.68
-19.49
-18.72
-16.78
-14.31
-11.98
-10.32
-9.57
-9.80
-10.93
-12.91
-15.74
-19.38
-23.65
-28.20
-32.51
-35.99
-38.14
-38.59
-37.10
-33.56
-27.99
-20.65
-12.19
-3.59
4.00
9.58
12.79
13.99
14.08
14.11
14.80
16.32
18.32
20.25
21.63
22.25
22.12
21.33
19.88
17.78
15.01
11.73
8.28
5.05
2.36
0.32
-1.21
-2.52
-3.99
-5.89
-8.40
-11.48
-15.00
-18.68
-22.13
-24.92
-26.54
-26.62
-24.97
-21.71
-17.19
-11.93
-6.46
-1.24
3.40
7.21
9.96
11.50
11.81
11.08
9.69
8.20
7.09
6.67
7.06
8.15
9.74
11.58
13.41
14.98
16.10
16.69
16.79
16.54
16.09
15.49
14.66
13.44
11.74
9.58
7.22
4.96
3.09
1.68
0.61
-0.42
-1.69
-3.33
-5.26
-7.28
-9.14
-10.76
-12.23
-13.77
-15.64
-18.05
-21.08
-24.67
-28.65
-32.65
-36.13
-38.45
-38.94
-37.13
-32.95
-26.77
-19.35
-11.63
-4.46
1.53
6.03
9.01
10.59
10.92
10.16
8.56
6.44
4.31
2.69
1.96
2.25
3.34
4.79
6.11
6.99
7.35
7.26
6.85
6.19
5.28
4.10
2.66
1.01
-0.74
-2.49
-4.13
-5.60
-6.93
-8.16
-9.42
-10.85
-12.51
-14.34
-16.22
-18.00
-19.60
-21.15
-22.83
-24.73
-26.74
-28.40
-29.12
-28.33
-25.68
-21.31
-15.70
-9.57
-3.61
1.70
6.13
9.64
12.22
13.82
14.35
13.81
12.37
10.41
8.44
6.93
6.15
6.13
6.65
7.40
8.11
8.60
8.83
8.87
8.80
8.71
8.58
8.25
7.48
6.05
3.94
1.33
-1.40
-3.85
-5.82
-7.34
-8.68
-10.18
-12.13
-14.67
-17.76
-21.27
-24.95
-28.42
-31.22
-32.84
-32.88
-31.17
-27.80
-23.15
-17.72
-12.05
-6.61
-1.80
2.08
4.82
6.32
6.66
6.07
4.93
3.64
2.61
2.13
2.33
3.21
4.59
6.16
7.59
8.59
9.04
8.98
8.60
8.14
7.69
7.21
6.49
5.31
3.62
1.54
-0.61
-2.53
-4.10
-5.47
-6.95
-8.92
-11.59
-14.96
-18.71
-22.36
-25.32
-27.07
-27.23
-25.63
-22.39
-17.90
-12.71
-7.44
-2.60
1.47
4.62
6.85
8.25
8.88
8.83
8.25
7.36
6.47
5.93
5.99
6.75
8.09
9.70
11.22
12.36
13.00
13.12
12.88
12.44
11.89
11.24
10.42
9.32
7.90
6.15
4.21
2.22
0.27
-1.72
-3.97
-6.78
-10.34
-14.60
-19.17
-23.42
-26.64
-28.26
-28.00
-25.89
-22.19
-17.33
-11.79
-6.06
-0.62
4.11
7.80
10.29
11.60
11.94
11.60
10.95
10.34
10.03
10.25
11.11
12.63
14.68
17.00
19.24
21.08
22.32
22.96
23.17
23.13
22.99
22.75
22.32
21.63
20.62
19.33
17.80
15.95
13.63
10.67
6.96
2.58
-2.29
-7.40
-12.58
-17.73
-22.73
-27.37
-31.20
-33.66
-34.21
-32.54
-28.75
-23.38
-17.23
-11.18
-5.88
-1.71
1.26
3.13
4.08
4.26
3.84
3.05
2.21
1.69
1.80
2.66
4.13
5.84
7.37
8.38
8.81
8.81
8.64
8.50
8.46
8.38
8.06
7.34
6.19
4.73
3.17
1.70
0.44
-0.64
-1.63
-2.68
-3.97
-5.61
-7.72
-10.33
-13.39
-16.69
-19.87
-22.41
-23.74
-23.42
-21.29
-17.51
-12.63
-7.34
-2.35
1.83
4.98
7.08
8.22
8.54
8.15
7.22
6.00
4.91
4.35
4.65
5.92
7.93
10.26
12.44
14.07
14.98
15.18
14.83
14.09
13.08
11.88
10.54
9.12
7.70
6.33
5.07
3.89
2.75
1.57
0.25
-1.33
-3.29
-5.72
-8.74
-12.34
-16.39
-20.51
-24.14
-26.59
-27.27
-25.90
-22.59
-17.88
-12.51
-7.19
-2.48
1.36
4.30
6.42
7.85
8.75
9.26
9.54
9.78
10.16
10.84
11.90
13.35
15.07
16.87
18.49
19.73
20.49
20.78
20.72
20.38
19.77
18.82
17.45
15.67
13.61
11.48
9.49
7.69
6.00
4.25
2.27
-0.01
-2.54
-5.22
-8.01
-11.00
-14.34
-18.21
-22.58
-27.12
-31.24
-34.16
-35.19
-33.93
-30.47
-25.28
-19.13
-12.82
-6.96
-1.85
2.44
6.03
9.00
11.33
12.97
13.88
14.17
14.13
14.19
14.74
15.99
17.88
20.11
22.22
23.85
24.80
25.11
24.96
24.54
23.92
23.09
21.92
20.37
18.49
16.46
14.47
12.65
11.05
9.58
8.16
6.73
5.25
3.73
2.14
0.45
-1.35
-3.22
-5.13
-7.01
-8.89
-10.88
-13.14
-15.82
-19.02
-22.70
-26.64
-30.47
-33.67
-35.68
-36.02
-34.42
-30.98
-26.08
-20.41
-14.65
-9.37
-4.87
-1.21
1.78
4.24
6.22
7.74
8.77
9.43
9.95
10.67
11.86
13.58
15.65
17.76
19.61
21.07
22.18
23.06
23.78
24.31
24.50
24.26
23.56
22.53
21.35
20.17
19.05
17.97
16.84
15.58
14.14
12.57
10.91
9.28
7.72
6.24
4.75
3.14
1.31
-0.77
-3.05
-5.41
-7.71
-9.85
-11.83
-13.77
-15.89
-18.46
-21.71
-25.68
-30.10
-34.36
-37.69
-39.33
-38.76
-35.92
-31.16
-25.15
-18.69
-12.46
-6.96
-2.46
1.00
3.51
5.24
6.38
7.11
7.64
8.17
8.90
9.96
11.40
13.15
15.02
16.78
18.25
19.30
19.99
20.43
20.75
21.00
21.12
20.93
20.27
19.10
17.52
15.81
14.21
12.81
11.48
9.95
8.05
5.87
3.75
2.20
1.66
2.35
4.25
7.19
10.88
14.90
18.71
21.60
22.78
21.64
18.02
12.29
5.36
-1.70
-7.81
-12.22
-14.54
-14.69
-12.93
-9.73
-5.73
-1.63
1.94
4.52
5.93
6.21
5.54
4.17
2.30
0.14
-2.13
-4.24
-5.93
-7.02
-7.45
-7.31
-6.79
-6.09
-5.31
-4.40
-3.26
-1.85
-0.22
1.40
2.77
3.71
4.18
4.27
4.14
3.93
3.69
3.44
3.22
3.02
2.86
2.71
2.46
2.03
1.30
0.25
-1.14
-2.85
-4.82
-6.98
-9.22
-11.38
-13.36
-15.14
-16.84
-18.71
-20.97
-23.76
-26.96
-30.16
-32.80
-34.20
-33.85
-31.53
-27.38
-21.88
-15.71
-9.58
-4.05
0.50
3.90
6.11
7.22
7.35
6.75
5.68
4.48
3.44
2.78
2.60
2.88
3.48
4.22
4.93
5.47
5.84
6.02
6.02
5.81
5.26
4.24
2.73
0.78
-1.41
-3.61
-5.62
-7.29
-8.60
-9.59
-10.30
-10.82
-11.25
-11.71
-12.33
-13.17
-14.22
-15.41
-16.69
-18.09
-19.75
-21.84
-24.45
-27.46
-30.54
-33.16
-34.78
-34.90
-33.25
-29.80
-24.78
-18.66
-12.11
-5.86
-0.52
3.52
6.21
7.74
8.43
8.56
8.29
7.71
6.96
6.28
5.99
6.41
7.64
9.51
11.59
13.34
14.34
14.38
13.53
12.09
10.44
8.90
7.56
6.37
5.13
3.65
1.90
-0.06
-2.08
-4.06
-5.98
-7.96
-10.13
-12.57
-15.29
-18.21
-21.23
-24.23
-27.09
-29.65
-31.65
-32.75
-32.60
-30.95
-27.78
-23.33
-18.10
-12.68
-7.64
-3.32
0.17
2.93
5.10
6.72
7.76
8.16
7.98
7.41
6.81
6.51
6.76
7.63
8.94
10.44
11.82
12.87
13.48
13.64
13.42
12.86
12.00
10.84
9.39
7.67
5.76
3.77
1.78
-0.17
-2.07
-3.95
-5.86
-7.84
-9.97
-12.40
-15.28
-18.75
-22.80
-27.17
-31.35
-34.66
-36.38
-35.99
-33.33
-28.63
-22.49
-15.70
-9.08
-3.27
1.32
4.57
6.58
7.63
8.06
8.19
8.30
8.58
9.15
10.08
11.38
12.96
14.66
16.24
17.50
18.31
18.72
18.86
18.84
18.68
18.26
17.40
15.99
14.02
11.63
8.99
6.29
3.64
1.20
-0.96
-2.82
-4.46
-6.15
-8.25
-11.08
-14.81
-19.31
-24.20
-28.86
-32.63
-34.86
-35.15
-33.30
-29.46
-24.06
-17.73
-11.19
-5.06
0.21
4.41
7.52
9.67
11.04
11.81
12.13
12.22
12.30
12.64
13.47
14.87
16.72
18.72
20.54
21.86
22.53
22.50
21.87
20.79
19.39
17.85
16.35
15.00
13.85
12.84
11.85
10.74
9.48
8.13
6.79
5.44
3.95
2.10
-0.33
-3.42
-7.13
-11.23
-15.44
-19.42
-22.80
-25.16
-26.03
-25.05
-22.11
-17.47
-11.76
-5.79
-0.30
4.23
7.58
9.82
11.04
11.35
10.89
9.86
8.63
7.69
7.53
8.42
10.33
12.93
15.72
18.23
20.12
21.29
21.79
21.77
21.37
20.69
19.74
18.51
16.93
15.01
12.79
10.42
8.11
6.04
4.28
2.72
1.09
-0.88
-3.43
-6.59
-10.24
-14.10
-17.89
-21.30
-24.02
-25.71
-26.04
-24.74
-21.73
-17.24
-11.72
-5.87
-0.37
4.23
7.66
9.90
11.10
11.50
11.33
10.82
10.22
9.83
9.91
10.70
12.27
14.48
17.02
19.48
21.47
22.68
23.00
22.48
21.36
19.94
18.53
17.32
16.36
15.55
14.70
13.64
12.27
10.63
8.78
6.77
4.60
2.29
-0.14
-2.63
-5.14
-7.71
-10.49
-13.67
-17.42
-21.60
-25.80
-29.34
-31.48
-31.61
-29.57
-25.56
-20.18
-14.18
-8.24
-2.81
1.89
5.80
8.88
11.08
12.36
12.79
12.65
12.34
12.30
12.82
13.95
15.49
17.15
18.67
19.95
21.02
21.94
22.73
23.31
23.51
23.20
22.31
20.91
19.17
17.34
15.62
14.10
12.77
11.52
10.19
8.63
6.71
4.41
1.79
-0.98
-3.66
-6.07
-8.15
-10.00
-11.89
-14.13
-16.94
-20.38
-24.24
-28.03
-31.13
-32.90
-32.82
-30.66
-26.54
-20.93
-14.58
-8.26
-2.66
1.81
5.03
7.09
8.28
8.86
9.10
9.15
9.16
9.26
9.57
10.24
11.32
12.72
14.25
15.63
16.66
17.22
17.38
17.24
16.95
16.51
15.84
14.87
13.55
11.99
10.45
9.14
8.19
7.52
6.88
5.98
4.59
2.70
0.46
-1.86
-4.02
-5.92
-7.55
-9.05
-10.61
-12.41
-14.63
-17.42
-20.79
-24.57
-28.36
-31.49
-33.21
-32.90
-30.34
-25.76
-19.82
-13.37
-7.21
-1.84
2.52
5.83
8.14
9.50
10.00
9.83
9.35
9.01
9.23
10.23
12.01
14.31
16.75
18.98
20.80
22.19
23.27
24.20
25.08
25.85
26.39
26.49
26.06
25.15
23.99
22.92
22.20
21.95
22.04
22.20
22.11
21.56
20.50
19.13
17.74
16.60
15.86
15.47
15.22
14.83
13.96
12.24
9.36
5.13
-0.43
-6.93
-13.69
-19.85
-24.60
-27.42
-28.24
-27.36
-25.40
-23.01
-20.77
-19.06
-18.05
-17.80
-18.23
-19.19
-20.43
-21.66
-22.60
-23.13
-23.35
-23.54
-24.05
-25.06
-26.36
-27.35
-27.20
-25.25
-21.28
-15.70
-9.38
-3.29
1.84
5.71
8.38
10.05
10.89
11.02
10.58
9.81
9.10
8.73
8.76
8.94
8.86
8.13
6.60
4.40
1.77
-1.05
-4.00
-7.20
-10.80
-14.88
-19.28
-23.65
-27.51
-30.38
-31.83
-31.64
-29.74
-26.30
-21.73
-16.63
-11.64
-7.38
-4.29
-2.55
-2.14
-2.83
-4.34
-6.39
-8.70
-10.97
-12.83
-13.89
-13.87
-12.69
-10.50
-7.69
-4.67
-1.80
0.78
3.08
5.22
7.23
9.07
10.57
11.62
12.13
12.15
11.83
11.35
10.82
10.32
9.84
9.29
8.53
7.39
5.82
3.87
1.76
-0.21
-1.78
-2.89
-3.67
-4.42
-5.51
-7.18
-9.55
-12.59
-16.14
-19.92
-23.45
-26.14
-27.29
-26.44
-23.48
-18.77
-13.03
-7.14
-1.82
2.43
5.50
7.44
8.43
8.68
8.41
7.85
7.21
6.69
6.43
6.47
6.80
7.40
8.25
9.30
10.50
11.73
12.85
13.70
14.16
14.18
13.73
12.89
11.79
10.56
9.38
8.39
7.63
7.02
6.35
5.37
3.83
1.65
-1.09
-4.13
-7.13
-9.81
-11.97
-13.55
-14.61
-15.33
-15.95
-16.79
-18.12
-20.11
-22.69
-25.45
-27.75
-28.79
-27.94
-24.92
-19.90
-13.44
-6.36
0.52
6.61
11.60
15.44
18.21
20.04
20.94
20.90
19.95
18.24
16.10
13.98
12.25
11.14
10.61
10.43
10.31
10.06
9.61
9.05
8.51
8.03
7.59
7.10
6.45
5.65
4.73
3.80
2.95
2.23
1.63
1.10
0.54
-0.13
-0.95
-1.88
-2.88
-3.95
-5.14
-6.62
-8.59
-11.24
-14.61
-18.56
-22.77
-26.82
-30.21
-32.48
-33.24
-32.29
-29.62
-25.51
-20.47
-15.16
-10.22
-6.14
-3.23
-1.54
-0.98
-1.34
-2.35
-3.69
-5.00
-5.91
-6.11
-5.40
-3.78
-1.50
1.06
3.43
5.28
6.50
7.29
7.97
8.82
9.89
10.92
11.51
11.31
10.26
8.61
6.77
5.15
3.83
2.59
1.01
-1.32
-4.59
-8.63
-13.10
-17.52
-21.40
-24.33
-25.96
-26.03
-24.43
-21.22
-16.73
-11.49
-6.07
-1.06
3.16
6.36
8.50
9.64
9.96
9.70
9.20
8.83
8.94
9.79
11.51
13.94
16.77
19.50
21.68
22.97
23.29
22.80
21.73
20.33
18.67
16.72
14.34
11.49
8.28
4.91
1.65
-1.27
-3.79
-5.96
-7.98
-10.10
-12.60
-15.73
-19.67
-24.39
-29.64
-34.90
-39.41
-42.41
-43.36
-42.06
-38.73
-33.93
-28.34
-22.59
-17.16
-12.34
-8.30
-5.10
-2.79
-1.38
-0.75
-0.66
-0.79
-0.70
-0.03
1.42
3.65
6.45
9.44
12.24
14.55
16.25
17.36
18.06
18.49
18.76
18.85
18.61
17.92
16.66
14.84
12.57
10.04
7.46
5.01
2.80
0.83
-1.02
-2.98
-5.32
-8.29
-11.95
-16.16
-20.45
-24.19
-26.65
-27.23
-25.61
-21.90
-16.59
-10.42
-4.19
1.45
6.09
9.58
11.93
13.31
13.90
13.98
13.86
13.83
14.17
15.00
16.34
18.08
20.04
22.09
24.08
25.91
27.47
28.67
29.41
29.65
29.36
28.59
27.40
25.90
24.18
22.35
20.42
18.39
16.21
13.87
11.39
8.83
6.32
3.91
1.60
-0.78
-3.51
-6.90
-11.16
-16.23
-21.67
-26.66
-30.18
-31.36
-29.73
-25.45
-19.24
-12.10
-5.02
1.36
6.77
11.20
14.71
17.29
18.88
19.50
19.34
18.83
18.44
18.57
19.39
20.83
22.65
24.59
26.43
28.03
29.29
30.17
30.67
30.79
30.52
29.82
28.66
27.00
24.89
22.51
20.07
17.81
15.86
14.20
12.64
10.96
9.02
6.76
4.32
1.86
-0.45
-2.58
-4.58
-6.67
-9.09
-12.05
-15.64
-19.72
-23.90
-27.51
-29.85
-30.30
-28.56
-24.76
-19.41
-13.28
-7.15
-1.67
2.82
6.18
8.52
10.01
10.84
11.17
11.17
11.02
11.00
11.44
12.57
14.46
16.92
19.52
21.85
23.56
24.59
25.07
25.21
25.16
24.90
24.35
23.40
22.07
20.50
18.89
17.43
16.19
15.16
14.21
13.26
12.21
11.04
9.74
8.30
6.68
4.85
2.79
0.57
-1.70
-3.90
-5.97
-7.95
-9.98
-12.26
-14.92
-17.96
-21.12
-23.91
-25.69
-25.84
-23.97
-20.04
-14.48
-8.00
-1.41
4.59
9.57
13.37
15.99
17.43
17.71
16.84
15.01
12.57
10.09
8.10
7.00
6.88
7.54
8.61
9.76
10.74
11.55
12.26
12.92
13.47
13.76
13.63
12.98
11.87
10.46
8.92
7.39
5.95
4.61
3.41
2.36
1.43
0.54
-0.45
-1.64
-3.04
-4.59
-6.14
-7.59
-8.94
-10.29
-11.73
-13.34
-15.15
-17.26
-19.77
-22.78
-26.25
-29.87
-33.03
-35.00
-35.13
-33.14
-29.17
-23.83
-17.88
-12.12
-7.15
-3.31
-0.65
0.92
1.61
1.64
1.25
0.69
0.20
0.07
0.53
1.69
3.52
5.79
8.10
10.09
11.46
12.15
12.27
12.06
11.76
11.49
11.23
10.85
10.15
9.01
7.38
5.40
3.30
1.32
-0.39
-1.84
-3.17
-4.54
-6.06
-7.71
-9.37
-10.85
-12.05
-12.98
-13.80
-14.70
-15.92
-17.65
-19.97
-22.85
-26.07
-29.21
-31.74
-33.10
-32.85
-30.84
-27.27
-22.64
-17.62
-12.82
-8.70
-5.42
-2.93
-1.12
0.09
0.74
0.82
0.40
-0.31
-0.99
-1.23
-0.77
0.44
2.23
4.23
6.07
7.44
8.25
8.54
8.49
8.31
8.11
7.91
7.64
7.19
6.50
5.57
4.50
3.45
2.53
1.76
1.06
0.27
-0.78
-2.13
-3.76
-5.48
-7.13
-8.60
-9.91
-11.14
-12.40
-13.79
-15.43
-17.43
-19.87
-22.74
-25.78
-28.41
-29.94
-29.73
-27.53
-23.54
-18.45
-13.12
-8.32
-4.48
-1.72
0.09
1.10
1.41
1.10
0.24
-0.96
-2.25
-3.31
-3.85
-3.76
-3.12
-2.13
-1.04
-0.01
0.95
1.92
2.89
3.69
4.00
3.42
1.81
-0.66
-3.44
-5.80
-7.13
-7.18
-6.01
-3.97
-1.47
1.10
3.46
5.41
6.78
7.47
7.33
6.31
4.43
1.83
-1.25
-4.54
-7.84
-11.05
-14.18
-17.15
-19.75
-21.60
-22.19
-21.10
-18.22
-13.88
-8.78
-3.74
0.54
3.67
5.63
6.65
7.05
7.07
6.78
6.23
5.49
4.72
4.25
4.37
5.21
6.62
8.26
9.71
10.67
11.09
11.07
10.80
10.40
9.87
9.05
7.76
5.87
3.50
0.89
-1.60
-3.62
-4.99
-5.69
-5.87
-5.72
-5.41
-5.03
-4.59
-4.09
-3.56
-3.10
-2.90
-3.14
-3.99
-5.58
-7.90
-10.78
-13.84
-16.52
-18.24
-18.49
-17.03
-14.04
-10.04
-5.82
-2.15
0.38
1.48
1.12
-0.55
-3.37
-7.11
-11.54
-16.28
-20.84
-24.66
-27.24
-28.25
-27.53
-25.12
-21.19
-16.01
-10.03
-3.81
2.01
6.91
10.55
12.84
13.98
14.25
13.96
13.29
12.38
11.35
10.29
9.31
8.49
7.85
7.34
6.82
6.16
5.20
3.81
1.85
-0.79
-4.10
-7.88
-11.77
-15.21
-17.67
-18.77
-18.46
-16.97
-14.75
-12.25
-9.91
-8.04
-6.85
-6.50
-6.93
-7.96
-9.18
-10.15
-10.51
-10.14
-9.22
-8.04
-6.82
-5.63
-4.33
-2.78
-0.97
0.86
2.35
3.19
3.29
2.84
2.17
1.63
1.32
1.18
1.04
0.73
0.28
-0.20
-0.53
-0.66
-0.66
-0.74
-1.06
-1.76
-2.83
-4.24
-6.00
-8.16
-10.79
-13.82
-16.98
-19.74
-21.48
-21.70
-20.14
-16.93
-12.51
-7.52
-2.56
1.85
5.40
7.96
9.53
10.16
10.03
9.37
8.53
7.85
7.67
8.20
9.44
11.25
13.33
15.38
17.20
18.68
19.81
20.58
20.98
21.00
20.62
19.88
18.82
17.49
15.92
14.15
12.21
10.17
8.13
6.17
4.33
2.62
0.98
-0.68
-2.46
-4.49
-6.89
-9.74
-12.97
-16.32
-19.37
-21.55
-22.30
-21.27
-18.44
-14.17
-9.04
-3.75
1.15
5.34
8.71
11.25
12.94
13.73
13.60
12.71
11.35
9.99
9.07
8.96
9.72
11.21
13.10
15.00
16.62
17.77
18.44
18.66
18.54
18.08
17.25
15.99
14.27
12.13
9.73
7.28
4.97
2.89
1.00
-0.88
-2.99
-5.60
-8.82
-12.56
-16.46
-19.99
-22.57
-23.76
-23.32
-21.34
-18.13
-14.11
-9.76
-5.49
-1.63
1.54
3.86
5.24
5.72
5.47
4.77
3.96
3.39
3.34
3.97
5.27
7.17
9.48
11.96
14.33
16.29
17.59
17.99
17.43
15.90
13.54
10.56
7.22
3.80
0.50
-2.56
-5.36
-8.04
-10.78
-13.76
-17.05
-20.52
-23.86
-26.63
-28.31
-28.48
-26.94
-23.74
-19.23
-13.94
-8.49
-3.45
0.81
4.10
6.41
7.81
8.44
8.49
8.16
7.75
7.58
7.94
8.97
10.65
12.74
14.94
16.97
18.64
19.94
20.94
21.69
22.18
22.28
21.84
20.77
19.15
17.19
15.23
13.58
12.37
11.55
10.80
9.78
8.14
5.77
2.85
-0.18
-2.71
-4.15
-4.06
-2.36
0.71
4.63
8.72
12.37
15.18
17.01
17.94
18.13
17.71
16.65
14.91
12.47
9.55
6.55
3.98
2.24
1.50
1.63
2.36
3.38
4.47
5.55
6.54
7.36
7.83
7.77
7.05
5.70
3.86
1.76
-0.36
-2.31
-3.97
-5.32
-6.45
-7.51
-8.73
-10.37
-12.62
-15.60
-19.28
-23.46
-27.76
-31.63
-34.45
-35.62
-34.74
-31.70
-26.76
-20.50
-13.63
-6.87
-0.80
4.24
8.15
11.04
13.13
14.78
16.28
17.84
19.57
21.47
23.53
25.71
28.03
30.46
32.87
35.10
36.94
38.23
38.89
38.95
38.47
37.52
36.15
34.35
32.15
29.62
26.86
23.98
21.11
18.30
15.64
13.18
10.96
8.97
7.10
5.17
2.94
0.14
-3.40
-7.77
-12.88
-18.51
-24.14
-29.09
-32.50
-33.64
-32.07
-27.82
-21.47
-13.96
-6.28
0.78
6.75
11.57
15.38
18.37
20.71
22.53
23.88
24.83
25.45
25.87
26.24
26.67
27.24
27.92
28.56
28.97
28.98
28.49
27.50
26.11
24.39
22.36
19.98
17.20
14.03
10.64
7.30
4.29
1.72
-0.46
-2.47
-4.56
-6.80
-9.08
-11.13
-12.66
-13.54
-13.87
-13.93
-14.02
-14.45
-15.42
-17.11
-19.60
-22.81
-26.34
-29.48
-31.36
-31.25
-28.83
-24.29
-18.28
-11.68
-5.29
0.24
4.50
7.29
8.59
8.60
7.70
6.38
5.18
4.52
4.71
5.88
8.03
11.00
14.46
17.96
20.98
23.14
24.24
24.40
23.89
23.07
22.14
21.11
19.77
17.84
15.17
11.75
7.77
3.51
-0.83
-5.15
-9.43
-13.64
-17.63
-21.14
-23.87
-25.68
-26.63
-27.03
-27.29
-27.73
-28.51
-29.62
-30.95
-32.46
-34.09
-35.76
-37.20
-37.93
-37.36
-35.03
-30.78
-24.94
-18.15
-11.22
-4.87
0.43
4.46
7.21
8.76
9.25
8.90
8.04
7.12
6.63
6.96
8.25
10.27
12.50
14.25
14.99
14.48
12.80
10.25
7.18
3.86
0.44
-3.01
-6.38
-9.48
-12.15
-14.24
-15.80
-17.00
-18.17
-19.64
-21.61
-24.04
-26.56
-28.54
-29.26
-28.22
-25.40
-21.33
-16.87
-12.97
-10.30
-9.14
-9.47
-11.02
-13.42
-16.19
-18.75
-20.44
-20.68
-19.18
-16.02
-11.63
-6.66
-1.69
2.86
6.78
10.00
12.40
13.88
14.38
14.01
13.10
12.14
11.62
11.83
12.76
14.13
15.54
16.68
17.43
17.84
18.07
18.12
17.88
17.09
15.61
13.46
10.93
8.44
6.38
4.96
4.07
3.45
2.76
1.82
0.69
-0.40
-1.19
-1.55
-1.55
-1.50
-1.72
-2.45
-3.77
-5.57
-7.63
-9.70
-11.45
-12.43
-12.19
-10.26
-6.49
-1.17
4.91
10.67
15.03
17.28
17.21
15.16
11.77
7.75
3.68
-0.03
-3.12
-5.33
-6.49
-6.51
-5.50
-3.88
-2.21
-1.10
-0.85
-1.44
-2.49
-3.42
-3.81
-3.52
-2.78
-2.01
-1.64
-1.81
-2.43
-3.18
-3.79
-4.15
-4.42
-4.91
-5.91
-7.50
-9.62
-12.03
-14.50
-16.92
-19.31
-21.74
-24.18
-26.38
-27.90
-28.26
-27.18
-24.75
-21.45
-17.99
-14.99
-12.83
-11.58
-11.11
-11.27
-12.00
-13.28
-15.03
-16.97
-18.66
-19.59
-19.45
-18.15
-15.86
-12.87
-9.54
-6.17
-3.05
-0.44
1.42
2.42
2.51
1.77
0.38
-1.49
-3.61
-5.75
-7.71
-9.33
-10.58
-11.63
-12.72
-14.13
-16.02
-18.24
-20.35
-21.76
-21.89
-20.43
-17.49
-13.46
-8.94
-4.47
-0.42
3.03
5.82
7.89
9.15
9.45
8.81
7.37
5.49
3.66
2.24
1.46
1.31
1.61
2.14
2.72
3.20
3.56
3.78
3.80
3.57
3.03
2.16
1.02
-0.27
-1.64
-3.05
-4.55
-6.25
-8.26
-10.64
-13.34
-16.23
-19.04
-21.37
-22.78
-22.84
-21.30
-18.16
-13.74
-8.61
-3.45
1.14
4.79
7.34
8.80
9.29
8.95
7.93
6.47
4.81
3.29
2.20
1.76
2.06
3.00
4.35
5.83
7.13
8.08
8.54
8.50
7.99
7.06
5.78
4.27
2.62
0.86
-1.03
-3.15
-5.58
-8.36
-11.41
-14.57
-17.62
-20.19
-21.93
-22.45
-21.44
-18.82
-14.77
-9.78
-4.52
0.32
4.26
7.05
8.72
9.41
9.31
8.58
7.40
5.97
4.57
3.53
3.10
3.44
4.52
6.15
8.00
9.75
11.15
12.07
12.48
12.43
11.94
11.02
9.66
7.90
5.89
3.79
1.72
-0.37
-2.66
-5.43
-8.82
-12.67
-16.50
-19.60
-21.28
-21.06
-18.81
-14.82
-9.69
-4.14
1.12
5.57
8.93
11.15
12.34
12.67
12.28
11.33
9.97
8.47
7.18
6.45
6.53
7.47
9.10
11.05
12.95
14.48
15.47
15.89
15.78
15.24
14.34
13.12
11.59
9.79
7.72
5.42
2.89
0.09
-3.07
-6.61
-10.44
-14.27
-17.55
-19.69
-20.12
-18.55
-15.06
-10.08
-4.27
1.68
7.18
11.86
15.50
17.99
19.29
19.43
18.56
17.02
15.31
13.94
13.34
13.70
14.95
16.77
18.78
20.67
22.20
23.25
23.72
23.51
22.59
20.94
18.65
15.94
13.08
10.31
7.83
5.67
3.68
1.64
-0.74
-3.66
-7.22
-11.35
-15.77
-20.03
-23.51
-25.56
-25.61
-23.42
-19.17
-13.43
-7.06
-0.95
4.27
8.25
11.00
12.71
13.59
13.89
13.78
13.42
13.01
12.77
12.94
13.67
15.00
16.84
18.92
20.92
22.52
23.47
23.66
23.16
22.19
20.96
19.66
18.34
16.96
15.43
13.70
11.82
9.91
8.09
6.37
4.69
2.92
0.95
-1.27
-3.75
-6.54
-9.70
-13.24
-17.05
-20.74
-23.68
-25.16
-24.61
-21.81
-17.03
-10.94
-4.45
1.62
6.67
10.48
13.12
14.79
15.73
16.08
15.97
15.58
15.16
15.01
15.37
16.29
17.65
19.24
20.79
22.14
23.20
23.94
24.31
24.23
23.68
22.63
21.18
19.51
17.83
16.32
15.07
14.09
13.24
12.35
11.22
9.74
7.90
5.83
3.72
1.76
0.07
-1.41
-2.85
-4.51
-6.66
-9.47
-12.97
-16.99
-21.17
-24.98
-27.77
-28.92
-28.08
-25.24
-20.80
-15.46
-9.98
-4.96
-0.70
2.71
5.32
7.19
8.32
8.80
8.85
8.77
8.89
9.46
10.49
11.88
13.46
15.07
16.63
18.03
19.20
19.99
20.32
20.16
19.57
18.67
17.50
16.13
14.58
12.95
11.40
10.07
9.03
8.20
7.41
6.39
4.97
3.05
0.71
-1.88
-4.47
-6.83
-8.86
-10.64
-12.42
-14.51
-17.20
-20.54
-24.34
-28.17
-31.45
-33.58
-34.10
-32.74
-29.55
-24.84
-19.21
-13.33
-7.85
-3.25
0.27
2.74
4.30
5.15
5.49
5.51
5.48
5.64
6.23
7.32
8.85
10.62
12.37
13.90
15.09
15.90
16.34
16.38
16.02
15.21
13.99
12.48
10.87
9.39
8.20
7.40
6.95
6.69
6.37
5.73
4.57
2.87
0.76
-1.50
-3.66
-5.52
-7.11
-8.60
-10.21
-12.17
-14.52
-17.24
-20.13
-22.95
-25.31
-26.76
-26.79
-25.07
-21.56
-16.62
-10.98
-5.42
-0.57
3.27
6.11
8.14
9.51
10.25
10.45
10.19
9.74
9.45
9.67
10.55
12.06
14.02
16.11
18.04
19.54
20.45
20.76
20.58
20.11
19.55
19.00
18.44
17.81
17.05
16.16
15.15
13.94
12.32
10.09
7.19
3.75
0.16
-3.13
-5.76
-7.65
-8.95
-9.98
-11.06
-12.46
-14.34
-16.82
-19.96
-23.66
-27.59
-31.20
-33.81
-34.75
-33.69
-30.67
-26.18
-20.97
-15.80
-11.21
-7.46
-4.56
-2.35
-0.77
0.24
0.63
0.44
-0.17
-0.93
-1.47
-1.45
-0.69
0.79
2.80
5.02
7.11
8.87
10.18
11.02
11.46
11.50
11.15
10.37
9.13
7.50
5.64
3.75
2.10
0.85
0.03
-0.50
-0.98
-1.67
-2.70
-4.06
-5.61
-7.14
-8.55
-9.85
-11.22
-12.87
-14.99
-17.66
-20.78
-24.22
-27.74
-31.03
-33.69
-35.26
-35.27
-33.47
-29.97
-25.24
-19.96
-14.83
-10.33
-6.66
-3.83
-1.76
-0.43
0.18
0.14
-0.30
-0.79
-0.97
-0.59
0.32
1.59
2.99
4.34
5.56
6.65
7.60
8.33
8.75
8.76
8.33
7.48
6.26
4.76
3.07
1.30
-0.38
-1.82
-2.91
-3.66
-4.20
-4.74
-5.46
-6.37
-7.36
-8.31
-9.20
-10.16
-11.45
-13.33
-15.84
-18.82
-21.90
-24.63
-26.62
-27.53
-27.10
-25.16
-21.68
-16.89
-11.32
-5.71
-0.80
2.86
5.08
5.94
5.71
4.70
3.24
1.69
0.51
0.13
0.91
2.92
5.88
9.25
12.38
14.76
16.15
16.58
16.28
15.51
14.46
13.22
11.79
10.14
8.28
6.28
4.24
2.24
0.32
-1.54
-3.36
-5.13
-6.84
-8.52
-10.26
-12.25
-14.72
-17.71
-21.04
-24.22
-26.57
-27.44
-26.49
-23.78
-19.72
-14.91
-9.90
-5.14
-0.87
2.74
5.59
7.56
8.59
8.73
8.15
7.18
6.15
5.39
5.17
5.67
6.97
8.99
11.46
13.98
16.07
17.38
17.75
17.28
16.17
14.69
12.93
10.92
8.63
6.10
3.45
0.85
-1.55
-3.73
-5.77
-7.81
-9.98
-12.37
-15.05
-18.11
-21.66
-25.72
-30.14
-34.51
-38.18
-40.47
-40.81
-39.00
-35.22
-30.02
-24.10
-18.16
-12.72
-8.11
-4.45
-1.79
-0.06
0.86
1.17
1.17
1.15
1.40
2.13
3.40
5.15
7.21
9.29
11.16
12.61
13.57
14.07
14.19
14.00
13.52
12.73
11.59
10.15
8.45
6.60
4.69
2.75
0.77
-1.25
-3.29
-5.37
-7.55
-9.98
-12.86
-16.37
-20.58
-25.32
-30.18
-34.57
-37.76
-39.11
-38.20
-34.97
-29.74
-23.20
-16.20
-9.53
-3.71
1.00
4.65
7.37
9.35
10.76
11.74
12.49
13.20
14.06
15.22
16.69
18.39
20.14
21.77
23.11
24.10
24.66
24.80
24.53
23.90
23.02
21.97
20.81
19.51
18.00
16.13
13.79
10.94
7.64
4.10
0.54
-2.88
-6.11
-9.31
-12.68
-16.43
-20.67
-25.33
-30.16
-34.71
-38.39
-40.58
-40.73
-38.51
-33.97
-27.58
-20.18
-12.70
-5.91
-0.22
4.25
7.65
10.09
11.65
12.32
12.22
11.67
11.13
11.11
11.95
13.69
16.08
18.70
21.11
22.95
24.07
24.41
24.05
23.13
21.79
20.18
18.40
16.51
14.56
12.55
10.50
8.42
6.33
4.22
2.04
-0.26
-2.79
-5.63
-8.84
-12.42
-16.32
-20.37
-24.20
-27.28
-28.95
-28.64
-26.03
-21.23
-14.80
-7.58
-0.49
5.74
10.69
14.22
16.45
17.53
17.69
17.22
16.46
15.79
15.58
16.08
17.36
19.27
21.50
23.66
25.42
26.59
27.17
27.27
27.00
26.39
25.31
23.60
21.16
18.10
14.74
11.45
8.52
5.95
3.55
1.00
-1.97
-5.51
-9.61
-14.11
-18.71
-22.94
-26.22
-28.04
-28.05
-26.19
-22.67
-17.93
-12.41
-6.52
-0.68
4.70
9.25
12.67
14.83
15.81
15.93
15.58
15.12
14.87
15.04
15.77
17.07
18.82
20.83
22.84
24.58
25.83
26.45
26.36
25.64
24.43
22.90
21.18
19.24
16.98
14.26
11.07
7.55
4.00
0.67
-2.40
-5.36
-8.51
-12.11
-16.29
-20.97
-25.96
-30.93
-35.47
-39.02
-40.93
-40.61
-37.71
-32.37
-25.22
-17.26
-9.47
-2.63
2.97
7.34
10.71
13.26
15.08
16.21
16.79
17.10
17.52
18.40
19.93
22.01
24.38
26.62
28.39
29.45
29.73
29.31
28.31
26.92
25.27
23.44
21.51
19.51
17.47
15.38
13.23
10.97
8.60
6.12
3.56
0.95
-1.75
-4.65
-7.91
-11.69
-16.09
-20.97
-25.99
-30.55
-33.90
-35.33
-34.32
-30.75
-24.98
-17.78
-10.12
-2.88
3.28
8.05
11.39
13.44
14.37
14.44
13.96
13.31
12.85
12.94
13.73
15.29
17.49
20.13
22.88
25.38
27.25
28.22
28.19
27.33
25.92
24.24
22.47
20.64
18.71
16.62
14.40
12.15
9.98
7.88
5.81
3.63
1.24
-1.41
-4.32
-7.48
-10.96
-14.86
-19.22
-23.88
-28.38
-31.96
-33.76
-33.11
-29.80
-24.21
-17.15
-9.65
-2.59
3.43
8.18
11.59
13.69
14.57
14.38
13.41
12.13
11.12
10.83
11.48
13.01
15.05
17.16
18.91
20.09
20.65
20.71
20.39
19.76
18.81
17.53
15.89
13.91
11.65
9.19
6.66
4.24
2.08
0.27
-1.32
-2.94
-4.92
-7.56
-10.92
-14.81
-18.77
-22.21
-24.54
-25.30
-24.22
-21.34
-16.95
-11.56
-5.83
-0.37
4.34
8.06
10.70
12.36
13.10
13.01
12.23
11.02
9.74
8.87
8.80
9.68
11.37
13.41
15.27
16.53
17.00
16.80
16.16
15.30
14.31
13.15
11.71
9.96
7.89
5.60
3.18
0.71
-1.76
-4.24
-6.70
-9.20
-11.77
-14.52
-17.55
-20.95
-24.70
-28.63
-32.38
-35.42
-37.13
-36.98
-34.74
-30.54
-24.91
-18.59
-12.36
-6.81
-2.25
1.26
3.80
5.54
6.64
7.29
7.67
8.03
8.59
9.48
10.79
12.43
14.23
15.97
17.43
18.43
18.93
18.95
18.61
17.98
17.11
15.96
14.53
12.84
10.95
8.95
6.91
4.82
2.64
0.32
-2.20
-4.91
-7.80
-10.88
-14.19
-17.78
-21.63
-25.60
-29.33
-32.34
-34.13
-34.25
-32.53
-29.08
-24.27
-18.67
-12.85
-7.32
-2.43
1.55
4.53
6.45
7.37
7.46
6.99
6.32
5.77
5.63
6.02
6.97
8.34
9.96
11.57
12.93
13.88
14.33
14.29
13.86
13.17
12.35
11.47
10.54
9.50
8.22
6.60
4.60
2.29
-0.18
-2.59
-4.78
-6.70
-8.42
-10.14
-12.12
-14.62
-17.80
-21.60
-25.73
-29.57
-32.35
-33.31
-32.03
-28.56
-23.48
-17.63
-11.90
-6.88
-2.80
0.38
2.80
4.50
5.46
5.66
5.20
4.37
3.57
3.20
3.47
4.38
5.76
7.30
8.72
9.82
10.49
10.77
10.76
10.55
10.15
9.52
8.55
7.16
5.39
3.37
1.35
-0.44
-1.87
-2.99
-3.99
-5.15
-6.74
-8.90
-11.68
-15.00
-18.67
-22.40
-25.77
-28.28
-29.37
-28.61
-25.85
-21.33
-15.65
-9.60
-3.97
0.68
4.07
6.15
6.99
6.77
5.70
4.11
2.47
1.31
1.01
1.73
3.28
5.22
7.01
8.26
8.84
8.84
8.53
8.11
7.66
7.08
6.21
4.92
3.28
1.45
-0.34
-1.93
-3.35
-4.76
-6.42
-8.52
-11.11
-14.11
-17.30
-20.48
-23.41
-25.82
-27.35
-27.60
-26.23
-23.14
-18.57
-13.11
-7.54
-2.57
1.34
4.05
5.64
6.33
6.32
5.77
4.85
3.77
2.80
2.24
2.32
3.11
4.55
6.42
8.38
10.06
11.17
11.52
11.08
10.01
8.52
6.79
4.96
3.06
1.09
-0.92
-2.87
-4.69
-6.30
-7.73
-9.08
-10.51
-12.19
-14.30
-16.92
-19.97
-23.27
-26.43
-28.95
-30.28
-29.99
-27.91
-24.18
-19.21
-13.63
-8.04
-2.99
1.15
4.24
6.25
7.34
7.71
7.62
7.34
7.15
7.22
7.69
8.60
9.90
11.47
13.17
14.82
16.29
17.49
18.37
18.90
19.03
18.69
17.84
16.48
14.67
12.57
10.39
8.36
6.65
5.32
4.25
3.20
1.82
-0.18
-3.06
-6.90
-11.61
-16.95
-22.52
-27.78
-32.12
-34.99
-36.03
-35.19
-32.74
-29.18
-25.05
-20.84
-16.88
-13.36
-10.46
-8.27
-6.86
-6.16
-5.93
-5.85
-5.58
-4.85
-3.55
-1.72
0.51
2.95
5.45
7.87
10.06
11.88
13.21
13.97
14.11
13.70
12.82
11.57
10.05
8.35
6.58
4.84
3.21
1.67
0.13
-1.62
-3.78
-6.42
-9.38
-12.25
-14.42
-15.28
-14.39
-11.63
-7.31
-2.04
3.42
8.40
12.43
15.36
17.22
18.16
18.27
17.63
16.36
14.69
13.01
11.72
11.16
11.47
12.53
14.06
15.66
16.99
17.79
17.98
17.64
16.94
16.05
15.07
14.00
12.71
11.11
9.19
7.08
4.93
2.93
1.07
-0.78
-2.90
-5.55
-8.93
-13.08
-17.83
-22.83
-27.53
-31.29
-33.45
-33.54
-31.42
-27.35
-21.93
-15.96
-10.13
-4.95
-0.69
2.63
5.01
6.45
6.94
6.55
5.54
4.30
3.31
2.97
3.46
4.75
6.63
8.81
10.95
12.79
14.16
14.97
15.23
15.04
14.48
13.60
12.37
10.67
8.48
5.87
3.09
0.44
-1.80
-3.60
-5.10
-6.64
-8.59
-11.18
-14.47
-18.30
-22.36
-26.24
-29.46
-31.50
-31.84
-30.16
-26.38
-20.86
-14.29
-7.52
-1.38
3.64
7.37
9.89
11.38
11.96
11.73
10.87
9.73
8.82
8.64
9.49
11.30
13.75
16.34
18.62
20.36
21.48
21.97
21.83
21.02
19.58
17.63
15.39
13.08
10.86
8.74
6.64
4.51
2.33
0.19
-1.77
-3.49
-5.00
-6.43
-7.97
-9.79
-12.02
-14.73
-17.92
-21.47
-25.07
-28.20
-30.25
-30.60
-28.87
-25.10
-19.73
-13.52
-7.33
-1.91
2.30
5.16
6.77
7.40
7.31
6.76
5.98
5.22
4.70
4.62
5.05
5.94
7.13
8.42
9.68
10.83
11.85
12.71
13.34
13.62
13.41
12.65
11.38
9.75
8.01
6.46
5.36
4.77
4.52
4.27
3.63
2.44
0.90
-0.37
-0.59
0.87
4.18
8.95
14.34
19.37
23.26
25.64
26.66
26.93
27.30
28.63
31.49
36.03
41.88
48.26
54.24
58.99
61.95
62.88
61.76
58.73
53.96
47.77
40.63
33.14
26.02
19.83
14.90
11.20
8.45
6.27
4.34
2.51
0.75
-0.86
-2.24
-3.38
-4.36
-5.30
-6.38
-7.69
-9.27
-10.99
-12.67
-14.08
-15.02
-15.47
-15.59
-15.65
-15.92
-16.56
-17.55
-18.71
-19.81
-20.71
-21.44
-22.17
-23.19
-24.75
-27.02
-29.93
-33.10
-35.86
-37.21
-36.17
-32.08
-25.00
-15.78
-5.98
2.63
8.59
11.18
10.61
7.77
3.89
0.21
-2.30
-3.09
-2.04
0.53
4.00
7.56
10.50
12.37
13.16
13.20
12.92
12.56
12.01
10.89
8.75
5.36
0.84
-4.42
-10.00
-15.59
-21.12
-26.63
-32.02
-36.99
-41.04
-43.67
-44.72
-44.40
-43.31
-42.20
-41.63
-41.88
-42.83
-44.13
-45.38
-46.30
-46.70
-46.42
-45.24
-42.85
-39.02
-33.73
-27.36
-20.63
-14.33
-9.13
-5.35
-2.93
-1.63
-1.17
-1.34
-2.04
-3.12
-4.40
-5.66
-6.69
-7.42
-7.79
-7.78
-7.26
-6.09
-4.16
-1.55
1.46
4.49
7.16
9.20
10.48
10.94
10.56
9.34
7.38
4.94
2.41
0.17
-1.52
-2.70
-3.60
-4.56
-5.82
-7.49
-9.49
-11.64
-13.75
-15.60
-16.98
-17.57
-17.02
-15.07
-11.67
-7.14
-2.10
2.67
6.51
9.02
10.20
10.30
9.71
8.79
7.75
6.76
5.93
5.34
5.09
5.23
5.73
6.54
7.55
8.65
9.67
10.45
10.78
10.50
9.47
7.68
5.25
2.38
-0.69
-3.69
-6.41
-8.71
-10.53
-11.89
-12.99
-14.05
-15.31
-16.86
-18.52
-19.83
-20.18
-19.04
-16.20
-11.86
-6.64
-1.29
3.45
7.12
9.54
10.73
10.86
10.16
8.92
7.48
6.20
5.41
5.34
6.00
7.20
8.67
10.10
11.21
11.82
11.83
11.23
10.07
8.48
6.64
4.69
2.77
0.94
-0.80
-2.43
-4.00
-5.54
-7.16
-9.05
-11.44
-14.53
-18.35
-22.65
-26.85
-30.20
-32.02
-31.87
-29.77
-26.16
-21.71
-17.12
-12.91
-9.41
-6.73
-4.89
-3.91
-3.74
-4.34
-5.50
-6.94
-8.28
-9.15
-9.31
-8.67
-7.35
-5.60
-3.71
-1.93
-0.40
0.86
1.82
2.43
2.59
2.17
1.16
-0.38
-2.20
-4.06
-5.81
-7.42
-9.08
-11.03
-13.49
-16.52
-19.95
-23.39
-26.27
-28.01
-28.15
-26.52
-23.22
-18.70
-13.60
-8.57
-4.15
-0.70
1.68
3.02
3.42
3.06
2.13
0.90
-0.26
-0.96
-0.87
0.07
1.70
3.61
5.32
6.48
7.01
7.03
6.79
6.47
6.07
5.46
4.44
2.91
0.86
-1.61
-4.33
-7.13
-9.80
-12.02
-13.40
-13.53
-12.18
-9.39
-5.47
-0.93
3.74
8.13
11.95
15.00
17.05
17.94
17.62
16.26
14.29
12.26
10.76
10.23
10.82
12.36
14.41
16.45
17.99
18.74
18.71
18.14
17.30
16.42
15.51
14.40
12.92
10.95
8.59
6.04
3.62
1.50
-0.34
-2.14
-4.22
-6.90
-10.35
-14.50
-19.12
-23.74
-27.82
-30.74
-31.92
-30.98
-27.83
-22.76
-16.42
-9.65
-3.23
2.26
6.58
9.71
11.79
12.94
13.32
13.14
12.68
12.34
12.53
13.45
15.10
17.22
19.41
21.31
22.74
23.65
24.14
24.29
24.12
23.55
22.48
20.92
18.93
16.69
14.42
12.27
10.30
8.42
6.43
4.11
1.25
-2.22
-6.25
-10.56
-14.72
-18.20
-20.44
-21.01
-19.65
-16.40
-11.53
-5.55
0.92
7.27
12.93
17.49
20.64
22.32
22.65
21.96
20.70
19.42
18.65
18.76
19.91
21.95
24.51
27.06
29.10
30.31
30.63
30.20
29.32
28.22
27.01
25.65
24.05
22.10
19.78
17.17
14.42
11.66
9.02
6.54
4.19
1.83
-0.76
-3.80
-7.45
-11.65
-16.12
-20.28
-23.42
-24.85
-24.17
-21.41
-17.03
-11.79
-6.45
-1.58
2.56
5.94
8.66
10.80
12.37
13.42
14.06
14.49
14.96
15.70
16.80
18.29
20.05
21.89
23.59
24.95
25.82
26.19
26.10
25.64
24.84
23.67
22.06
20.00
17.58
15.01
12.48
10.13
7.98
5.90
3.79
1.56
-0.83
-3.43
-6.30
-9.56
-13.28
-17.33
-21.37
-24.82
-27.00
-27.34
-25.57
-21.77
-16.37
-10.01
-3.42
2.74
7.96
11.90
14.40
15.50
15.41
14.50
13.22
12.08
11.47
11.64
12.60
14.19
16.13
18.12
19.88
21.22
22.03
22.26
21.90
20.99
19.59
17.74
15.52
12.99
10.28
7.56
4.99
2.62
0.40
-1.83
-4.28
-7.11
-10.40
-14.02
-17.73
-21.08
-23.57
-24.66
-24.00
-21.47
-17.32
-12.04
-6.29
-0.69
4.26
8.24
11.14
12.95
13.78
13.77
13.15
12.20
11.31
10.86
11.18
12.42
14.40
16.68
18.68
19.90
20.10
19.39
18.12
16.66
15.28
14.01
12.71
11.22
9.46
7.49
5.50
3.64
1.98
0.45
-1.15
-3.04
-5.35
-8.14
-11.35
-14.95
-18.84
-22.92
-26.90
-30.28
-32.42
-32.68
-30.69
-26.50
-20.62
-13.88
-7.15
-1.11
3.86
7.70
10.55
12.63
14.13
15.23
16.08
16.87
17.80
19.10
20.93
23.29
26.05
28.90
31.48
33.48
34.70
35.04
34.52
33.22
31.17
28.43
25.05
21.12
16.80
12.26
7.70
3.35
-0.63
-4.13
-7.11
-9.66
-11.97
-14.30
-16.89
-19.93
-23.49
-27.51
-31.79
-35.93
-39.39
-41.51
-41.70
-39.62
-35.31
-29.26
-22.27
-15.23
-8.86
-3.59
0.47
3.35
5.21
6.17
6.35
5.97
5.32
4.80
4.75
5.37
6.63
8.33
10.18
11.95
13.48
14.69
15.48
15.79
15.57
14.82
13.69
12.34
10.92
9.52
8.16
6.80
5.39
3.91
2.33
0.63
-1.22
-3.19
-5.20
-7.15
-9.08
-11.08
-13.44
-16.42
-20.20
-24.65
-29.33
-33.56
-36.48
-37.36
-35.76
-31.71
-25.75
-18.82
-11.93
-5.95
-1.37
1.71
3.49
4.23
4.14
3.36
2.08
0.61
-0.59
-1.04
-0.51
0.93
2.88
4.81
6.33
7.31
7.85
8.13
8.31
8.39
8.29
7.90
7.18
6.21
5.11
4.10
3.34
2.95
2.95
3.23
3.63
4.01
4.26
4.32
4.18
3.79
3.11
2.11
0.83
-0.62
-2.12
-3.54
-4.86
-6.10
-7.37
-8.78
-10.51
-12.72
-15.49
-18.72
-22.06
-24.89
-26.48
-26.20
-23.78
-19.36
-13.56
-7.27
-1.33
3.60
7.20
9.48
10.67
10.99
10.69
9.95
8.94
7.93
7.22
7.12
7.79
9.18
10.99
12.82
14.31
15.23
15.54
15.31
14.67
13.68
12.38
10.76
8.91
6.96
5.07
3.35
1.80
0.31
-1.25
-2.99
-4.95
-7.04
-9.17
-11.28
-13.35
-15.54
-18.07
-21.14
-24.76
-28.72
-32.49
-35.37
-36.68
-35.91
-32.93
-28.02
-21.81
-15.10
-8.73
-3.29
0.87
3.76
5.57
6.57
7.02
7.16
7.19
7.33
7.84
8.94
10.66
12.86
15.21
17.34
18.97
19.95
20.30
20.11
19.48
18.46
17.07
15.31
13.28
11.11
8.99
7.04
5.32
3.73
2.12
0.33
-1.66
-3.78
-5.91
-7.99
-10.13
-12.54
-15.44
-18.97
-23.00
-27.17
-30.92
-33.62
-34.70
-33.78
-30.78
-25.94
-19.87
-13.36
-7.24
-2.13
1.69
4.22
5.71
6.47
6.73
6.66
6.36
5.98
5.71
5.77
6.28
7.29
8.66
10.14
11.50
12.52
13.16
13.45
13.42
13.08
12.37
11.21
9.58
7.61
5.47
3.36
1.39
-0.41
-2.07
-3.63
-5.09
-6.48
-7.82
-9.22
-10.84
-12.90
-15.54
-18.78
-22.42
-26.07
-29.17
-31.11
-31.40
-29.80
-26.42
-21.67
-16.18
-10.59
-5.45
-1.13
2.14
4.26
5.23
5.15
4.19
2.69
1.05
-0.24
-0.82
-0.46
0.81
2.76
5.02
7.23
9.16
10.69
11.79
12.43
12.54
12.01
10.78
8.88
6.48
3.84
1.26
-1.04
-2.97
-4.51
-5.77
-6.92
-8.20
-9.82
-11.94
-14.60
-17.67
-20.85
-23.68
-25.65
-26.26
-25.20
-22.41
-18.12
-12.84
-7.20
-1.85
2.67
6.08
8.27
9.25
9.13
8.11
6.48
4.68
3.20
2.48
2.73
3.89
5.67
7.62
9.29
10.41
10.87
10.75
10.19
9.34
8.32
7.12
5.69
3.94
1.82
-0.62
-3.23
-5.80
-8.13
-10.17
-12.04
-13.99
-16.33
-19.26
-22.73
-26.41
-29.71
-31.93
-32.46
-30.93
-27.31
-21.97
-15.60
-8.98
-2.88
2.12
5.69
7.78
8.55
8.25
7.22
5.82
4.39
3.30
2.88
3.30
4.57
6.47
8.61
10.55
11.97
12.75
12.99
12.85
12.47
11.84
10.87
9.40
7.39
4.94
2.31
-0.23
-2.47
-4.39
-6.11
-7.92
-10.16
-13.08
-16.77
-21.09
-25.59
-29.71
-32.77
-34.19
-33.61
-30.95
-26.51
-20.80
-14.52
-8.32
-2.70
2.05
5.78
8.47
10.07
10.59
10.12
8.93
7.48
6.32
5.92
6.54
8.12
10.34
12.74
14.90
16.57
17.66
18.23
18.38
18.15
17.52
16.40
14.74
12.55
9.98
7.27
4.63
2.22
0.03
-2.04
-4.19
-6.59
-9.38
-12.63
-16.33
-20.40
-24.52
-28.19
-30.76
-31.57
-30.22
-26.69
-21.39
-15.05
-8.44
-2.29
2.93
6.97
9.69
11.14
11.41
10.78
9.65
8.55
7.97
8.30
9.68
11.93
14.63
17.25
19.33
20.63
21.17
21.08
20.55
19.64
18.33
16.55
14.32
11.80
9.25
6.91
4.84
2.98
1.09
-1.10
-3.77
-7.04
-10.89
-15.13
-19.43
-23.29
-26.11
-27.29
-26.50
-23.70
-19.20
-13.54
-7.33
-1.10
4.75
9.88
14.01
16.85
18.26
18.29
17.25
15.70
14.27
13.51
13.75
15.01
17.01
19.35
21.57
23.33
24.48
25.02
25.05
24.65
23.82
22.48
20.58
18.19
15.49
12.76
10.26
8.14
6.38
4.84
3.25
1.38
-1.04
-4.20
-8.19
-12.93
-18.12
-23.19
-27.46
-30.22
-30.93
-29.36
-25.64
-20.24
-13.86
-7.24
-0.99
4.41
8.71
11.84
13.88
14.97
15.39
15.43
15.39
15.52
16.02
16.98
18.39
20.19
22.18
24.14
25.77
26.84
27.23
27.02
26.39
25.58
24.69
23.72
22.57
21.10
19.30
17.25
15.11
13.00
10.94
8.88
6.75
4.44
1.89
-0.95
-4.09
-7.56
-11.29
-15.09
-18.63
-21.38
-22.73
-22.12
-19.27
-14.25
-7.61
-0.12
7.32
14.04
19.63
23.92
26.91
28.60
29.02
28.30
26.79
24.99
23.47
22.74
23.01
24.27
26.27
28.60
30.79
32.41
33.12
32.76
31.41
29.32
26.76
23.97
21.04
18.04
15.02
12.12
9.49
7.15
5.00
2.83
0.36
-2.52
-5.80
-9.26
-12.72
-15.99
-19.05
-22.03
-25.14
-28.57
-32.42
-36.47
-40.25
-43.00
-43.93
-42.53
-38.71
-32.96
-26.15
-19.25
-13.02
-7.88
-3.91
-1.00
0.94
1.98
2.21
1.80
1.15
0.73
1.02
2.26
4.41
7.12
9.90
12.25
13.88
14.72
14.85
14.50
13.84
13.01
12.09
11.11
10.10
9.03
7.89
6.60
5.08
3.35
1.48
-0.41
-2.24
-4.06
-5.98
-8.14
-10.59
-13.31
-16.23
-19.28
-22.40
-25.46
-28.12
-29.81
-29.91
-27.95
-23.92
-18.31
-12.00
-5.95
-0.86
2.92
5.42
6.80
7.23
6.83
5.76
4.32
2.93
2.06
2.01
2.87
4.44
6.34
8.14
9.49
10.20
10.24
9.74
8.89
7.86
6.75
5.54
4.11
2.35
0.33
-1.79
-3.72
-5.29
-6.50
-7.53
-8.67
-10.16
-12.18
-14.79
-17.95
-21.48
-25.07
-28.23
-30.35
-30.86
-29.42
-26.09
-21.29
-15.76
-10.28
-5.46
-1.65
1.09
2.86
3.83
4.21
4.18
3.93
3.66
3.58
3.86
4.55
5.59
6.85
8.10
9.19
9.96
10.36
10.37
10.03
9.44
8.74
8.06
7.48
6.97
6.37
5.50
4.27
2.66
0.84
-1.00
-2.71
-4.25
-5.66
-7.09
-8.67
-10.55
-12.88
-15.76
-19.17
-22.84
-26.23
-28.63
-29.34
-27.92
-24.42
-19.34
-13.49
-7.72
-2.72
1.17
3.91
5.66
6.68
7.14
7.14
6.76
6.08
5.29
4.66
4.45
4.85
5.85
7.25
8.76
10.02
10.84
11.12
10.97
10.54
10.01
9.44
8.80
8.00
6.96
5.64
4.09
2.39
0.65
-1.08
-2.79
-4.51
-6.32
-8.30
-10.54
-13.16
-16.21
-19.65
-23.22
-26.46
-28.80
-29.68
-28.75
-25.98
-21.71
-16.50
-11.06
-5.99
-1.77
1.36
3.32
4.17
4.10
3.35
2.24
1.11
0.31
0.10
0.62
1.82
3.47
5.22
6.74
7.79
8.32
8.40
8.17
7.74
7.11
6.23
5.07
3.61
1.96
0.25
-1.36
-2.81
-4.03
-5.07
-6.03
-7.07
-8.40
-10.16
-12.41
-15.07
-17.86
-20.33
-21.99
-22.38
-21.28
-18.71
-15.00
-10.66
-6.25
-2.29
0.85
2.96
3.98
3.99
3.22
1.98
0.67
-0.34
-0.78
-0.49
0.52
2.11
4.03
5.96
7.62
8.78
9.36
9.43
9.13
8.59
7.84
6.86
5.53
3.85
1.89
-0.13
-1.98
-3.50
-4.71
-5.80
-7.04
-8.70
-10.92
-13.65
-16.68
-19.63
-22.06
-23.54
-23.67
-22.19
-19.10
-14.67
-9.47
-4.21
0.44
4.02
6.35
7.55
7.83
7.44
6.61
5.51
4.38
3.49
3.12
3.48
4.60
6.30
8.23
10.02
11.34
12.08
12.31
12.23
11.99
11.65
11.10
10.17
8.72
6.79
4.61
2.47
0.64
-0.79
-1.90
-2.90
-4.06
-5.59
-7.63
-10.23
-13.34
-16.71
-19.96
-22.56
-23.97
-23.82
-22.00
-18.77
-14.63
-10.22
-6.07
-2.55
0.18
2.11
3.31
3.88
3.89
3.45
2.77
2.15
1.92
2.34
3.43
4.95
6.55
7.82
8.60
8.93
9.04
9.16
9.35
9.42
9.10
8.17
6.57
4.49
2.27
0.22
-1.46
-2.71
-3.67
-4.49
-5.35
-6.41
-7.78
-9.58
-11.90
-14.79
-18.13
-21.65
-24.82
-26.98
-27.57
-26.24
-23.08
-18.59
-13.46
-8.41
-3.94
-0.33
2.37
4.13
4.94
4.80
3.87
2.44
0.96
-0.09
-0.36
0.30
1.81
3.87
6.07
7.96
9.23
9.78
9.71
9.32
8.91
8.56
8.21
7.62
6.59
5.11
3.36
1.65
0.19
-0.99
-2.02
-3.16
-4.66
-6.62
-8.99
-11.50
-13.80
-15.42
-15.93
-15.04
-12.68
-9.07
-4.63
0.11
4.60
8.39
11.14
12.68
12.99
12.25
10.78
8.99
7.36
6.26
5.96
6.53
7.83
9.57
11.34
12.80
13.72
14.04
13.80
13.11
12.02
10.55
8.69
6.49
4.10
1.68
-0.60
-2.66
-4.54
-6.36
-8.25
-10.30
-12.61
-15.17
-18.04
-21.18
-24.43
-27.44
-29.62
-30.35
-29.18
-26.01
-21.21
-15.47
-9.60
-4.27
0.08
3.29
5.37
6.40
6.54
6.00
5.03
3.98
3.14
2.75
2.95
3.74
5.06
6.70
8.39
9.85
10.84
11.29
11.25
10.86
10.23
9.39
8.29
6.85
5.13
3.24
1.46
-0.03
-1.15
-2.01
-2.88
-4.08
-5.92
-8.51
-11.88
-15.85
-20.16
-24.45
-28.25
-31.03
-32.27
-31.58
-28.81
-24.23
-18.38
-12.03
-5.91
-0.56
3.76
6.98
9.14
10.37
10.79
10.57
9.99
9.37
9.00
9.16
9.97
11.44
13.43
15.64
17.69
19.23
19.99
19.91
19.16
18.06
16.92
15.93
15.06
14.10
12.77
10.89
8.46
5.71
2.97
0.52
-1.50
-3.20
-4.84
-6.77
-9.25
-12.38
-16.09
-20.12
-24.07
-27.47
-29.76
-30.44
-29.18
-25.97
-21.15
-15.36
-9.33
-3.74
1.00
4.70
7.38
9.12
9.97
10.03
9.44
8.51
7.63
7.25
7.73
9.20
11.51
14.28
16.99
19.16
20.56
21.16
21.13
20.68
19.91
18.86
17.47
15.78
13.96
12.23
10.78
9.59
8.50
7.25
5.69
3.80
1.65
-0.70
-3.38
-6.58
-10.39
-14.62
-18.70
-21.74
-22.89
-21.59
-17.85
-12.24
-5.65
0.85
6.35
10.22
12.12
12.10
10.46
7.77
4.75
2.20
0.89
1.35
3.75
7.81
12.90
18.14
22.68
25.92
27.64
27.99
27.34
26.10
24.55
22.87
21.13
19.39
17.67
16.00
14.31
12.50
10.53
8.37
6.11
3.84
1.55
-0.86
-3.63
-6.98
-11.07
-15.92
-21.36
-27.02
-32.34
-36.60
-39.05
-39.09
-36.44
-31.34
-24.54
-17.07
-9.99
-4.05
0.44
3.54
5.55
6.79
7.43
7.60
7.44
7.21
7.28
8.01
9.62
11.99
14.79
17.53
19.83
21.50
22.56
23.15
23.37
23.20
22.59
21.44
19.79
17.74
15.48
13.18
10.94
8.80
6.72
4.61
2.37
-0.03
-2.56
-5.17
-7.79
-10.48
-13.48
-17.06
-21.39
-26.28
-31.16
-35.15
-37.34
-37.08
-34.19
-29.01
-22.26
-14.85
-7.63
-1.24
3.94
7.79
10.34
11.72
12.10
11.64
10.62
9.38
8.39
8.08
8.68
10.21
12.39
14.84
17.15
19.03
20.33
20.96
20.93
20.23
18.93
17.16
15.07
12.82
10.52
8.20
5.89
3.66
1.62
-0.15
-1.63
-3.00
-4.55
-6.61
-9.42
-13.01
-17.18
-21.54
-25.56
-28.65
-30.27
-29.96
-27.55
-23.13
-17.16
-10.35
-3.48
2.76
7.90
11.63
13.88
14.66
14.17
12.73
10.83
9.07
7.96
7.87
8.85
10.66
12.92
15.20
17.15
18.59
19.46
19.76
19.55
18.79
17.42
15.41
12.80
9.77
6.59
3.59
0.93
-1.33
-3.34
-5.32
-7.56
-10.25
-13.47
-17.16
-21.08
-24.78
-27.59
-28.83
-27.96
-24.81
-19.72
-13.38
-6.68
-0.41
4.90
9.01
11.91
13.66
14.30
13.89
12.60
10.79
8.95
7.66
7.36
8.18
9.93
12.11
14.17
15.68
16.48
16.70
16.60
16.37
16.04
15.41
14.25
12.38
9.86
6.90
3.83
0.96
-1.55
-3.75
-5.80
-7.93
-10.37
-13.38
-17.09
-21.54
-26.50
-31.43
-35.46
-37.63
-37.15
-33.75
-27.78
-20.18
-12.13
-4.73
1.31
5.81
8.88
10.83
11.86
12.10
11.62
10.59
9.41
8.56
8.55
9.65
11.80
14.59
17.44
19.76
21.23
21.80
21.70
21.21
20.54
19.72
18.60
17.03
14.93
12.35
9.53
6.74
4.23
2.12
0.29
-1.54
-3.76
-6.72
-10.62
-15.37
-20.59
-25.69
-29.98
-32.82
-33.73
-32.42
-28.93
-23.57
-16.93
-9.82
-3.07
2.66
7.01
9.99
11.84
12.82
13.16
12.93
12.21
11.14
10.11
9.59
10.05
11.69
14.32
17.37
20.15
22.02
22.67
22.14
20.75
18.91
16.93
14.92
12.85
10.63
8.20
5.66
3.17
0.90
-1.01
-2.61
-4.07
-5.69
-7.77
-10.53
-13.99
-17.90
-21.82
-25.11
-27.11
-27.25
-25.28
-21.23
-15.55
-8.95
-2.28
3.63
8.10
10.74
11.45
10.42
8.10
5.07
1.94
-0.70
-2.37
-2.78
-1.92
-0.01
2.51
5.11
7.35
8.97
9.95
10.34
10.24
9.64
8.47
6.66
4.28
1.56
-1.17
-3.57
-5.53
-7.07
-8.44
-9.94
-11.87
-14.39
-17.52
-21.01
-24.40
-27.05
-28.29
-27.58
-24.70
-19.79
-13.42
-6.35
0.58
6.64
11.35
14.46
15.95
15.94
14.73
12.72
10.45
8.53
7.47
7.60
8.92
11.12
13.65
15.96
17.65
18.58
18.88
18.77
18.40
17.74
16.55
14.59
11.72
8.09
4.09
0.23
-3.12
-5.82
-8.07
-10.27
-12.87
-16.18
-20.20
-24.62
-28.84
-32.11
-33.67
-32.98
-29.88
-24.62
-17.82
-10.32
-2.97
3.55
8.76
12.42
14.56
15.38
15.21
14.43
13.43
12.50
11.92
11.85
12.45
13.70
15.43
17.31
18.93
19.97
20.31
20.04
19.36
18.43
17.23
15.63
13.54
11.01
8.29
5.73
3.57
1.89
0.50
-0.90
-2.61
-4.81
-7.61
-11.06
-15.14
-19.76
-24.65
-29.28
-32.93
-34.80
-34.31
-31.30
-26.12
-19.55
-12.55
-5.99
-0.36
4.16
7.61
10.10
11.65
12.20
11.79
10.64
9.22
8.17
8.01
8.95
10.83
13.18
15.45
17.25
18.40
18.94
18.95
18.50
17.55
16.09
14.18
12.02
9.91
8.05
6.49
5.07
3.51
1.62
-0.61
-3.02
-5.35
-7.47
-9.43
-11.49
-13.95
-16.96
-20.41
-23.89
-26.77
-28.40
-28.25
-26.07
-21.98
-16.39
-9.96
-3.45
2.46
7.23
10.58
12.43
12.89
12.18
10.64
8.66
6.79
5.53
5.30
6.26
8.25
10.86
13.63
16.10
17.97
19.12
19.49
19.09
17.95
16.17
13.97
11.59
9.31
7.29
5.57
4.03
2.53
0.88
-0.96
-2.97
-5.01
-6.93
-8.67
-10.31
-12.04
-14.12
-16.78
-20.03
-23.65
-27.16
-29.90
-31.24
-30.70
-28.12
-23.66
-17.84
-11.34
-4.90
0.82
5.36
8.48
10.17
10.61
10.12
9.13
8.03
7.23
7.00
7.51
8.76
10.64
12.89
15.20
17.24
18.74
19.52
19.51
18.71
17.24
15.29
13.07
10.80
8.63
6.65
4.85
3.15
1.44
-0.34
-2.25
-4.23
-6.20
-8.06
-9.78
-11.42
-13.09
-15.01
-17.38
-20.27
-23.58
-26.96
-29.87
-31.65
-31.75
-29.86
-25.99
-20.57
-14.27
-7.89
-2.20
2.21
5.03
6.17
5.84
4.43
2.46
0.41
-1.29
-2.38
-2.72
-2.28
-1.09
0.78
3.17
5.82
8.45
10.83
12.86
14.59
16.11
17.49
18.67
19.48
19.81
19.60
19.02
18.39
18.08
18.35
19.26
20.59
21.90
22.69
22.69
21.85
20.43
18.70
16.81
14.72
12.29
9.54
6.81
4.65
3.56
3.72
4.79
6.19
7.34
7.87
7.72
6.93
5.48
3.16
-0.22
-4.68
-9.86
-15.06
-19.45
-22.31
-23.31
-22.53
-20.36
-17.31
-13.89
-10.43
-7.16
-4.22
-1.79
-0.02
0.97
1.22
0.93
0.41
-0.02
-0.16
0.05
0.53
1.14
1.76
2.25
2.49
2.30
1.50
-0.04
-2.28
-5.03
-7.96
-10.68
-12.87
-14.30
-14.80
-14.17
-12.23
-8.87
-4.24
1.24
6.84
11.78
15.43
17.42
17.67
16.31
13.58
9.80
5.40
0.94
-2.94
-5.64
-6.82
-6.52
-5.11
-3.23
-1.54
-0.54
-0.44
-1.17
-2.45
-3.99
-5.60
-7.28
-9.13
-11.29
-13.79
-16.48
-19.14
-21.52
-23.57
-25.42
-27.28
-29.37
-31.73
-34.23
-36.56
-38.42
-39.50
-39.60
-38.55
-36.27
-32.79
-28.36
-23.40
-18.50
-14.28
-11.23
-9.60
-9.41
-10.43
-12.30
-14.62
-16.99
-19.04
-20.48
-21.09
-20.72
-19.39
-17.32
-14.84
-12.35
-10.19
-8.49
-7.25
-6.33
-5.55
-4.73
-3.65
-2.07
0.24
3.27
6.75
9.99
12.18
12.60
10.98
7.61
3.24
-1.11
-4.43
-5.93
-5.15
-2.00
3.21
9.84
16.97
23.62
28.94
32.42
33.86
33.45
31.59
28.84
25.80
22.96
20.75
19.35
18.83
19.07
19.86
20.94
22.03
22.83
23.10
22.70
21.64
20.12
18.44
16.86
15.54
14.41
13.20
11.59
9.30
6.21
2.41
-1.78
-5.85
-9.16
-11.04
-10.93
-8.57
-4.07
2.07
9.02
15.80
21.59
25.77
28.15
28.82
28.10
26.40
24.11
21.60
19.24
17.34
16.18
15.89
16.39
17.37
18.40
19.12
19.35
19.17
18.83
18.53
18.31
17.97
17.12
15.31
12.25
7.84
2.20
-4.36
-11.38
-18.30
-24.43
-29.02
-31.44
-31.29
-28.59
-23.79
-17.63
-11.03
-4.77
0.58
4.67
7.27
8.19
7.26
4.38
-0.31
-6.43
-13.27
-20.04
-26.04
-30.82
-34.30
-36.74
-38.50
-39.91
-41.13
-42.18
-43.01
-43.59
-43.91
-44.00
-43.84
-43.40
-42.66
-41.70
-40.75
-40.10
-39.95
-40.23
-40.48
-39.95
-37.88
-33.76
-27.56
-19.77
-11.22
-2.82
4.70
10.87
15.52
18.67
20.45
21.05
20.65
19.46
17.67
15.51
13.24
11.21
9.68
8.87
8.80
9.26
9.87
10.18
9.86
8.72
6.84
4.50
2.05
-0.16
-1.92
-3.23
-4.25
-5.22
-6.42
-8.02
-10.04
-12.36
-14.67
-16.49
-17.18
-16.10
-12.83
-7.39
-0.32
7.41
14.69
20.60
24.66
26.89
27.63
27.37
26.54
25.52
24.64
24.18
24.37
25.23
26.51
27.77
28.46
28.19
26.77
24.30
21.00
17.15
12.97
8.61
4.15
-0.33
-4.77
-9.09
-13.23
-17.19
-21.06
-24.93
-28.82
-32.61
-35.88
-38.06
-38.45
-36.57
-32.28
-25.90
-18.26
-10.32
-3.06
2.86
7.17
9.96
11.49
12.10
12.05
11.54
10.79
10.00
9.42
9.22
9.44
9.86
10.19
10.09
9.33
7.90
5.92
3.61
1.13
-1.42
-3.97
-6.49
-8.92
-11.22
-13.35
-15.40
-17.58
-20.19
-23.38
-27.12
-30.94
-34.05
-35.57
-34.78
-31.47
-25.99
-19.15
-11.91
-5.05
0.96
5.97
10.04
13.29
15.74
17.41
18.30
18.48
18.16
17.57
16.95
16.42
16.03
15.69
15.24
14.57
13.65
12.57
11.49
10.47
9.49
8.37
6.90
4.95
2.60
0.10
-2.26
-4.26
-5.89
-7.30
-8.84
-10.87
-13.63
-17.19
-21.32
-25.35
-28.39
-29.47
-27.89
-23.55
-16.97
-9.22
-1.50
5.23
10.53
14.45
17.34
19.53
21.21
22.41
23.07
23.23
23.10
22.94
23.04
23.58
24.53
25.72
26.85
27.63
27.84
27.38
26.21
24.47
22.29
19.88
17.41
14.99
12.64
10.35
8.04
5.64
3.13
0.59
-1.83
-4.02
-5.89
-7.49
-9.06
-10.91
-13.39
-16.67
-20.65
-24.84
-28.49
-30.72
-30.82
-28.44
-23.75
-17.35
-10.11
-2.92
3.52
8.75
12.60
15.07
16.25
16.39
15.81
14.93
14.18
13.93
14.32
15.35
16.84
18.53
20.22
21.78
23.13
24.28
25.30
26.18
26.94
27.47
27.63
27.23
26.18
24.51
22.41
20.14
17.97
16.03
14.32
12.79
11.39
10.21
9.38
9.03
9.23
9.87
10.75
11.52
11.88
11.50
10.16
7.85
4.76
1.35
-1.81
-4.17
-5.47
-5.77
-5.39
-4.80
-4.36
-4.22
-4.33
-4.59
-4.94
-5.45
-6.26
-7.39
-8.76
-10.10
-11.10
-11.49
-11.16
-10.20
-8.81
-7.26
-5.76
-4.47
-3.44
-2.72
-2.31
-2.21
-2.46
-3.09
-4.10
-5.44
-6.99
-8.55
-9.94
-11.07
-11.95
-12.70
-13.49
-14.47
-15.69
-17.18
-18.82
-20.51
-22.11
-23.53
-24.74
-25.80
-26.83
-28.01
-29.51
-31.41
-33.59
-35.74
-37.36
-37.85
-36.70
-33.62
-28.67
-22.34
-15.34
-8.48
-2.40
2.56
6.36
9.14
11.09
12.36
13.08
13.41
13.57
13.82
14.39
15.42
16.88
18.71
20.84
23.29
26.11
29.40
33.17
37.39
41.95
46.71
51.53
56.20
60.41
63.76
65.71
65.78
63.69
59.50
53.58
46.52
38.88
31.16
23.69
16.67
10.17
4.10
-1.88
-8.33
-15.86
-24.93
-35.50
-46.98
-58.27
-68.07
-75.20
-78.90
-78.94
-75.67
-69.83
-62.43
-54.49
-46.90
-40.25
-34.91
-31.00
-28.57
-27.52
-27.69
-28.78
-30.35
-31.88
-32.86
-32.98
-32.15
-30.53
-28.43
-26.15
-23.95
-21.87
-19.86
-17.84
-15.76
-13.66
-11.73
-10.16
-9.12
-8.66
-8.68
-9.02
-9.51
-10.02
-10.55
-11.17
-11.99
-13.03
-14.23
-15.38
-16.28
-16.75
-16.78
-16.49
-16.18
-16.14
-16.61
-17.65
-19.12
-20.74
-22.11
-22.79
-22.38
-20.58
-17.31
-12.72
-7.23
-1.38
4.25
9.21
13.23
16.21
18.14
19.08
19.09
18.38
17.19
15.87
14.74
14.05
13.90
14.34
15.27
16.59
18.13
19.69
21.08
22.10
22.70
22.90
22.78
22.44
21.91
21.12
20.01
18.64
17.13
15.70
14.48
13.45
12.46
11.29
9.84
8.15
6.48
5.01
3.83
2.81
1.66
0.11
-2.00
-4.66
-7.73
-11.03
-14.31
-17.19
-19.20
-19.83
-18.68
-15.66
-11.11
-5.70
-0.22
4.62
8.43
11.10
12.72
13.43
13.30
12.33
10.61
8.42
6.15
4.37
3.43
3.53
4.50
5.98
7.58
9.04
10.32
11.50
12.65
13.65
14.23
14.11
13.16
11.62
9.90
8.46
7.51
6.89
6.23
5.10
3.32
1.01
-1.47
-3.69
-5.35
-6.40
-7.03
-7.60
-8.50
-10.04
-12.39
-15.49
-19.01
-22.46
-25.13
-26.40
-25.80
-23.18
-18.77
-13.07
-6.76
-0.53
5.02
9.53
12.81
14.78
15.47
14.98
13.48
11.30
8.86
6.61
4.97
4.19
4.37
5.35
6.84
8.54
10.16
11.56
12.60
13.21
13.25
12.61
11.22
9.21
6.83
4.38
2.17
0.31
-1.26
-2.75
-4.36
-6.23
-8.52
-11.28
-14.58
-18.27
-22.03
-25.25
-27.21
-27.28
-25.16
-20.99
-15.30
-8.85
-2.38
3.47
8.27
11.74
13.72
14.19
13.30
11.38
8.91
6.43
4.41
3.19
2.88
3.36
4.33
5.52
6.67
7.68
8.48
9.04
9.23
8.85
7.71
5.75
3.14
0.21
-2.63
-5.07
-7.04
-8.75
-10.59
-13.03
-16.38
-20.70
-25.73
-30.94
-35.56
-38.76
-39.85
-38.39
-34.39
-28.29
-20.88
-13.11
-5.81
0.39
5.20
8.59
10.57
11.26
10.79
9.47
7.79
6.34
5.65
6.02
7.38
9.41
11.67
13.78
15.54
16.88
17.79
18.23
18.15
17.45
16.11
14.19
11.86
9.31
6.74
4.22
1.65
-1.14
-4.39
-8.31
-12.89
-18.02
-23.39
-28.62
-33.18
-36.50
-37.99
-37.20
-33.95
-28.53
-21.61
-14.13
-6.97
-0.76
4.22
7.95
10.50
11.96
12.31
11.68
10.36
8.88
7.85
7.79
8.87
10.88
13.39
15.96
18.25
20.23
21.94
23.44
24.57
25.11
24.77
23.45
21.29
18.67
15.99
13.58
11.45
9.42
7.18
4.46
1.14
-2.69
-6.89
-11.21
-15.44
-19.21
-22.04
-23.35
-22.58
-19.48
-14.27
-7.63
-0.56
5.97
11.15
14.45
15.65
14.75
12.02
8.07
3.77
0.06
-2.31
-2.98
-2.13
-0.24
2.12
4.52
6.72
8.60
10.08
11.01
11.33
10.99
10.11
8.82
7.22
5.39
3.37
1.25
-0.83
-2.69
-4.29
-5.70
-7.25
-9.33
-12.29
-16.26
-21.06
-26.16
-30.72
-33.78
-34.51
-32.47
-27.72
-20.86
-12.83
-4.63
2.92
9.25
14.04
17.17
18.64
18.59
17.35
15.44
13.46
11.98
11.39
11.84
13.23
15.27
17.62
19.92
21.87
23.28
24.02
24.06
23.38
22.01
20.03
17.61
15.00
12.43
10.07
7.96
5.99
3.90
1.39
-1.80
-5.81
-10.54
-15.58
-20.21
-23.55
-24.75
-23.30
-19.23
-13.08
-5.75
1.83
8.89
14.98
19.85
23.40
25.53
26.18
25.44
23.64
21.36
19.35
18.23
18.33
19.55
21.41
23.23
24.38
24.49
23.59
21.93
19.92
17.78
15.57
13.12
10.23
6.86
3.24
-0.28
-3.37
-5.92
-8.10
-10.32
-13.04
-16.57
-21.00
-26.18
-31.74
-37.04
-41.31
-43.70
-43.46
-40.19
-34.02
-25.72
-16.42
-7.38
0.45
6.59
11.06
14.17
16.34
17.85
18.88
19.53
19.93
20.31
20.92
21.96
23.48
25.38
27.41
29.29
30.73
31.53
31.52
30.61
28.83
26.31
23.34
20.31
17.54
15.24
13.43
11.95
10.57
9.12
7.48
5.57
3.34
0.65
-2.66
-6.73
-11.66
-17.38
-23.64
-29.95
-35.65
-39.93
-42.02
-41.35
-37.80
-31.73
-23.93
-15.41
-7.17
0.07
5.89
10.29
13.45
15.65
17.18
18.22
18.95
19.48
20.01
20.74
21.78
23.19
24.84
26.49
27.89
28.84
29.31
29.42
29.30
28.95
28.26
27.04
25.17
22.74
20.05
17.54
15.51
13.99
12.74
11.30
9.30
6.61
3.40
0.05
-3.05
-5.75
-8.19
-10.83
-14.21
-18.77
-24.61
-31.34
-38.19
-44.10
-48.07
-49.36
-47.67
-43.20
-36.60
-28.75
-20.60
-12.97
-6.35
-0.98
3.17
6.24
8.42
9.93
10.98
11.82
12.75
14.06
15.94
18.43
21.38
24.47
27.35
29.70
31.38
32.36
32.77
32.76
32.43
31.78
30.72
29.17
27.09
24.61
21.96
19.44
17.27
15.50
13.93
12.25
10.15
7.47
4.28
0.84
-2.52
-5.62
-8.44
-11.15
-14.06
-17.43
-21.46
-26.13
-31.26
-36.41
-40.91
-43.95
-44.77
-42.84
-38.11
-31.01
-22.42
-13.38
-4.87
2.39
8.09
12.24
15.11
17.06
18.41
19.36
20.00
20.41
20.71
21.10
21.86
23.18
25.03
27.21
29.32
31.04
32.19
32.80
32.97
32.76
32.14
30.98
29.27
27.11
24.78
22.54
20.50
18.54
16.39
13.78
10.69
7.32
4.01
1.03
-1.65
-4.30
-7.34
-11.11
-15.71
-20.97
-26.51
-31.74
-36.03
-38.70
-39.15
-37.07
-32.59
-26.23
-18.91
-11.60
-5.06
0.27
4.32
7.20
9.05
9.97
10.11
9.74
9.31
9.37
10.35
12.40
15.31
18.57
21.61
24.06
25.81
26.98
27.85
28.59
29.23
29.57
29.26
27.85
24.93
20.38
14.46
8.02
2.12
-2.22
-4.54
-5.19
-5.22
-5.85
-7.98
-11.79
-16.85
-22.45
-28.06
-33.51
-38.81
-43.98
-48.81
-52.96
-56.21
-58.57
-60.27
-61.51
-62.16
-61.71
-59.40
-54.62
-47.22
-37.66
-26.81
-15.72
-5.25
4.00
11.77
17.94
22.43
25.15
26.00
25.11
22.86
19.94
17.25
15.64
15.61
17.17
19.88
23.00
25.83
27.86
28.98
29.40
29.49
29.62
29.93
30.25
30.19
29.28
27.17
23.81
19.46
14.59
9.75
5.42
1.93
-0.55
-2.02
-2.60
-2.47
-1.91
-1.22
-0.69
-0.60
-1.23
-2.78
-5.42
-9.22
-14.18
-20.08
-26.57
-33.06
-38.73
-42.72
-44.21
-42.73
-38.26
-31.31
-22.81
-13.85
-5.44
1.66
7.08
10.76
12.89
13.73
13.53
12.54
10.96
9.02
6.89
4.72
2.49
0.11
-2.53
-5.44
-8.42
-11.17
-13.36
-14.77
-15.47
-15.69
-15.81
-16.08
-16.67
-17.45
-18.17
-18.45
-17.96
-16.48
-14.11
-11.15
-8.05
-5.20
-2.80
-0.82
0.90
2.51
3.99
5.12
5.65
5.36
4.14
2.07
-0.75
-4.07
-7.54
-10.50
-12.11
-11.44
-7.84
-1.22
7.78
17.89
27.50
35.13
39.80
41.17
39.51
35.44
29.67
22.88
15.58
8.22
1.21
-5.08
-10.36
-14.48
-17.48
-19.54
-20.89
-21.73
-22.18
-22.38
-22.47
-22.74
-23.47
-24.90
-27.08
-29.76
-32.56
-35.07
-37.13
-38.88
-40.74
-43.21
-46.63
-50.95
-55.78
-60.44
-64.22
-66.56
-67.21
-66.22
-63.98
-61.01
-57.87
-54.94
-52.34
-49.84
-47.01
-43.39
-38.69
-32.93
-26.31
-19.15
-11.73
-4.27
3.00
9.77
15.58
19.92
22.45
23.16
22.38
20.77
19.04
17.83
17.57
18.40
20.25
22.86
25.91
29.04
31.97
34.48
36.51
38.01
38.97
39.34
39.07
38.11
36.49
34.37
31.99
29.60
27.36
25.29
23.22
20.81
17.65
13.32
7.54
0.24
-8.31
-17.53
-26.52
-34.21
-39.52
-41.55
-39.80
-34.28
-25.61
-14.97
-3.84
6.30
14.22
19.25
21.27
20.61
17.87
13.79
9.13
4.66
1.11
-1.00
-1.45
-0.43
1.55
3.85
5.92
7.45
8.42
9.02
9.45
9.84
10.16
10.23
9.80
8.65
6.69
3.97
0.71
-2.85
-6.46
-10.06
-13.70
-17.54
-21.69
-26.05
-30.26
-33.68
-35.58
-35.34
-32.71
-27.85
-21.37
-14.07
-6.79
-0.18
5.35
9.59
12.50
14.12
14.53
13.88
12.39
10.38
8.26
6.51
5.54
5.64
6.85
8.91
11.37
13.72
15.54
16.62
16.92
16.49
15.41
13.70
11.39
8.65
5.70
2.82
0.11
-2.51
-5.37
-8.82
-12.98
-17.62
-22.05
-25.37
-26.73
-25.61
-21.93
-16.05
-8.67
-0.63
7.28
14.40
20.28
24.65
27.43
28.72
28.79
28.00
26.80
25.60
24.76
24.45
24.69
25.35
26.22
27.05
27.54
27.46
26.59
24.81
22.03
18.29
13.66
8.27
2.32
-3.92
-10.17
-16.17
-21.75
-26.83
-31.45
-35.67
-39.57
-43.16
-46.29
-48.57
-49.44
-48.30
-44.72
-38.69
-30.72
-21.67
-12.59
-4.28
2.80
8.52
12.91
15.99
17.73
18.10
17.27
15.67
13.90
12.58
12.13
12.75
14.29
16.46
18.86
21.06
22.71
23.54
23.40
22.26
20.20
17.36
13.94
10.17
6.27
2.51
-0.94
-4.00
-6.76
-9.44
-12.34
-15.69
-19.56
-23.80
-27.96
-31.41
-33.41
-33.36
-31.00
-26.49
-20.42
-13.58
-6.75
-0.53
4.74
8.87
11.74
13.25
13.38
12.28
10.34
8.20
6.52
5.83
6.32
7.80
9.87
12.05
14.00
15.52
16.53
16.89
16.42
14.92
12.35
8.91
5.06
1.42
-1.53
-3.55
-4.74
-5.48
-6.16
-7.19
-8.83
-11.19
-14.24
-17.76
-21.35
-24.41
-26.24
-26.19
-23.87
-19.27
-12.82
-5.28
2.46
9.50
15.21
19.21
21.38
21.82
20.77
18.68
16.15
13.89
12.55
12.50
13.55
15.05
16.05
15.72
13.69
10.22
5.99
1.76
-1.98
-5.16
-7.94
-10.57
-13.09
-15.35
-17.16
-18.47
-19.41
-20.19
-21.01
-21.84
-22.52
-22.87
-22.83
-22.48
-21.92
-21.14
-19.91
-17.81
-14.42
-9.45
-2.83
5.25
14.42
24.17
33.85
42.81
50.42
56.25
60.16
62.38
63.41
63.87
64.36
65.27
66.75
68.72
70.88
72.78
73.98
74.22
73.53
72.20
70.58
68.83
66.79
64.01
60.08
54.95
49.11
43.46
38.91
35.96
34.48
33.72
32.68
30.41
26.30
20.24
12.57
4.02
-4.38
-11.44
-16.10
-17.74
-16.35
-12.62
-7.71
-2.85
1.03
3.45
4.35
3.85
2.17
-0.32
-2.94
-4.76
-4.89
-2.86
1.01
5.60
9.52
11.69
11.85
10.53
8.68
7.06
5.94
5.05
3.86
1.95
-0.82
-4.22
-7.89
-11.38
-14.40
-16.81
-18.69
-20.28
-21.91
-23.89
-26.35
-29.18
-32.01
-34.24
-35.16
-34.15
-30.84
-25.29
-18.04
-9.94
-1.94
5.26
11.35
16.40
20.67
24.37
27.54
30.02
31.70
32.63
33.23
34.14
36.05
39.42
44.24
50.01
55.74
60.29
62.58
61.87
57.86
50.64
40.60
28.27
14.26
-0.72
-15.83
-30.25
-43.27
-54.58
-64.28
-72.71
-80.32
-87.22
-93.11
-97.42
-99.59
-99.38
-97.01
-93.07
-88.31
-83.37
-78.66
-74.39
-70.67
-67.58
-65.16
-63.38
-62.02
-60.84
-59.60
-58.23
-56.86
-55.71
-54.85
-54.08
-52.93
-50.83
-47.42
-42.77
-37.49
-32.53
-28.95
-27.58
-28.80
-32.41
-37.71
-43.60
-48.88
-52.55
-54.11
-53.73
-52.08
-50.17
-48.88
-48.63
-49.16
-49.67
-49.04
-46.33
-41.07
-33.36
-23.87
-13.52
-3.22
6.36
14.75
21.64
26.83
30.13
31.53
31.26
29.91
28.25
27.08
26.90
27.82
29.50
31.35
32.84
33.68
33.98
34.09
34.51
35.61
37.61
40.45
43.83
47.22
49.86
50.91
49.60
45.43
38.42
29.13
18.43
7.26
-3.71
-14.18
-24.22
-33.90
-43.19
-51.88
-59.71
-66.54
-72.45
-77.69
-82.44
-86.70
-90.15
-92.27
-92.53
-90.60
-86.47
-80.47
-73.19
-65.34
-57.63
-50.60
-44.48
-39.27
-34.76
-30.77
-27.18
-24.04
-21.46
-19.60
-18.56
-18.41
-19.20
-20.95
-23.61
-26.92
-30.47
-33.66
-35.92
-36.68
-35.60
-32.65
-28.03
-22.25
-15.95
-9.76
-4.12
0.79
4.94
8.41
11.20
13.28
14.60
15.23
15.39
15.40
15.59
16.20
17.32
18.84
20.53
22.08
23.24
23.90
24.21
24.34
24.31
23.77
22.06
18.41
12.34
3.96
-6.04
-16.53
-26.39
-34.71
-40.89
-44.59
-45.63
-44.00
-39.88
-33.76
-26.37
-18.54
-11.08
-4.63
0.43
3.98
6.05
6.78
6.37
5.13
3.56
2.34
2.26
3.98
7.69
13.03
19.10
24.71
28.82
30.82
30.56
28.37
24.74
20.22
15.31
10.42
5.90
2.01
-1.11
-3.41
-4.96
-5.78
-5.84
-4.89
-2.57
1.55
7.65
15.55
24.61
33.84
42.18
48.88
53.67
56.77
58.74
60.11
61.24
62.22
62.98
63.47
63.81
64.24
65.01
66.14
67.35
68.09
67.78
65.99
62.60
57.81
51.99
45.55
38.81
32.01
25.30
18.86
12.80
7.23
2.09
-2.84
-7.82
-13.09
-18.52
-23.58
-27.29
-28.60
-26.77
-21.77
-14.39
-5.98
2.02
8.59
13.29
16.20
17.67
18.01
17.40
16.04
14.25
12.61
11.78
12.30
14.32
17.61
21.60
25.62
29.09
31.63
33.06
33.33
32.57
30.92
28.56
25.62
22.15
18.12
13.44
8.07
2.01
-4.63
-11.65
-18.71
-25.31
-30.73
-34.12
-34.75
-32.18
-26.51
-18.46
-9.15
0.18
8.48
15.18
20.22
23.84
26.50
28.57
30.32
31.97
33.71
35.80
38.51
42.03
46.36
51.25
56.26
60.91
64.77
67.66
69.52
70.42
70.41
69.51
67.62
64.60
60.22
54.30
46.70
37.41
26.67
14.91
2.88
-8.49
-18.11
-24.97
-28.24
-27.48
-22.80
-14.79
-4.44
7.09
18.74
29.70
39.39
47.51
53.91
58.53
61.42
62.72
62.73
61.87
60.73
59.93
60.04
61.34
63.74
66.72
69.49
71.16
71.06
68.88
64.74
59.08
52.55
45.77
39.20
32.94
26.78
20.21
12.70
3.88
-6.40
-18.05
-30.89
-44.69
-59.05
-73.27
-86.26
-96.61
-103.03
-104.81
-102.11
-96.07
-88.48
-81.21
-75.80
-73.07
-73.06
-75.21
-78.64
-82.52
-86.27
-89.54
-92.19
-94.14
-95.36
-95.78
-95.33
-93.77
-90.55
-84.80
-75.49
-61.87
-43.99
-22.89
-0.51
20.92
39.50
54.11
64.50
71.11
74.62
75.74
75.05
73.04
70.09
66.46
62.17
57.03
50.74
43.09
34.21
24.75
15.75
8.44
3.82
2.33
3.68
7.01
11.14
14.98
17.76
19.15
19.26
18.49
17.39
16.52
16.33
17.10
18.90
21.60
24.94
28.55
32.08
35.20
37.64
39.22
39.85
39.57
38.53
36.97
35.06
32.95
30.59
27.83
24.43
20.16
14.94
8.87
2.28
-4.42
-10.79
-16.54
-21.54
-25.80
-29.47
-32.81
-36.18
-39.95
-44.38
-49.50
-54.94
-59.97
-63.68
-65.24
-64.22
-60.74
-55.38
-49.08
-42.79
-37.32
-33.20
-30.59
-29.39
-29.31
-30.05
-31.31
-32.84
-34.44
-35.95
-37.23
-38.27
-39.11
-39.82
-40.26
-39.99
-38.27
-34.41
-28.11
-19.80
-10.58
-1.88
5.14
9.95
12.74
14.08
14.54
14.35
13.46
11.70
9.14
6.09
3.04
0.39
-1.72
-3.47
-5.23
-7.44
-10.43
-14.41
-19.36
-25.02
-30.87
-36.15
-39.94
-41.44
-40.10
-35.86
-29.13
-20.70
-11.45
-2.21
6.42
14.15
20.87
26.69
31.79
36.41
40.88
45.52
50.56
56.08
61.97
68.03
74.05
79.91
85.63
91.27
96.88
102.31
107.28
111.41
114.43
116.25
117.10
117.36
117.44
117.65
118.06
118.58
119.00
119.15
118.97
118.58
118.12
117.76
117.55
117.37
116.95
115.93
113.93
110.69
106.05
100.06
92.93
84.98
76.57
68.11
59.98
52.44
45.64
39.48
33.67
27.81
21.51
14.39
5.98
-4.31
-17.17
-33.16
-52.26
-73.55
-95.15
-114.70
-129.92
-139.42
-142.99
-141.53
-136.59
-129.76
-122.33
-115.13
-108.71
-103.40
-99.42
-96.75
-95.10
-93.87
-92.39
-90.06
-86.66
-82.43
-77.95
-73.88
-70.64
-68.27
-66.39
-64.31
-61.39
-57.26
-52.12
-46.71
-42.26
-40.04
-40.98
-45.24
-52.09
-60.08
-67.38
-72.29
-73.65
-71.02
-64.71
-55.65
-45.12
-34.47
-24.86
-17.17
-11.82
-8.83
-7.86
-8.30
-9.41
-10.46
-11.00
-10.93
-10.47
-9.94
-9.53
-9.19
-8.52
-7.11
-4.74
-1.62
1.72
4.60
6.51
7.28
7.10
6.31
5.25
4.05
2.67
0.95
-1.20
-3.76
-6.59
-9.54
-12.50
-15.55
-18.84
-22.53
-26.72
-31.41
-36.53
-41.90
-47.22
-52.04
-55.72
-57.58
-57.13
-54.14
-48.87
-41.94
-34.23
-26.64
-19.94
-14.68
-11.08
-9.23
-8.99
-10.13
-12.39
-15.36
-18.57
-21.42
-23.28
-23.56
-22.02
-18.77
-14.30
-9.26
-4.28
0.18
3.89
6.72
8.64
9.60
9.66
8.93
7.62
6.01
4.31
2.70
1.24
-0.11
-1.52
-3.31
-5.88
-9.60
-14.65
-20.85
-27.61
-34.05
-39.11
-41.93
-42.00
-39.34
-34.43
-28.12
-21.37
-15.02
-9.71
-5.80
-3.42
-2.60
-3.24
-5.19
-8.19
-11.82
-15.55
-18.79
-20.95
-21.63
-20.75
-18.56
-15.59
-12.47
-9.68
-7.47
-5.92
-5.01
-4.76
-5.28
-6.62
-8.66
-11.05
-13.32
-15.10
-16.32
-17.24
-18.37
-20.23
-23.26
-27.49
-32.68
-38.15
-42.99
-46.12
-46.63
-43.97
-38.15
-29.81
-19.99
-9.93
-0.69
6.95
12.66
16.35
18.18
18.40
17.32
15.35
12.98
10.79
9.30
8.91
9.78
11.70
14.29
17.02
19.45
21.32
22.60
23.26
23.29
22.53
20.84
18.14
14.58
10.48
6.19
1.98
-2.12
-6.30
-10.87
-16.13
-22.20
-28.90
-35.74
-41.88
-46.34
-48.15
-46.65
-41.65
-33.51
-23.13
-11.72
-0.57
9.24
16.97
22.33
25.36
26.39
25.82
24.15
21.91
19.64
17.85
16.92
16.96
17.86
19.34
21.03
22.65
24.00
24.96
25.37
25.08
23.94
21.85
18.85
15.15
11.10
7.12
3.63
0.84
-1.28
-3.07
-5.06
-7.86
-11.87
-17.13
-23.27
-29.41
-34.40
-37.03
-36.34
-31.92
-24.09
-13.82
-2.46
8.62
18.38
26.25
32.04
35.76
37.52
37.50
36.01
33.61
31.09
29.30
28.83
29.87
32.17
35.10
38.00
40.32
41.80
42.41
42.21
41.28
39.61
37.21
34.11
30.44
26.42
22.33
18.37
14.63
11.07
7.45
3.47
-1.23
-6.83
-13.26
-20.02
-26.17
-30.55
-31.99
-29.71
-23.62
-14.38
-3.25
8.25
18.67
26.97
32.57
35.41
35.69
33.87
30.53
26.32
21.99
18.33
15.97
15.28
16.27
18.54
21.52
24.57
27.20
29.13
30.19
30.27
29.29
27.21
24.08
20.12
15.65
11.05
6.63
2.52
-1.25
-4.91
-8.82
-13.41
-18.96
-25.39
-32.13
-38.13
-42.09
-42.84
-39.77
-32.94
-23.18
-11.70
0.11
11.03
20.20
27.07
31.42
33.28
32.90
30.74
27.41
23.70
20.46
18.40
18.00
19.27
21.80
24.80
27.42
29.00
29.33
28.55
27.05
25.15
22.95
20.31
17.03
13.09
8.71
4.34
0.48
-2.61
-4.98
-7.02
-9.30
-12.40
-16.74
-22.45
-29.29
-36.67
-43.67
-49.15
-51.94
-51.12
-46.27
-37.61
-26.05
-12.95
0.21
12.17
22.13
29.75
35.06
38.24
39.50
39.13
37.53
35.32
33.27
32.10
32.30
33.86
36.38
39.10
41.23
42.24
41.90
40.38
38.02
35.19
32.13
28.90
25.45
21.72
17.72
13.56
9.46
5.63
2.19
-0.87
-3.67
-6.44
-9.44
-12.90
-17.08
-22.17
-28.23
-35.07
-42.08
-48.29
-52.46
-53.43
-50.51
-43.72
-33.85
-22.23
-10.37
0.51
9.62
16.69
21.72
24.87
26.31
26.31
25.26
23.75
22.46
21.99
22.68
24.52
27.19
30.20
33.08
35.44
37.12
38.07
38.40
38.23
37.67
36.77
35.47
33.69
31.40
28.70
25.83
23.07
20.63
18.52
16.50
14.25
11.47
8.09
4.25
0.31
-3.41
-6.75
-9.77
-12.82
-16.34
-20.74
-26.25
-32.74
-39.67
-46.07
-50.73
-52.45
-50.38
-44.34
-34.92
-23.32
-11.09
0.36
10.02
17.46
22.73
26.15
28.09
28.87
28.73
27.97
27.00
26.34
26.51
27.87
30.45
33.94
37.76
41.25
43.89
45.40
45.77
45.16
43.81
41.89
39.53
36.81
33.86
30.80
27.80
25.00
22.42
20.01
17.65
15.11
12.27
9.03
5.41
1.54
-2.32
-5.94
-9.13
-11.85
-14.22
-16.48
-18.93
-21.88
-25.53
-30.06
-35.44
-41.47
-47.61
-53.02
-56.62
-57.39
-54.68
-48.47
-39.45
-28.84
-18.07
-8.33
-0.42
5.38
9.12
11.03
11.35
10.35
8.45
6.20
4.35
3.59
4.35
6.61
9.87
13.43
16.57
18.94
20.47
21.37
21.83
21.94
21.55
20.53
18.82
16.52
13.94
11.44
9.31
7.67
6.40
5.23
3.79
1.80
-0.86
-4.06
-7.54
-10.92
-13.93
-16.51
-18.84
-21.25
-24.17
-27.94
-32.71
-38.31
-44.20
-49.50
-53.14
-54.17
-52.00
-46.67
-38.85
-29.72
-20.63
-12.68
-6.43
-1.82
1.75
5.07
8.81
13.29
18.49
24.17
30.07
36.03
41.97
47.78
53.20
57.81
61.12
62.79
62.72
61.05
58.12
54.26
49.77
44.79
39.42
33.70
27.71
21.62
15.68
10.12
5.17
0.96
-2.54
-5.54
-8.32
-11.18
-14.30
-17.63
-20.95
-23.96
-26.48
-28.53
-30.38
-32.50
-35.35
-39.28
-44.37
-50.37
-56.71
-62.49
-66.65
-68.22
-66.55
-61.50
-53.55
-43.73
-33.34
-23.67
-15.71
-9.97
-6.48
-4.87
-4.60
-5.10
-5.92
-6.76
-7.43
-7.72
-7.42
-6.30
-4.26
-1.39
1.96
5.28
8.08
10.02
11.03
11.25
10.93
10.29
9.44
8.44
7.33
6.19
5.11
4.21
3.54
2.98
2.34
1.38
-0.13
-2.26
-4.92
-7.89
-10.83
-13.47
-15.65
-17.42
-19.06
-21.05
-23.88
-27.88
-32.99
-38.70
-44.01
-47.73
-48.74
-46.42
-40.81
-32.67
-23.22
-13.83
-5.61
0.83
5.38
8.30
10.02
10.89
11.11
10.79
10.09
9.32
8.86
9.07
10.08
11.80
13.93
16.21
18.46
20.65
22.75
24.61
26.00
26.59
26.19
24.85
22.87
20.73
18.91
17.71
17.22
17.28
17.59
17.78
17.50
16.54
14.87
12.65
10.20
7.85
5.87
4.32
3.00
1.53
-0.61
-3.82
-8.20
-13.44
-18.83
-23.35
-25.99
-26.08
-23.45
-18.61
-12.58
-6.63
-1.93
0.73
1.07
-0.66
-3.95
-8.12
-12.57
-16.73
-20.13
-22.37
-23.20
-22.60
-20.72
-17.97
-14.78
-11.53
-8.54
-5.99
-4.01
-2.67
-1.95
-1.75
-1.94
-2.40
-3.09
-4.00
-5.13
-6.42
-7.79
-9.09
-10.26
-11.30
-12.28
-13.38
-14.77
-16.64
-19.15
-22.29
-25.80
-29.05
-31.20
-31.39
-29.05
-24.15
-17.20
-9.14
-1.07
6.09
11.79
15.82
18.23
19.13
18.58
16.60
13.32
9.11
4.60
0.56
-2.32
-3.67
-3.59
-2.55
-1.26
-0.37
-0.25
-0.91
-2.08
-3.38
-4.45
-5.12
-5.45
-5.64
-5.99
-6.76
-8.04
-9.81
-11.90
-14.12
-16.28
-18.33
-20.27
-22.22
-24.40
-27.02
-30.26
-34.09
-38.13
-41.65
-43.69
-43.34
-40.05
-33.89
-25.54
-16.10
-6.73
1.65
8.50
13.68
17.31
19.61
20.79
21.13
20.93
20.50
20.25
20.53
21.59
23.48
26.03
28.84
31.35
33.04
33.51
32.64
30.58
27.68
24.35
20.89
17.47
14.12
10.85
7.70
4.79
2.26
0.21
-1.38
-2.69
-3.96
-5.50
-7.51
-10.14
-13.46
-17.45
-22.03
-26.87
-31.44
-34.98
-36.65
-35.75
-32.01
-25.73
-17.73
-9.20
-1.27
5.21
9.87
12.76
14.18
14.45
13.85
12.59
10.91
9.23
8.03
7.76
8.58
10.30
12.41
14.26
15.38
15.58
15.03
14.06
13.00
12.00
11.01
9.88
8.43
6.59
4.38
1.89
-0.71
-3.27
-5.63
-7.69
-9.44
-10.97
-12.50
-14.29
-16.62
-19.63
-23.28
-27.25
-30.97
-33.68
-34.55
-33.03
-28.95
-22.67
-15.02
-7.01
0.45
6.80
11.85
15.65
18.24
19.60
19.59
18.18
15.58
12.45
9.66
8.08
8.22
10.02
12.89
15.94
18.31
19.47
19.35
18.26
16.68
14.99
13.36
11.71
9.80
7.45
4.66
1.58
-1.44
-4.10
-6.25
-7.96
-9.53
-11.38
-13.89
-17.26
-21.51
-26.39
-31.49
-36.17
-39.71
-41.38
-40.61
-37.21
-31.42
-23.97
-15.84
-7.99
-1.17
4.29
8.32
11.07
12.71
13.41
13.35
12.81
12.12
11.73
12.02
13.25
15.47
18.52
22.00
25.45
28.41
30.52
31.56
31.52
30.49
28.70
26.39
23.82
21.18
18.62
16.22
14.03
12.07
10.34
8.76
7.26
5.74
4.12
2.31
0.25
-2.22
-5.31
-9.24
-14.16
-19.93
-26.03
-31.57
-35.48
-36.79
-34.96
-30.14
-23.12
-15.10
-7.25
-0.45
4.99
9.11
12.19
14.43
15.90
16.63
16.74
16.59
16.68
17.44
19.08
21.50
24.32
27.06
29.33
30.84
31.49
31.28
30.35
28.88
27.10
25.16
23.16
21.09
18.94
16.70
14.44
12.34
10.51
8.98
7.62
6.19
4.49
2.39
-0.07
-2.78
-5.60
-8.39
-11.02
-13.40
-15.43
-17.20
-18.95
-21.07
-23.91
-27.52
-31.46
-34.84
-36.56
-35.68
-31.84
-25.33
-17.02
-8.09
0.35
7.45
12.79
16.25
18.04
18.47
17.93
16.83
15.56
14.52
14.01
14.29
15.42
17.31
19.71
22.20
24.34
25.77
26.27
25.86
24.72
23.12
21.34
19.59
17.94
16.40
14.96
13.62
12.35
11.14
9.92
8.67
7.39
6.16
5.10
4.24
3.51
2.69
1.49
-0.27
-2.62
-5.34
-8.12
-10.65
-12.87
-14.93
-17.17
-19.93
-23.47
-27.76
-32.54
-37.34
-41.54
-44.49
-45.64
-44.61
-41.40
-36.40
-30.35
-24.18
-18.71
-14.45
-11.48
-9.66
-8.83
-9.09
-10.76
-14.12
-19.11
-25.06
-30.86
-35.33
-37.68
-37.84
-36.39
-34.21
-32.13
-30.58
-29.65
-29.18
-29.00
-28.95
-28.96
-28.94
-28.83
-28.60
-28.34
-28.18
-28.24
-28.52
-28.89
-29.10
-28.89
-28.08
-26.57
-24.35
-21.44
-17.83
-13.57
-8.75
-3.51
1.99
7.60
13.22
18.74
23.96
28.59
32.25
34.65
35.82
36.22
36.72
38.40
42.19
48.56
57.37
67.91
79.05
89.63
98.73
105.82
110.75
113.52
114.19
112.82
109.74
105.72
102.04
100.20
101.41
105.85
112.42
118.89
122.71
121.85
115.52
104.23
89.37
72.46
54.74
36.97
19.67
3.41
-11.06
-22.93
-31.73
-37.54
-41.14
-43.59
-45.78
-48.03
-50.06
-51.30
-51.34
-50.32
-48.81
-47.46
-46.52
-45.73
-44.52
-42.57
-40.30
-38.76
-39.14
-41.97
-46.68
-51.67
-55.00
-55.28
-52.26
-46.81
-40.45
-34.60
-30.13
-27.14
-25.30
-24.20
-23.70
-23.88
-24.97
-27.01
-29.72
-32.44
-34.43
-35.01
-33.93
-31.43
-28.13
-24.80
-22.01
-19.95
-18.47
-17.26
-16.08
-14.93
-13.98
-13.43
-13.35
-13.63
-14.07
-14.45
-14.69
-14.82
-14.95
-15.14
-15.42
-15.78
-16.25
-16.94
-18.03
-19.73
-22.21
-25.44
-29.15
-32.77
-35.59
-36.85
-36.01
-32.89
-27.71
-21.07
-13.68
-6.34
0.28
5.60
9.17
10.70
10.13
7.70
3.92
-0.37
-4.31
-7.13
-8.43
-8.21
-6.80
-4.68
-2.34
-0.13
1.76
3.24
4.31
4.99
5.28
5.21
4.74
3.84
2.49
0.75
-1.26
-3.37
-5.43
-7.41
-9.43
-11.71
-14.47
-17.78
-21.46
-25.06
-27.89
-29.26
-28.59
-25.66
-20.65
-14.15
-6.98
-0.01
6.04
10.68
13.70
15.10
15.05
13.80
11.72
9.26
6.88
5.06
4.13
4.29
5.50
7.54
10.11
12.83
15.31
17.24
18.37
18.55
17.74
16.01
13.59
10.81
8.01
5.46
3.21
1.10
-1.19
-4.02
-7.53
-11.66
-16.00
-19.93
-22.69
-23.62
-22.20
-18.32
-12.32
-4.99
2.61
9.44
14.75
18.22
19.97
20.31
19.60
18.09
15.93
13.31
10.54
8.05
6.27
5.48
5.63
6.39
7.30
7.90
7.90
7.18
5.74
3.62
0.92
-2.23
-5.63
-9.03
-12.20
-15.00
-17.49
-19.92
-22.64
-25.98
-30.08
-34.73
-39.45
-43.50
-46.08
-46.55
-44.59
-40.30
-34.18
-26.99
-19.59
-12.74
-7.01
-2.70
0.09
1.44
1.53
0.62
-0.99
-2.96
-4.86
-6.29
-6.88
-6.42
-4.89
-2.47
0.44
3.37
5.87
7.62
8.45
8.36
7.45
5.86
3.80
1.52
-0.69
-2.53
-3.84
-4.69
-5.40
-6.40
-8.09
-10.55
-13.49
-16.20
-17.80
-17.52
-14.91
-9.99
-3.28
4.35
11.93
18.58
23.78
27.34
29.38
30.19
30.02
29.04
27.43
25.41
23.35
21.74
20.96
21.11
21.94
22.92
23.51
23.41
22.72
21.74
20.78
19.91
18.88
17.28
14.81
11.49
7.72
4.09
1.05
-1.23
-3.02
-4.82
-7.15
-10.27
-14.06
-18.10
-21.74
-24.28
-25.19
-24.06
-20.79
-15.52
-8.71
-1.09
6.48
13.15
18.28
21.57
23.03
22.99
21.93
20.34
18.70
17.30
16.38
16.03
16.31
17.23
18.78
20.77
22.90
24.68
25.67
25.54
24.20
21.88
18.93
15.74
12.56
9.56
6.85
4.45
2.35
0.40
-1.71
-4.37
-7.84
-12.05
-16.43
-20.08
-21.96
-21.33
-17.95
-12.20
-4.95
2.83
10.17
16.40
21.10
24.05
25.20
24.68
22.77
20.00
17.03
14.52
12.97
12.62
13.36
14.79
16.35
17.56
18.09
17.96
17.33
16.43
15.42
14.24
12.74
10.77
8.32
5.58
2.86
0.42
-1.62
-3.38
-5.15
-7.30
-10.12
-13.69
-17.85
-22.15
-25.90
-28.35
-28.79
-26.79
-22.36
-15.93
-8.33
-0.50
6.67
12.56
16.86
19.52
20.69
20.56
19.40
17.57
15.47
13.55
12.23
11.77
12.20
13.38
14.96
16.59
17.91
18.69
18.81
18.23
16.97
15.09
12.67
9.85
6.84
3.91
1.33
-0.75
-2.31
-3.55
-4.71
-6.09
-7.85
-10.07
-12.77
-15.88
-19.29
-22.80
-26.01
-28.39
-29.32
-28.29
-25.09
-19.89
-13.28
-6.02
1.08
7.39
12.46
16.06
18.07
18.48
17.45
15.30
12.57
9.91
7.94
7.03
7.27
8.43
10.05
11.68
13.00
13.82
14.11
13.94
13.37
12.52
11.49
10.40
9.33
8.31
7.27
6.07
4.64
2.96
1.18
-0.55
-2.09
-3.44
-4.74
-6.25
-8.26
-11.01
-14.56
-18.77
-23.23
-27.30
-30.22
-31.29
-30.09
-26.63
-21.30
-14.85
-8.13
-1.94
3.14
6.75
8.81
9.48
9.04
7.85
6.25
4.52
2.97
1.84
1.40
1.76
2.87
4.48
6.19
7.60
8.42
8.56
8.11
7.26
6.27
5.34
4.58
4.01
3.51
2.88
1.91
0.48
-1.33
-3.29
-5.02
-6.09
-6.10
-4.80
-2.10
1.83
6.59
11.64
16.45
20.48
23.37
24.86
24.86
23.44
20.89
17.68
14.44
11.78
10.13
9.67
10.28
11.66
13.41
15.11
16.41
17.06
16.94
16.10
14.74
13.12
11.51
10.12
8.97
8.00
7.08
6.21
5.46
5.07
5.19
5.87
6.97
8.17
9.14
9.63
9.51
8.76
7.40
5.43
2.84
-0.37
-4.19
-8.56
-13.40
-18.70
-24.38
-30.28
-36.04
-41.05
-44.57
-45.93
-44.72
-41.05
-35.49
-28.95
-22.44
-16.73
-12.25
-9.05
-7.01
-5.90
-5.55
-5.82
-6.51
-7.34
-8.01
-8.18
-7.67
-6.44
-4.62
-2.49
-0.38
1.38
2.58
3.14
3.12
2.69
2.08
1.49
1.02
0.68
0.39
0.04
-0.48
-1.22
-2.13
-3.12
-4.07
-4.83
-5.35
-5.71
-6.09
-6.82
-8.24
-10.60
-13.99
-18.24
-22.93
-27.45
-31.06
-33.05
-32.91
-30.45
-25.92
-19.91
-13.35
-7.12
-1.94
1.81
4.16
5.32
5.66
5.46
4.96
4.37
3.90
3.80
4.23
5.24
6.71
8.34
9.84
11.00
11.75
12.16
12.34
12.28
11.91
11.09
9.76
7.99
5.99
4.07
2.45
1.25
0.39
-0.30
-1.03
-2.01
-3.37
-5.15
-7.31
-9.74
-12.33
-15.02
-17.83
-20.84
-24.08
-27.51
-30.81
-33.49
-34.92
-34.57
-32.18
-27.84
-22.07
-15.67
-9.55
-4.47
-0.90
1.04
1.51
0.88
-0.51
-2.33
-4.23
-5.88
-6.88
-6.89
-5.75
-3.59
-0.81
2.01
4.40
6.05
6.92
7.15
6.93
6.40
5.63
4.67
3.58
2.42
1.28
0.21
-0.73
-1.53
-2.16
-2.63
-3.03
-3.54
-4.37
-5.78
-7.92
-10.79
-14.26
-18.02
-21.64
-24.54
-26.12
-25.86
-23.46
-19.05
-13.19
-6.71
-0.55
4.59
8.34
10.63
11.63
11.52
10.49
8.75
6.62
4.55
3.02
2.48
3.14
4.98
7.66
10.70
13.56
15.76
16.97
17.10
16.32
14.95
13.36
11.75
10.17
8.47
6.53
4.30
1.90
-0.49
-2.71
-4.74
-6.69
-8.71
-10.94
-13.47
-16.37
-19.68
-23.44
-27.58
-31.84
-35.69
-38.42
-39.27
-37.70
-33.55
-27.17
-19.36
-11.15
-3.60
2.47
6.62
8.80
9.27
8.47
6.87
4.87
2.83
1.03
-0.19
-0.53
0.22
2.09
4.81
7.94
10.90
13.23
14.64
15.12
14.86
14.11
13.16
12.15
11.17
10.21
9.24
8.21
7.03
5.64
3.94
1.90
-0.43
-2.95
-5.51
-8.03
-10.52
-13.21
-16.37
-20.24
-24.84
-29.86
-34.61
-38.22
-39.76
-38.57
-34.42
-27.64
-19.09
-9.90
-1.18
6.19
11.75
15.41
17.31
17.70
16.87
15.20
13.17
11.37
10.39
10.63
12.13
14.61
17.58
20.51
23.01
24.88
26.09
26.63
26.50
25.70
24.21
22.17
19.80
17.38
15.16
13.25
11.58
9.99
8.32
6.45
4.36
2.11
-0.26
-2.75
-5.40
-8.30
-11.55
-15.24
-19.50
-24.34
-29.59
-34.80
-39.21
-41.87
-41.88
-38.68
-32.31
-23.36
-12.91
-2.21
7.55
15.45
20.95
23.89
24.49
23.28
21.02
18.57
16.68
15.88
16.41
18.18
20.86
24.06
27.39
30.53
33.26
35.34
36.57
36.77
35.89
34.04
31.49
28.65
25.87
23.33
21.05
18.91
16.77
14.52
12.12
9.55
6.78
3.78
0.57
-2.69
-5.80
-8.60
-11.15
-13.73
-16.79
-20.67
-25.36
-30.41
-34.93
-37.85
-38.26
-35.66
-30.08
-22.10
-12.63
-2.77
6.47
14.21
19.92
23.33
24.50
23.74
21.62
18.84
16.16
14.25
13.59
14.40
16.62
19.95
23.86
27.74
30.97
33.11
33.94
33.56
32.23
30.26
27.95
25.48
22.97
20.54
18.30
16.32
14.57
12.86
10.99
8.74
6.11
3.26
0.49
-1.98
-4.12
-6.15
-8.50
-11.65
-15.96
-21.48
-27.86
-34.42
-40.22
-44.20
-45.48
-43.52
-38.33
-30.48
-21.03
-11.21
-2.16
5.25
10.59
13.79
14.99
14.54
12.88
10.60
8.39
6.91
6.68
7.92
10.52
14.07
18.01
21.80
25.01
27.41
28.92
29.53
29.29
28.25
26.47
24.10
21.35
18.48
15.75
13.31
11.16
9.14
7.02
4.63
1.93
-0.94
-3.78
-6.41
-8.81
-11.09
-13.55
-16.50
-20.23
-24.91
-30.48
-36.54
-42.29
-46.65
-48.42
-46.76
-41.41
-32.88
-22.34
-11.21
-0.83
7.87
14.39
18.63
20.68
20.77
19.23
16.54
13.37
10.46
8.55
8.14
9.35
11.93
15.32
18.88
22.07
24.56
26.23
27.06
27.08
26.33
24.84
22.76
20.32
17.82
15.48
13.42
11.57
9.74
7.71
5.33
2.64
-0.20
-2.93
-5.39
-7.55
-9.61
-11.89
-14.73
-18.35
-22.80
-27.92
-33.37
-38.60
-42.85
-45.22
-44.89
-41.32
-34.57
-25.33
-14.87
-4.58
4.34
11.22
15.89
18.58
19.65
19.42
18.16
16.16
13.82
11.70
10.38
10.32
11.67
14.21
17.50
20.90
23.84
25.89
26.84
26.64
25.46
23.52
21.12
18.52
15.97
13.52
11.10
8.53
5.65
2.45
-0.86
-4.01
-6.72
-8.88
-10.63
-12.24
-14.03
-16.23
-18.97
-22.24
-25.86
-29.35
-31.84
-32.25
-29.50
-23.03
-13.13
-1.00
11.58
22.75
31.14
36.15
37.95
37.14
34.43
30.35
25.26
19.45
13.30
7.40
2.50
-0.75
-1.93
-1.14
1.11
4.05
6.94
9.29
10.95
11.94
12.37
12.31
11.79
10.81
9.50
7.96
6.31
4.61
2.81
0.84
-1.31
-3.59
-5.83
-7.84
-9.46
-10.69
-11.63
-12.58
-13.92
-16.04
-19.13
-23.10
-27.47
-31.45
-34.07
-34.46
-32.07
-26.86
-19.40
-10.73
-2.10
5.34
10.88
14.28
15.78
15.87
14.98
13.45
11.54
9.50
7.68
6.54
6.45
7.59
9.79
12.63
15.54
18.07
19.88
20.85
20.94
20.15
18.54
16.23
13.41
10.38
7.39
4.60
2.03
-0.41
-2.77
-5.08
-7.22
-9.14
-10.87
-12.60
-14.65
-17.32
-20.81
-25.09
-29.85
-34.53
-38.37
-40.55
-40.39
-37.56
-32.18
-24.88
-16.63
-8.54
-1.50
3.94
7.63
9.78
10.67
10.60
9.78
8.42
6.78
5.31
4.51
4.78
6.26
8.73
11.68
14.52
16.76
18.16
18.72
18.61
18.00
16.98
15.57
13.77
11.57
9.06
6.38
3.78
1.48
-0.41
-1.86
-3.02
-4.15
-5.52
-7.42
-10.04
-13.42
-17.39
-21.54
-25.23
-27.69
-28.22
-26.38
-22.22
-16.25
-9.33
-2.43
3.63
8.30
11.32
12.63
12.34
10.65
7.97
4.85
1.98
0.00
-0.68
0.02
1.84
4.29
6.86
9.14
10.92
12.11
12.75
12.80
12.19
10.84
8.68
5.86
2.67
-0.43
-3.08
-5.06
-6.45
-7.54
-8.69
-10.21
-12.24
-14.83
-17.89
-21.22
-24.38
-26.73
-27.48
-25.94
-21.88
-15.67
-8.26
-0.92
5.26
9.64
12.10
12.91
12.44
10.97
8.71
5.87
2.83
0.14
-1.63
-2.09
-1.19
0.70
2.94
4.93
6.28
6.96
7.13
7.03
6.72
6.04
4.69
2.45
-0.65
-4.27
-7.86
-10.90
-13.11
-14.54
-15.50
-16.44
-17.78
-19.85
-22.79
-26.55
-30.84
-35.05
-38.37
-39.94
-39.08
-35.56
-29.72
-22.38
-14.54
-7.14
-0.80
4.16
7.66
9.70
10.30
9.54
7.67
5.13
2.51
0.42
-0.67
-0.56
0.63
2.56
4.76
6.78
8.28
9.08
9.18
8.71
7.81
6.64
5.25
3.67
1.91
0.04
-1.84
-3.60
-5.14
-6.41
-7.48
-8.49
-9.66
-11.18
-13.24
-15.90
-19.13
-22.73
-26.33
-29.39
-31.33
-31.55
-29.70
-25.72
-20.01
-13.28
-6.41
-0.23
4.75
8.32
10.57
11.69
11.87
11.27
10.03
8.41
6.82
5.75
5.59
6.54
8.46
10.94
13.48
15.55
16.82
17.10
16.41
14.93
12.92
10.70
8.56
6.64
4.98
3.50
2.05
0.56
-1.02
-2.61
-4.13
-5.46
-6.54
-7.45
-8.40
-9.78
-11.98
-15.26
-19.54
-24.34
-28.85
-32.08
-33.17
-31.59
-27.30
-20.75
-12.81
-4.53
3.12
9.41
13.98
16.81
18.15
18.28
17.56
16.33
14.97
13.96
13.70
14.49
16.38
19.12
22.29
25.34
27.85
29.56
30.44
30.69
30.59
30.45
30.40
30.45
30.47
30.30
29.89
29.34
28.89
28.79
29.15
29.87
30.61
30.84
29.92
27.31
22.71
16.17
8.09
-0.87
-9.91
-18.20
-24.99
-29.55
-31.34
-30.07
-25.96
-19.77
-12.82
-6.71
-2.86
-2.19
-4.80
-9.97
-16.45
-22.79
-27.83
-30.90
-31.97
-31.54
-30.35
-29.18
-28.59
-28.91
-30.19
-32.25
-34.82
-37.46
-39.78
-41.49
-42.49
-42.95
-43.12
-43.27
-43.44
-43.51
-43.25
-42.50
-41.29
-39.84
-38.40
-37.14
-35.98
-34.62
-32.59
-29.44
-24.86
-18.75
-11.20
-2.51
6.82
16.14
24.74
31.96
37.38
40.85
42.53
42.71
41.77
40.08
38.00
35.90
34.12
32.96
32.54
32.84
33.68
34.81
35.98
37.00
37.74
38.09
38.02
37.52
36.67
35.59
34.49
33.56
33.02
33.00
33.50
34.42
35.42
36.07
35.93
34.74
32.52
29.68
26.86
24.80
23.94
24.39
25.80
27.58
29.09
29.92
29.91
29.06
27.38
24.78
21.15
16.55
11.36
6.31
2.29
0.03
-0.12
1.63
4.63
7.99
10.84
12.49
12.56
10.99
8.04
4.20
0.18
-3.34
-5.84
-7.13
-7.43
-7.15
-6.87
-7.06
-8.04
-9.93
-12.69
-16.07
-19.62
-22.67
-24.41
-24.19
-21.77
-17.48
-12.15
-6.86
-2.52
0.39
1.82
2.04
1.41
0.22
-1.31
-2.87
-4.11
-4.57
-3.96
-2.24
0.25
2.88
4.99
6.09
6.05
5.03
3.36
1.42
-0.56
-2.49
-4.43
-6.50
-8.87
-11.66
-15.02
-19.01
-23.59
-28.56
-33.47
-37.74
-40.66
-41.57
-40.02
-35.94
-29.69
-22.06
-14.06
-6.69
-0.72
3.43
5.70
6.34
5.70
4.20
2.17
-0.05
-2.12
-3.70
-4.50
-4.37
-3.34
-1.65
0.35
2.24
3.77
4.79
5.36
5.56
5.39
4.64
3.01
0.25
-3.60
-8.15
-12.72
-16.67
-19.54
-21.34
-22.43
-23.36
-24.67
-26.71
-29.63
-33.34
-37.57
-41.82
-45.38
-47.38
-47.11
-44.13
-38.61
-31.18
-22.84
-14.61
-7.23
-1.15
3.59
7.06
9.42
10.80
11.29
11.05
10.30
9.36
8.54
8.20
8.52
9.62
11.37
13.51
15.71
17.61
18.93
19.51
19.32
18.39
16.90
15.11
13.22
11.34
9.48
7.45
5.13
2.45
-0.51
-3.56
-6.51
-9.24
-11.79
-14.29
-16.90
-19.69
-22.72
-25.95
-29.39
-32.91
-36.21
-38.75
-39.82
-38.73
-35.07
-28.97
-21.12
-12.59
-4.52
2.26
7.42
11.01
13.37
14.78
15.43
15.42
14.88
14.02
13.14
12.56
12.49
13.00
14.01
15.34
16.83
18.33
19.76
21.05
22.11
22.84
23.09
22.70
21.60
19.87
17.63
15.12
12.57
10.14
7.82
5.53
3.18
0.70
-1.82
-4.31
-6.66
-8.89
-11.13
-13.54
-16.31
-19.45
-22.83
-26.10
-28.73
-30.09
-29.67
-27.15
-22.53
-16.24
-8.95
-1.54
5.25
10.86
15.06
17.88
19.52
20.18
20.07
19.35
18.28
17.16
16.35
16.16
16.70
17.87
19.38
20.88
22.08
22.77
22.89
22.40
21.29
19.59
17.39
14.91
12.46
10.36
8.86
7.96
7.49
7.17
6.68
5.80
4.44
2.66
0.64
-1.38
-3.14
-4.53
-5.58
-6.54
-7.70
-9.38
-11.71
-14.63
-17.85
-20.91
-23.29
-24.41
-23.84
-21.36
-17.14
-11.70
-5.83
-0.42
3.93
6.94
8.75
9.66
9.98
9.88
9.39
8.48
7.20
5.77
4.52
3.81
3.95
4.97
6.70
8.74
10.67
12.12
12.90
12.97
12.35
11.14
9.42
7.37
5.17
3.06
1.23
-0.22
-1.30
-2.15
-2.94
-3.88
-5.11
-6.75
-8.72
-10.80
-12.64
-13.94
-14.54
-14.58
-14.48
-14.77
-15.86
-17.88
-20.56
-23.34
-25.55
-26.61
-26.19
-24.22
-20.86
-16.39
-11.26
-6.01
-1.20
2.64
5.15
6.27
6.14
5.13
3.61
1.91
0.28
-1.03
-1.79
-1.79
-0.96
0.58
2.52
4.51
6.21
7.52
8.46
9.13
9.56
9.68
9.37
8.55
7.31
5.89
4.53
3.46
2.75
2.34
2.14
1.98
1.71
1.13
0.02
-1.80
-4.28
-7.19
-10.13
-12.71
-14.75
-16.30
-17.64
-19.05
-20.66
-22.42
-24.06
-25.19
-25.39
-24.31
-21.71
-17.60
-12.23
-6.09
0.14
5.79
10.32
13.45
15.09
15.33
14.32
12.25
9.36
6.05
2.77
0.03
-1.78
-2.48
-2.13
-1.01
0.56
2.20
3.64
4.72
5.36
5.56
5.33
4.75
3.84
2.62
1.08
-0.74
-2.73
-4.70
-6.40
-7.69
-8.58
-9.19
-9.79
-10.54
-11.48
-12.43
-13.20
-13.64
-13.91
-14.30
-15.19
-16.86
-19.27
-22.08
-24.75
-26.78
-27.72
-27.39
-25.72
-22.79
-18.74
-13.83
-8.48
-3.21
1.38
4.79
6.75
7.28
6.64
5.21
3.36
1.36
-0.58
-2.32
-3.66
-4.42
-4.42
-3.66
-2.30
-0.63
1.04
2.49
3.63
4.48
5.10
5.55
5.82
5.93
5.90
5.79
5.68
5.58
5.46
5.16
4.49
3.34
1.75
-0.13
-2.02
-3.69
-5.05
-6.17
-7.33
-8.80
-10.89
-13.66
-17.08
-20.92
-24.75
-28.05
-30.16
-30.53
-28.89
-25.37
-20.49
-15.04
-9.83
-5.48
-2.31
-0.41
0.30
0.03
-0.98
-2.39
-3.87
-5.09
-5.85
-6.06
-5.72
-4.89
-3.67
-2.15
-0.46
1.24
2.80
4.11
5.10
5.76
6.00
5.75
4.91
3.42
1.34
-1.16
-3.83
-6.45
-8.83
-10.91
-12.75
-14.48
-16.21
-17.94
-19.59
-21.05
-22.36
-23.72
-25.52
-28.14
-31.80
-36.37
-41.35
-45.96
-49.33
-50.75
-49.75
-46.24
-40.50
-33.16
-25.10
-17.21
-10.22
-4.56
-0.32
2.58
4.29
4.99
4.82
4.01
2.89
1.90
1.46
1.88
3.23
5.35
7.94
10.68
13.31
15.70
17.71
19.23
20.09
20.13
19.32
17.81
15.94
14.06
12.45
11.17
10.06
8.86
7.39
5.62
3.71
1.87
0.24
-1.13
-2.35
-3.61
-5.15
-7.17
-9.85
-13.23
-17.17
-21.23
-24.69
-26.67
-26.41
-23.51
-18.08
-10.77
-2.53
5.64
12.95
18.86
23.17
25.85
26.98
26.70
25.27
23.07
20.59
18.41
17.02
16.71
17.53
19.28
21.61
24.08
26.30
27.97
28.83
28.77
27.73
25.82
23.19
20.14
16.95
13.88
11.06
8.51
6.19
4.01
1.94
-0.02
-1.82
-3.44
-4.91
-6.31
-7.80
-9.58
-11.86
-14.85
-18.70
-23.36
-28.48
-33.35
-36.97
-38.31
-36.59
-31.64
-23.92
-14.51
-4.79
3.99
10.94
15.65
18.18
18.87
18.18
16.59
14.62
12.76
11.49
11.15
11.88
13.51
15.64
17.76
19.42
20.41
20.77
20.69
20.40
20.03
19.58
18.97
18.10
16.93
15.46
13.71
11.69
9.43
6.99
4.50
2.14
0.06
-1.68
-3.10
-4.33
-5.58
-7.07
-9.03
-11.69
-15.23
-19.63
-24.59
-29.43
-33.15
-34.69
-33.29
-28.75
-21.55
-12.68
-3.40
5.16
12.13
17.08
19.96
20.91
20.30
18.55
16.12
13.49
11.14
9.50
8.89
9.55
11.53
14.69
18.72
23.16
27.50
31.25
33.96
35.30
35.11
33.46
30.69
27.35
24.04
21.22
19.05
17.26
15.39
13.03
9.98
6.50
3.06
0.20
-1.74
-2.67
-2.72
-2.21
-1.56
-1.22
-1.50
-2.23
-2.56
-1.00
4.08
13.79
28.03
45.27
62.97
78.53
90.08
97.00
99.77
99.29
96.26
90.83
82.75
71.80
58.21
42.85
27.02
12.01
-1.21
-12.24
-20.98
-27.46
-31.65
-33.46
-32.97
-30.59
-27.04
-23.27
-20.15
-18.25
-17.75
-18.51
-20.25
-22.73
-25.83
-29.44
-33.42
-37.49
-41.18
-44.03
-45.66
-46.10
-45.71
-45.20
-45.30
-46.62
-49.35
-53.26
-57.69
-61.65
-63.92
-63.30
-58.98
-50.74
-39.18
-25.60
-11.68
1.03
11.40
18.88
23.49
25.58
25.64
24.20
21.87
19.30
17.16
16.05
16.38
18.26
21.49
25.63
30.11
34.37
37.97
40.64
42.25
42.77
42.23
40.70
38.33
35.33
31.98
28.54
25.18
21.96
18.81
15.64
12.40
9.11
5.85
2.70
-0.34
-3.42
-6.82
-10.91
-16.02
-22.19
-29.05
-35.77
-41.10
-43.84
-43.06
-38.48
-30.62
-20.61
-9.85
0.29
8.86
15.29
19.50
21.62
21.94
20.80
18.62
15.96
13.47
11.77
11.38
12.53
15.05
18.53
22.40
26.10
29.20
31.45
32.74
33.02
32.32
30.71
28.35
25.47
22.35
19.22
16.19
13.29
10.46
7.65
4.84
2.08
-0.52
-2.96
-5.30
-7.71
-10.43
-13.77
-17.91
-22.87
-28.39
-33.78
-37.98
-39.77
-38.19
-32.88
-24.42
-14.09
-3.50
5.99
13.65
19.39
23.53
26.43
28.22
28.81
28.16
26.50
24.39
22.56
21.72
22.25
24.12
26.92
30.11
33.07
35.37
36.73
37.11
36.58
35.28
33.35
30.92
28.09
25.00
21.80
18.61
15.51
12.46
9.31
5.90
2.09
-2.14
-6.71
-11.49
-16.35
-21.27
-26.31
-31.59
-37.12
-42.71
-47.76
-51.40
-52.63
-50.69
-45.37
-37.17
-27.21
-16.90
-7.46
0.35
6.27
10.37
12.87
13.89
13.47
11.80
9.32
6.77
5.02
4.80
6.43
9.69
13.89
18.17
21.71
23.99
24.82
24.30
22.73
20.45
17.81
15.11
12.55
10.23
8.10
5.99
3.72
1.21
-1.53
-4.31
-6.88
-8.99
-10.46
-11.26
-11.52
-11.45
-11.36
-11.50
-11.95
-12.49
-12.61
-11.51
-8.36
-2.49
6.34
17.80
30.99
44.60
57.19
67.45
74.39
77.51
76.73
72.42
65.16
55.66
44.74
33.20
21.85
11.54
3.00
-3.28
-7.21
-9.11
-9.54
-9.05
-7.96
-6.32
-4.08
