1659441133.00
64.000000
-0.00
-0.00
-0.00
-0.00
-0.00
-0.00
-0.00
-0.00
-0.00
-0.00
0.00
0.01
0.01
-0.00
-0.03
-0.05
-0.05
0.00
0.13
0.36
0.66
1.01
1.37
1.72
2.06
2.40
2.79
3.25
3.81
4.44
5.10
5.73
6.32
6.89
7.49
8.22
9.12
10.28
11.57
12.88
14.07
15.08
15.98
16.98
18.31
20.13
22.65
25.66
28.85
31.91
34.68
37.28
40.06
43.53
48.00
53.83
60.61
67.76
74.66
80.99
86.92
93.08
100.28
109.10
119.97
132.23
144.90
156.99
167.99
178.15
188.41
200.38
212.85
227.90
245.78
266.17
287.62
307.26
321.14
325.18
316.50
294.39
260.96
219.46
173.52
125.89
78.16
31.03
-14.90
-58.79
-99.65
-136.66
-170.21
-201.51
-232.32
-264.28
-298.14
-333.23
-367.13
-396.15
-416.10
-423.86
-418.44
-401.52
-376.73
-348.28
-319.54
-292.25
-266.66
-242.23
-218.73
-196.47
-176.14
-158.21
-142.53
-128.29
-114.46
-100.32
-85.80
-71.51
-58.43
-47.36
-38.52
-31.49
-25.41
-19.38
-12.93
-6.13
0.51
6.33
10.89
14.15
16.44
18.25
20.01
21.91
23.91
25.80
27.32
28.31
28.71
28.63
28.25
27.79
27.39
27.06
26.71
26.21
25.47
24.49
23.38
22.27
21.30
20.50
19.86
19.30
18.72
18.08
17.36
16.62
15.92
15.31
14.81
14.39
14.01
13.64
13.29
12.98
12.73
12.51
12.29
12.03
11.72
11.38
11.06
10.77
10.50
10.19
9.84
9.49
9.23
9.13
9.23
9.46
9.72
9.88
9.87
9.65
9.26
8.74
8.17
7.60
7.08
6.66
6.33
6.07
5.81
5.52
5.18
4.81
4.45
4.14
3.88
3.67
3.47
3.28
3.06
2.80
2.50
2.13
1.69
1.18
0.59
-0.10
-0.87
-1.71
-2.56
-3.36
-4.07
-4.66
-5.13
-5.51
-5.84
-6.14
-6.46
-6.81
-7.19
-7.60
-8.02
-8.39
-8.70
-8.88
-8.92
-8.80
-8.53
-8.12
-7.60
-7.04
-6.51
-6.06
-5.71
-5.46
-5.27
-5.09
-4.86
-4.50
-3.98
-3.29
-2.50
-1.71
-1.04
-0.54
-0.19
0.09
0.39
0.73
1.09
1.41
1.65
1.84
2.03
2.29
2.57
2.83
3.00
3.04
2.99
2.92
2.92
3.02
3.24
3.57
3.97
4.40
4.78
5.09
5.27
5.33
5.30
5.19
5.00
4.74
4.42
4.08
3.80
3.63
3.62
3.74
3.93
4.14
4.35
4.55
4.75
4.92
5.01
4.95
4.75
4.44
4.10
3.81
3.60
3.47
3.38
3.32
3.27
3.23
3.21
3.16
3.06
2.92
2.76
2.65
2.62
2.66
2.71
2.70
2.59
2.37
2.11
1.86
1.70
1.67
1.77
1.96
2.18
2.34
2.40
2.36
2.25
2.16
2.13
2.21
2.35
2.48
2.55
2.49
2.30
2.00
1.67
1.38
1.21
1.17
1.19
1.19
1.10
0.92
0.72
0.59
0.60
0.71
0.84
0.93
0.96
0.94
0.93
0.94
0.93
0.88
0.79
0.73
0.77
0.95
1.23
1.50
1.65
1.66
1.57
1.47
1.43
1.44
1.42
1.31
1.09
0.84
0.67
0.69
0.88
1.13
1.28
1.22
0.96
0.63
0.42
0.44
0.71
1.09
1.40
1.48
1.26
0.79
0.24
-0.25
-0.53
-0.57
-0.40
-0.12
0.19
0.47
0.71
0.93
1.16
1.38
1.55
1.65
1.66
1.60
1.52
1.42
1.31
1.16
0.98
0.77
0.57
0.38
0.23
0.12
0.06
0.06
0.08
0.12
0.13
0.12
0.11
0.15
0.22
0.31
0.33
0.25
0.09
-0.10
-0.28
-0.42
-0.53
-0.65
-0.73
-0.68
-0.44
-0.01
0.54
1.04
1.34
1.38
1.21
0.92
0.67
0.53
0.56
0.74
0.98
1.19
1.27
1.15
0.86
0.46
0.06
-0.24
-0.37
-0.30
-0.06
0.30
0.70
1.05
1.24
1.21
0.95
0.56
0.16
-0.12
-0.20
-0.11
0.08
0.28
0.42
0.45
0.39
0.25
0.06
-0.11
-0.19
-0.08
0.24
0.74
1.30
1.77
1.99
1.88
1.42
0.75
0.08
-0.38
-0.49
-0.25
0.18
0.55
0.64
0.41
-0.04
-0.47
-0.68
-0.62
-0.35
-0.04
0.19
0.36
0.54
0.80
1.09
1.27
1.21
0.88
0.40
-0.01
-0.20
-0.13
0.08
0.28
0.35
0.31
0.26
0.31
0.50
0.76
0.94
0.97
0.81
0.55
0.30
0.11
-0.02
-0.12
-0.24
-0.38
-0.46
-0.42
-0.27
-0.06
0.07
0.04
-0.16
-0.38
-0.48
-0.34
-0.03
0.28
0.40
0.26
-0.04
-0.28
-0.28
-0.01
0.39
0.70
0.76
0.57
0.26
0.01
-0.09
-0.05
0.01
-0.01
-0.13
-0.26
-0.30
-0.20
0.02
0.28
0.47
0.55
0.55
0.54
0.60
0.77
0.97
1.11
1.07
0.83
0.42
-0.04
-0.45
-0.72
-0.81
-0.73
-0.50
-0.18
0.17
0.50
0.72
0.78
0.66
0.39
0.05
-0.24
-0.38
-0.31
-0.03
0.38
0.79
1.04
1.04
0.77
0.32
-0.15
-0.46
-0.55
-0.44
-0.23
-0.07
-0.05
-0.16
-0.33
-0.45
-0.43
-0.26
-0.00
0.24
0.36
0.31
0.10
-0.22
-0.53
-0.74
-0.77
-0.61
-0.32
0.01
0.27
0.42
0.45
0.40
0.33
0.26
0.21
0.17
0.11
0.06
0.06
0.11
0.23
0.37
0.49
0.54
0.51
0.39
0.22
0.02
-0.16
-0.27
-0.27
-0.15
0.06
0.27
0.40
0.41
0.33
0.23
0.20
0.25
0.35
0.43
0.47
0.49
0.55
0.66
0.75
0.73
0.57
0.28
0.00
-0.15
-0.13
0.01
0.11
0.09
-0.09
-0.31
-0.47
-0.48
-0.36
-0.19
-0.06
-0.03
-0.11
-0.25
-0.41
-0.55
-0.64
-0.66
-0.60
-0.45
-0.23
0.06
0.38
0.66
0.85
0.88
0.76
0.54
0.33
0.22
0.25
0.34
0.40
0.34
0.14
-0.10
-0.27
-0.30
-0.21
-0.06
0.03
0.07
0.10
0.22
0.44
0.70
0.89
0.89
0.68
0.33
-0.03
-0.32
-0.54
-0.71
-0.86
-0.97
-0.99
-0.89
-0.69
-0.47
-0.32
-0.30
-0.36
-0.42
-0.39
-0.29
-0.19
-0.16
-0.25
-0.40
-0.55
-0.59
-0.49
-0.27
-0.01
0.23
0.38
0.41
0.34
0.21
0.10
0.06
0.12
0.27
0.43
0.53
0.48
0.27
-0.05
-0.39
-0.63
-0.67
-0.47
-0.07
0.42
0.85
1.13
1.20
1.11
0.93
0.73
0.55
0.39
0.23
0.11
0.05
0.09
0.23
0.42
0.61
0.77
0.86
0.89
0.90
0.90
0.91
0.92
0.92
0.89
0.83
0.74
0.64
0.55
0.48
0.43
0.39
0.31
0.14
-0.13
-0.48
-0.85
-1.13
-1.19
-0.98
-0.56
-0.07
0.30
0.40
0.22
-0.10
-0.40
-0.58
-0.62
-0.63
-0.71
-0.87
-1.02
-1.04
-0.83
-0.47
-0.11
0.10
0.10
-0.02
-0.13
-0.11
0.03
0.19
0.25
0.18
0.01
-0.13
-0.15
-0.05
0.09
0.19
0.19
0.10
-0.02
-0.14
-0.27
-0.44
-0.68
-0.94
-1.11
-1.09
-0.83
-0.39
0.06
0.34
0.36
0.13
-0.21
-0.50
-0.64
-0.61
-0.49
-0.37
-0.28
-0.21
-0.11
0.08
0.32
0.56
0.71
0.72
0.56
0.24
-0.17
-0.59
-0.91
-1.02
-0.86
-0.48
-0.02
0.35
0.51
0.42
0.21
0.05
0.07
0.28
0.60
0.87
1.04
1.08
1.06
1.01
0.93
0.73
0.39
-0.06
-0.50
-0.80
-0.87
-0.69
-0.36
-0.01
0.25
0.38
0.39
0.36
0.37
0.46
0.59
0.69
0.66
0.46
0.16
-0.12
-0.26
-0.24
-0.11
-0.00
0.04
0.04
0.08
0.21
0.39
0.50
0.41
0.09
-0.37
-0.77
-0.94
-0.81
-0.46
-0.05
0.27
0.39
0.31
0.08
-0.23
-0.53
-0.75
-0.85
-0.80
-0.63
-0.42
-0.27
-0.23
-0.32
-0.44
-0.47
-0.30
0.09
0.61
1.10
1.39
1.41
1.17
0.76
0.32
-0.05
-0.28
-0.38
-0.38
-0.35
-0.32
-0.29
-0.26
-0.24
-0.23
-0.29
-0.43
-0.61
-0.78
-0.85
-0.79
-0.59
-0.30
-0.01
0.23
0.37
0.38
0.23
-0.08
-0.51
-0.97
-1.34
-1.53
-1.51
-1.35
-1.21
-1.25
-1.57
-2.09
-2.65
-3.02
-3.02
-2.66
-2.11
-1.64
-1.49
-1.76
-2.41
-3.28
-4.20
-5.07
-5.79
-6.34
-6.67
-6.78
-6.75
-6.74
-6.97
-7.58
-8.52
-9.49
-10.00
-9.57
-7.95
-5.27
-1.98
1.32
4.10
5.99
6.81
6.58
5.51
4.04
2.81
2.44
3.35
5.45
8.18
10.65
12.11
12.23
11.29
9.94
8.88
8.51
8.83
9.53
10.22
10.68
10.82
10.69
10.31
9.60
8.46
6.74
4.52
2.04
-0.28
-2.04
-3.01
-3.20
-2.86
-2.31
-1.82
-1.50
-1.29
-1.12
-0.96
-0.87
-0.97
-1.35
-1.98
-2.69
-3.25
-3.46
-3.25
-2.68
-1.87
-0.98
-0.12
0.64
1.23
1.57
1.63
1.40
0.94
0.38
-0.17
-0.63
-0.98
-1.27
-1.55
-1.83
-2.08
-2.20
-2.12
-1.82
-1.35
-0.88
-0.55
-0.44
-0.55
-0.81
-1.10
-1.33
-1.43
-1.40
-1.21
-0.90
-0.53
-0.18
0.03
0.06
-0.05
-0.22
-0.31
-0.24
-0.04
0.22
0.41
0.45
0.35
0.15
-0.06
-0.20
-0.25
-0.25
-0.25
-0.27
-0.32
-0.34
-0.28
-0.10
0.17
0.46
0.65
0.68
0.56
0.36
0.20
0.14
0.19
0.31
0.42
0.48
0.50
0.48
0.45
0.39
0.28
0.09
-0.15
-0.35
-0.40
-0.26
0.04
0.39
0.61
0.58
0.29
-0.15
-0.57
-0.82
-0.84
-0.68
-0.46
-0.30
-0.24
-0.30
-0.42
-0.56
-0.72
-0.87
-0.99
-1.03
-0.94
-0.69
-0.30
0.11
0.46
0.62
0.57
0.33
0.01
-0.27
-0.38
-0.25
0.08
0.53
0.97
1.28
1.41
1.37
1.23
1.05
0.85
0.62
0.33
-0.03
-0.43
-0.81
-1.09
-1.22
-1.22
-1.13
-0.99
-0.83
-0.65
-0.43
-0.21
-0.09
-0.13
-0.35
-0.67
-0.98
-1.13
-1.08
-0.86
-0.57
-0.29
-0.05
0.18
0.42
0.63
0.75
0.67
0.37
-0.08
-0.54
-0.87
-1.01
-0.98
-0.86
-0.73
-0.65
-0.60
-0.52
-0.37
-0.13
0.16
0.43
0.59
0.62
0.54
0.43
0.37
0.42
0.54
0.67
0.69
0.57
0.33
0.06
-0.16
-0.25
-0.22
-0.13
-0.02
0.08
0.21
0.38
0.61
0.86
1.09
1.22
1.23
1.12
0.91
0.65
0.40
0.20
0.08
0.04
0.05
0.08
0.09
0.03
-0.09
-0.23
-0.34
-0.38
-0.35
-0.31
-0.34
-0.53
-0.86
-1.27
-1.63
-1.85
-1.90
-1.82
-1.69
-1.59
-1.58
-1.65
-1.76
-1.91
-2.07
-2.24
-2.40
-2.52
-2.60
-2.67
-2.80
-3.04
-3.38
-3.77
-4.10
-4.34
-4.49
-4.62
-4.73
-4.74
-4.50
-3.90
-2.94
-1.81
-0.77
-0.06
0.24
0.19
-0.05
-0.37
-0.74
-1.21
-1.84
-2.62
-3.46
-4.18
-4.64
-4.74
-4.47
-3.87
-3.05
-2.12
-1.17
-0.21
0.82
2.07
3.74
5.94
8.68
11.77
14.88
17.60
19.55
20.44
20.16
18.80
16.62
14.01
11.40
9.14
7.42
6.26
5.56
5.18
4.99
4.90
4.78
4.52
3.98
3.07
1.78
0.23
-1.39
-2.88
-4.06
-4.83
-5.16
-5.16
-4.94
-4.64
-4.38
-4.23
-4.17
-4.11
-3.97
-3.69
-3.33
-2.96
-2.72
-2.64
-2.62
-2.45
-1.94
-0.98
0.31
1.61
2.58
2.94
2.67
1.92
1.00
0.23
-0.17
-0.01
0.83
2.41
4.63
7.08
9.10
9.99
9.26
6.92
3.62
0.41
-1.54
-1.35
1.28
6.05
12.16
18.59
24.39
28.91
31.84
33.26
33.54
33.16
32.61
32.21
32.02
31.78
31.06
29.26
25.90
20.67
13.60
5.05
-4.29
-13.54
-21.78
-28.23
-32.48
-34.53
-34.87
-34.27
-33.50
-33.09
-33.18
-33.57
-33.90
-33.88
-33.34
-32.22
-30.44
-27.92
-24.62
-20.68
-16.50
-12.56
-9.13
-6.04
-2.67
1.68
7.39
14.19
21.17
27.08
30.97
32.60
32.67
32.54
33.56
36.42
40.69
44.94
47.33
46.52
42.40
36.21
30.09
26.22
26.11
30.31
38.41
49.05
59.73
66.79
66.12
54.73
32.38
2.48
-28.78
-54.77
-71.20
-77.60
-76.82
-72.86
-68.54
-64.37
-59.21
-51.96
-42.88
-33.78
-26.93
-23.59
-23.20
-23.72
-22.74
-18.76
-11.85
-3.61
3.77
8.45
9.65
7.88
4.54
1.30
-0.54
-0.58
0.67
2.06
2.31
0.46
-3.78
-10.03
-17.47
-25.17
-32.31
-38.14
-41.93
-42.87
-40.28
-34.03
-24.84
-14.29
-4.40
3.19
7.85
10.12
11.25
12.52
14.40
16.40
17.27
15.73
11.17
4.02
-4.32
-12.03
-17.49
-19.92
-19.50
-17.23
-14.38
-11.96
-10.37
-9.44
-8.68
-7.64
-6.13
-4.22
-2.06
0.28
2.86
5.71
8.68
11.34
13.09
13.37
11.99
9.25
5.82
2.51
-0.00
-1.47
-2.02
-2.06
-2.04
-2.19
-2.47
-2.59
-2.20
-1.13
0.52
2.38
4.03
5.18
5.82
6.13
6.31
6.43
6.34
5.78
4.57
2.74
0.57
-1.57
-3.39
-4.82
-5.95
-6.96
-7.93
-8.74
-9.18
-9.05
-8.32
-7.17
-5.90
-4.71
-3.59
-2.31
-0.59
1.74
4.55
7.48
10.04
11.82
12.62
12.48
11.64
10.47
9.29
8.34
7.65
7.09
6.46
5.56
4.38
3.03
1.77
0.77
0.12
-0.26
-0.49
-0.69
-0.86
-0.97
-1.03
-1.08
-1.22
-1.56
-2.09
-2.69
-3.15
-3.30
-3.04
-2.40
-1.48
-0.45
0.53
1.35
1.96
2.32
2.41
2.22
1.75
1.07
0.31
-0.39
-0.87
-1.07
-1.02
-0.82
-0.61
-0.48
-0.49
-0.63
-0.88
-1.17
-1.44
-1.60
-1.60
-1.44
-1.18
-0.90
-0.71
-0.66
-0.73
-0.84
-0.94
-0.97
-0.94
-0.89
-0.83
-0.77
-0.73
-0.70
-0.71
-0.75
-0.80
-0.82
-0.77
-0.61
-0.35
-0.05
0.17
0.21
0.06
-0.19
-0.36
-0.27
0.15
0.82
1.51
1.95
1.98
1.61
1.02
0.44
0.05
-0.14
-0.22
-0.35
-0.64
-1.11
-1.68
-2.19
-2.48
-2.45
-2.05
-1.35
-0.50
0.31
0.92
1.20
1.18
0.90
0.49
0.06
-0.33
-0.63
-0.82
-0.88
-0.82
-0.66
-0.47
-0.31
-0.21
-0.20
-0.26
-0.40
-0.63
-0.91
-1.19
-1.34
-1.23
-0.82
-0.19
0.47
0.94
1.10
1.02
0.82
0.67
0.62
0.59
0.48
0.27
0.04
-0.04
0.11
0.51
1.03
1.49
1.73
1.71
1.45
1.04
0.61
0.23
-0.00
-0.06
0.05
0.28
0.58
0.85
1.04
1.11
1.08
0.96
0.82
0.68
0.59
0.57
0.59
0.65
0.71
0.76
0.81
0.89
0.98
1.06
1.09
1.04
0.90
0.68
0.45
0.27
0.18
0.22
0.38
0.61
0.86
1.10
1.30
1.45
1.54
1.57
1.51
1.33
1.02
0.62
0.21
-0.11
-0.30
-0.36
-0.31
-0.22
-0.07
0.14
0.42
0.73
1.01
1.17
1.19
1.11
1.01
0.98
1.09
1.33
1.64
1.95
2.15
2.15
1.87
1.30
0.50
-0.44
-1.37
-2.16
-2.74
-3.15
-3.46
-3.79
-4.18
-4.59
-4.87
-4.86
-4.41
-3.53
-2.40
-1.30
-0.55
-0.32
-0.61
-1.20
-1.80
-2.15
-2.15
-1.86
-1.43
-1.05
-0.78
-0.61
-0.47
-0.31
-0.15
-0.05
-0.06
-0.19
-0.37
-0.44
-0.29
0.13
0.71
1.29
1.66
1.75
1.59
1.33
1.17
1.22
1.50
1.94
2.43
2.87
3.16
3.24
3.11
2.79
2.41
2.12
2.07
2.30
2.73
3.17
3.42
3.39
3.14
2.84
2.68
2.75
3.03
3.35
3.53
3.39
2.85
1.94
0.82
-0.32
-1.29
-1.98
-2.47
-2.98
-3.79
-5.18
-7.15
-9.37
-11.19
-11.81
-10.62
-7.49
-2.82
2.56
7.69
11.83
14.68
16.43
17.55
18.66
20.15
22.08
24.17
25.92
26.73
25.92
22.92
17.41
9.53
0.06
-9.67
-18.13
-24.08
-27.03
-27.39
-26.21
-24.67
-23.47
-22.61
-21.52
-19.52
-16.29
-12.00
-7.23
-2.54
1.83
5.94
9.96
13.89
17.22
18.99
18.17
14.21
7.37
-1.16
-9.70
-16.49
-20.35
-20.89
-18.59
-14.56
-10.26
-7.06
-5.91
-7.14
-10.43
-15.01
-19.89
-24.15
-27.04
-28.14
-27.43
-25.26
-22.25
-19.07
-16.20
-13.75
-11.34
-8.18
-3.37
3.82
13.67
25.73
38.86
51.33
61.14
66.49
66.28
60.47
50.25
37.72
25.32
15.09
7.97
3.65
0.69
-2.92
-9.05
-18.87
-32.53
-49.12
-66.77
-82.80
-94.17
-98.32
-94.17
-82.91
-68.07
-54.41
-45.97
-44.06
-46.39
-47.81
-42.62
-27.09
-1.31
30.72
62.56
87.66
101.66
103.54
95.47
81.57
66.21
52.51
41.58
32.81
24.74
16.24
7.11
-1.89
-9.56
-15.03
-18.27
-19.84
-20.27
-19.60
-17.48
-13.82
-9.45
-6.10
-5.81
-9.74
-17.47
-27.06
-35.93
-41.75
-43.02
-38.99
-29.55
-15.23
2.49
21.05
37.19
48.03
52.25
50.63
45.58
39.76
34.72
30.51
26.11
20.46
13.29
5.30
-2.36
-8.80
-13.68
-17.26
-19.98
-22.29
-24.38
-26.25
-27.74
-28.44
-27.63
-24.28
-17.45
-6.85
6.78
21.62
35.33
45.91
52.39
55.08
55.01
53.34
50.74
47.31
42.93
37.57
31.47
25.05
18.69
12.77
7.74
4.30
3.22
4.91
9.11
14.64
19.98
23.95
26.23
27.39
28.44
30.40
34.09
40.36
50.23
64.53
83.19
104.54
125.40
142.08
151.96
154.68
152.03
146.64
140.21
132.52
121.63
105.45
82.99
54.96
23.03
-11.68
-49.92
-94.48
-148.97
-215.23
-290.90
-368.64
-437.45
-486.18
-507.60
-500.89
-471.58
-428.73
-380.98
-333.52
-287.31
-240.52
-190.92
-137.67
-81.79
-25.48
28.77
78.70
122.37
158.07
184.56
201.44
209.18
209.09
202.78
191.79
177.45
161.09
144.17
128.23
114.59
103.86
95.87
89.87
84.99
80.66
76.65
72.88
69.16
64.96
59.58
52.55
44.00
34.79
26.31
19.94
16.55
16.13
17.91
20.74
23.57
25.86
27.60
29.19
31.07
33.46
36.28
39.23
42.06
44.75
47.50
50.53
53.93
57.48
60.78
63.54
65.91
68.64
72.88
79.72
89.62
102.03
115.55
128.44
139.48
148.60
157.07
167.13
181.08
200.29
224.29
250.55
275.06
293.53
302.83
301.99
292.38
276.97
258.95
240.58
222.54
204.22
184.54
162.81
139.15
114.27
88.82
62.88
35.91
7.13
-23.90
-56.95
-91.54
-127.70
-166.61
-210.19
-259.34
-312.08
-362.42
-401.20
-418.98
-409.28
-370.63
-306.22
-221.91
-124.18
-19.38
85.61
182.70
263.05
319.37
348.71
353.90
342.55
323.85
305.00
289.20
275.94
262.79
247.52
229.25
208.28
185.38
161.11
135.75
109.47
82.59
55.36
28.03
0.48
-27.72
-57.08
-87.85
-119.79
-152.32
-184.62
-216.10
-246.64
-276.67
-307.23
-339.80
-376.31
-418.22
-465.50
-515.59
-563.54
-603.21
-629.49
-640.29
-637.32
-625.19
-609.24
-593.38
-578.90
-564.80
-549.13
-530.36
-508.05
-482.62
-454.65
-424.41
-391.80
-356.77
-319.76
-281.91
-244.70
-209.64
-177.40
-147.41
-117.97
-87.01
-53.16
-16.35
21.91
59.17
93.11
122.68
148.51
172.75
198.35
228.04
263.37
304.03
347.65
389.94
425.41
448.50
455.01
443.59
416.54
379.45
339.51
303.17
273.93
251.60
233.21
214.98
194.35
170.87
145.76
120.54
95.89
71.24
45.69
19.51
-5.06
-24.43
-35.67
-38.57
-36.69
-36.61
-45.52
-68.44
-106.43
-156.52
-213.13
-269.88
-321.01
-361.90
-389.11
-400.40
-395.24
-375.21
-344.01
-306.45
-266.96
-228.35
-191.41
-155.49
-119.51
-82.74
-45.14
-7.13
31.06
69.61
109.21
150.82
195.54
244.26
297.08
352.91
409.16
461.92
506.56
538.70
555.35
555.65
540.97
514.28
479.14
438.55
394.32
347.19
297.54
246.38
195.85
148.90
108.20
74.93
48.28
26.02
5.71
-14.04
-33.22
-50.93
-66.47
-80.00
-92.46
-104.79
-117.21
-129.18
-140.02
-149.47
-157.68
-164.67
-169.77
-171.83
-169.96
-164.44
-156.85
-149.36
-143.44
-139.15
-135.31
-130.42
-123.87
-116.47
-110.15
-106.91
-107.83
-112.64
-120.01
-128.29
-136.20
-143.46
-150.93
-160.25
-173.14
-190.61
-212.25
-236.28
-260.04
-280.87
-296.78
-306.76
-310.34
-307.22
-296.93
-279.02
-253.64
-221.85
-185.78
-148.20
-111.57
-77.34
-45.42
-14.27
18.45
54.79
95.60
139.79
184.24
224.49
255.89
275.07
281.10
275.80
263.01
247.19
231.92
218.98
208.27
198.68
189.11
179.19
169.27
159.94
151.44
143.50
135.48
126.85
117.57
108.14
99.27
91.42
84.63
78.54
72.78
67.31
62.49
58.90
57.08
57.21
59.15
62.44
66.49
70.57
73.98
76.13
76.87
76.58
76.16
76.79
79.41
84.34
91.13
98.77
106.07
112.13
116.56
119.54
121.73
124.24
128.37
135.24
145.10
156.63
166.79
171.45
166.90
151.44
126.30
95.14
62.67
32.49
5.73
-19.14
-45.43
-76.96
-117.02
-167.62
-228.69
-297.37
-367.74
-431.45
-479.74
-506.17
-508.65
-489.84
-455.56
-412.15
-364.24
-314.16
-262.73
-210.61
-159.14
-109.89
-63.52
-18.93
26.73
77.28
136.24
205.67
285.20
371.17
456.76
533.12
591.62
626.58
637.15
627.41
604.46
575.43
545.04
514.94
484.65
453.51
421.91
391.38
363.48
338.63
315.68
292.46
267.10
238.93
208.82
178.78
150.89
126.42
105.31
86.33
67.69
47.79
25.88
2.24
-22.10
-45.90
-68.28
-89.13
-109.05
-129.10
-150.33
-173.34
-198.17
-224.52
-252.08
-280.77
-310.59
-341.08
-370.91
-397.91
-419.75
-434.76
-442.33
-442.75
-436.40
-423.11
-402.30
-374.07
-340.51
-306.22
-277.09
-257.79
-249.14
-246.92
-243.11
-228.74
-197.22
-146.41
-78.62
0.41
83.09
161.09
226.13
271.27
292.60
290.82
271.58
243.87
216.61
195.11
179.50
165.60
147.72
121.76
86.95
45.62
1.64
-41.32
-80.73
-115.40
-145.29
-170.80
-192.06
-208.46
-218.71
-221.64
-217.25
-207.62
-196.76
-189.53
-189.68
-198.29
-213.34
-230.74
-246.30
-257.54
-264.51
-269.27
-274.52
-282.07
-291.79
-301.81
-309.28
-311.76
-308.45
-300.62
-290.95
-282.08
-275.22
-269.76
-263.72
-255.01
-242.63
-227.21
-210.53
-194.34
-179.16
-163.78
-145.68
-122.18
-91.71
-54.62
-13.01
30.21
72.50
112.70
151.27
189.90
230.85
276.46
328.80
389.23
457.44
530.31
601.45
661.92
702.74
717.90
706.65
673.72
627.28
575.69
524.76
476.69
430.93
385.97
340.87
295.69
250.97
206.87
162.88
118.17
72.21
25.17
-22.25
-69.59
-117.70
-169.05
-226.73
-292.30
-363.39
-432.89
-490.34
-525.50
-532.37
-511.68
-470.44
-418.75
-365.78
-316.76
-272.24
-229.70
-185.85
-138.03
-84.55
-24.35
42.76
114.92
187.01
250.72
296.55
317.00
309.70
278.25
230.17
173.16
112.04
48.27
-17.77
-83.51
-142.31
-184.54
-200.87
-186.06
-141.40
-74.62
2.00
74.24
128.55
154.47
146.74
107.15
45.03
-24.26
-82.88
-115.23
-112.31
-74.03
-9.04
67.87
139.56
190.65
210.72
196.28
151.03
84.76
10.84
-57.06
-108.12
-136.86
-143.82
-134.38
-116.31
-97.13
-81.97
-72.94
-69.65
-70.39
-73.29
-76.86
-79.96
-81.96
-83.00
-84.23
-87.71
-95.59
-108.94
-127.06
-147.75
-168.45
-187.58
-205.27
-222.64
-240.17
-256.57
-268.42
-271.18
-261.12
-236.90
-199.85
-153.31
-101.50
-48.88
-0.04
40.47
69.08
84.80
90.23
92.02
98.73
117.91
153.04
201.68
256.15
306.03
342.06
359.45
359.10
346.39
327.97
307.92
285.47
255.51
212.30
153.86
85.42
18.85
-31.59
-54.57
-45.66
-7.65
52.01
124.52
201.66
276.11
340.58
387.87
412.39
412.15
389.85
352.19
307.23
261.38
217.65
175.51
132.25
84.79
32.04
-23.44
-75.09
-114.02
-132.59
-128.31
-106.31
-78.18
-57.48
-54.47
-72.48
-108.25
-155.64
-210.22
-271.27
-340.30
-416.99
-495.87
-566.32
-616.23
-637.26
-628.58
-596.91
-553.24
-507.77
-466.10
-428.20
-390.49
-349.22
-303.08
-253.77
-204.58
-158.25
-115.33
-74.18
-32.10
13.06
61.86
113.05
164.59
215.15
264.99
315.78
369.30
425.78
482.99
536.64
581.96
615.41
635.73
643.76
641.55
631.38
615.24
594.87
571.98
548.23
524.85
502.34
480.38
458.20
435.18
411.15
386.28
360.70
334.30
306.83
278.15
248.60
219.00
190.56
164.29
140.50
118.67
97.57
75.85
52.77
28.69
5.05
-16.23
-33.74
-47.43
-58.93
-71.06
-86.65
-107.27
-132.46
-159.89
-186.47
-209.78
-229.36
-246.90
-265.51
-288.51
-318.24
-355.42
-398.82
-445.15
-488.96
-523.23
-540.96
-537.74
-514.54
-478.95
-443.78
-422.79
-425.19
-451.53
-493.08
-535.29
-563.58
-568.53
-548.26
-507.23
-452.70
-391.24
-327.23
-263.53
-203.08
-149.91
-108.19
-79.96
-63.36
-52.64
-40.45
-21.00
7.25
41.57
77.04
109.61
138.67
167.69
202.84
250.09
312.10
386.08
463.72
533.48
584.29
609.43
608.69
587.79
555.20
518.34
480.90
442.71
401.87
357.50
311.11
266.04
225.29
189.58
156.82
123.23
85.21
40.77
-10.14
-65.79
-123.10
-177.29
-221.92
-249.90
-255.91
-239.28
-205.55
-165.54
-131.59
-113.31
-114.24
-131.64
-158.68
-187.71
-213.14
-232.34
-244.44
-248.67
-243.51
-227.22
-199.36
-162.40
-122.29
-87.02
-63.72
-55.35
-59.01
-67.34
-72.76
-71.87
-67.70
-67.78
-79.47
-105.18
-141.16
-180.28
-216.94
-250.39
-284.08
-321.89
-363.57
-403.21
-431.45
-440.71
-429.54
-403.16
-370.62
-340.34
-316.73
-299.53
-285.83
-272.86
-259.72
-247.36
-237.34
-230.42
-225.92
-222.13
-217.10
-209.55
-199.49
-187.96
-176.43
-166.09
-157.24
-149.30
-141.14
-131.62
-120.22
-107.17
-93.35
-79.80
-67.30
-56.09
-45.83
-35.91
-25.66
-14.67
-2.91
9.37
21.77
33.94
45.68
57.00
68.07
79.22
90.81
103.22
116.70
131.33
146.99
163.31
179.87
196.33
212.59
228.89
245.79
264.11
284.63
307.86
333.67
360.98
387.76
411.17
428.25
436.64
435.22
424.43
405.98
382.30
355.86
328.70
302.30
277.70
255.70
236.96
221.90
210.41
201.62
193.98
185.55
174.78
161.27
145.97
130.76
117.62
107.63
100.56
95.14
89.87
83.86
77.33
71.43
67.71
67.38
70.69
76.61
83.06
87.55
88.21
84.80
79.04
74.07
73.16
78.31
89.52
104.98
121.74
136.48
146.02
147.63
139.76
122.77
99.50
74.94
54.69
42.81
39.96
43.33
47.86
48.56
42.35
28.36
6.79
-22.71
-61.54
-110.81
-168.81
-229.23
-281.48
-313.55
-316.26
-286.80
-229.73
-155.40
-76.39
-3.96
54.22
94.91
119.09
131.01
136.89
143.25
155.10
174.52
200.40
229.28
257.20
281.11
299.30
311.23
316.87
316.54
311.09
302.25
292.50
284.35
279.39
277.53
277.14
275.74
271.08
262.05
248.87
232.85
215.76
199.10
183.63
169.31
155.52
141.52
126.90
111.77
96.76
82.75
70.45
60.19
51.81
44.78
38.48
32.40
26.30
20.27
14.58
9.51
5.16
1.42
-1.99
-5.40
-9.01
-12.80
-16.49
-19.72
-22.21
-23.92
-25.12
-26.33
-28.04
-30.56
-33.79
-37.33
-40.61
-43.30
-45.53
-47.99
-51.71
-57.65
-66.25
-77.12
-89.19
-101.08
-111.79
-121.22
-130.28
-140.58
-153.74
-170.61
-190.79
-212.92
-235.14
-255.96
-274.89
-292.67
-311.09
-332.80
-360.82
-397.70
-444.21
-497.84
-552.07
-597.32
-623.63
-624.09
-597.52
-548.90
-487.01
-420.77
-355.94
-293.68
-231.44
-165.43
-93.35
-16.10
62.20
135.49
197.60
243.91
272.23
282.80
277.63
259.40
230.59
193.27
149.13
99.79
46.85
-8.35
-64.42
-119.48
-170.47
-213.24
-243.76
-259.87
-262.94
-258.05
-252.61
-253.96
-266.66
-290.98
-323.05
-356.45
-384.56
-402.60
-408.65
-403.60
-390.24
-372.02
-352.06
-332.57
-314.75
-299.19
-286.19
-275.62
-266.86
-258.61
-249.31
-237.74
-223.63
-207.98
-192.57
-179.28
-169.27
-162.59
-158.24
-154.71
-150.59
-145.03
-137.87
-129.46
-120.37
-110.98
-101.40
-91.52
-81.20
-70.41
-59.19
-47.60
-35.53
-22.77
-9.04
5.70
21.10
36.45
50.98
64.30
76.77
89.52
104.13
121.97
143.54
168.24
194.47
220.34
244.51
266.70
287.96
310.40
336.60
368.71
407.54
451.50
496.29
535.26
560.81
566.53
548.96
508.70
449.92
378.87
301.88
223.68
146.47
70.21
-6.22
-83.39
-159.92
-231.93
-293.77
-339.84
-366.58
-373.88
-364.98
-344.97
-318.98
-290.67
-262.02
-233.76
-206.36
-180.16
-155.20
-130.70
-105.05
-76.43
-43.56
-6.50
33.30
73.64
112.13
146.89
176.80
201.53
221.51
237.90
252.28
266.16
280.08
293.08
302.88
307.06
304.62
297.03
287.63
279.68
273.98
268.00
257.22
238.22
211.46
181.83
156.24
139.68
132.14
128.41
120.92
104.12
77.84
47.49
21.27
6.15
4.29
12.15
22.38
27.37
22.37
6.73
-16.85
-44.21
-71.33
-94.72
-110.69
-114.73
-102.16
-70.15
-20.04
41.73
104.88
158.79
196.04
214.68
217.99
212.13
203.59
197.37
196.70
203.35
217.92
239.43
264.92
289.37
306.73
311.78
301.88
277.59
241.91
198.66
151.12
102.01
54.80
15.03
-9.85
-12.90
8.78
51.47
105.16
157.09
196.65
219.19
226.67
225.13
220.65
216.37
212.00
205.57
195.85
183.68
171.42
161.23
153.48
146.32
136.75
122.19
102.00
77.79
52.72
29.90
10.92
-4.89
-20.16
-38.25
-61.70
-91.16
-125.19
-161.14
-196.38
-229.58
-261.13
-292.89
-327.55
-367.88
-416.16
-473.39
-538.39
-607.00
-672.10
-724.94
-757.70
-766.27
-751.79
-720.21
-679.82
-638.24
-600.13
-566.78
-537.23
-509.98
-484.12
-459.44
-435.83
-412.73
-389.03
-363.58
-335.71
-305.47
-273.50
-240.71
-207.90
-175.63
-144.30
-114.20
-85.51
-58.16
-31.72
-5.38
21.77
50.27
79.98
109.90
138.75
165.47
189.92
213.10
236.73
262.69
292.60
327.69
368.72
415.53
466.10
515.83
557.71
583.64
587.15
565.57
520.95
459.36
387.98
312.44
234.94
154.60
69.96
-17.94
-103.81
-179.05
-235.08
-267.35
-277.44
-272.11
-259.91
-247.10
-235.23
-221.83
-203.28
-177.82
-146.74
-113.24
-79.87
-46.38
-9.60
34.31
86.52
143.29
196.16
234.84
251.87
246.47
225.42
200.60
183.68
181.11
191.90
209.21
224.83
233.62
235.56
234.48
234.66
237.76
241.50
241.07
231.64
210.70
178.93
139.54
96.18
50.81
2.92
-49.63
-108.23
-170.96
-231.42
-280.11
-307.56
-308.22
-282.68
-237.03
-179.78
-118.01
-55.25
7.63
69.77
127.76
175.14
204.67
211.84
197.48
167.90
132.57
100.45
77.18
64.13
59.23
59.07
60.66
62.59
64.74
67.57
71.09
74.48
76.70
77.88
80.88
91.46
116.10
158.33
215.59
278.52
333.86
369.41
378.76
363.19
329.79
287.48
243.05
199.60
157.43
115.76
74.29
33.13
-7.65
-48.19
-88.53
-128.23
-166.38
-202.06
-234.35
-261.95
-282.96
-295.29
-298.39
-295.17
-292.87
-301.05
-327.05
-371.34
-425.63
-475.76
-507.96
-515.13
-499.49
-470.21
-437.77
-408.63
-383.31
-358.03
-328.55
-293.29
-253.84
-213.54
-174.77
-137.58
-99.93
-59.46
-15.02
32.65
81.63
130.15
178.17
228.10
284.09
349.81
425.47
505.97
581.16
638.81
669.15
668.77
641.92
598.47
549.63
503.56
463.18
426.61
389.78
349.30
304.21
256.11
207.84
162.11
120.25
81.99
45.82
9.48
-29.07
-71.33
-117.84
-167.79
-218.66
-266.06
-304.38
-328.45
-335.77
-328.45
-313.78
-302.47
-304.91
-326.88
-366.67
-415.30
-459.75
-487.99
-493.04
-474.66
-437.78
-389.16
-334.20
-275.50
-213.47
-147.97
-79.90
-11.54
54.10
114.44
168.16
214.86
254.17
284.75
303.82
307.72
293.33
259.68
208.92
146.08
77.91
11.09
-49.16
-99.51
-138.14
-164.35
-178.38
-181.54
-176.10
-164.47
-147.73
-124.94
-94.18
-54.87
-10.21
32.82
66.19
85.24
92.16
96.23
110.30
145.02
203.78
280.74
363.02
435.70
487.14
512.30
513.15
496.33
469.72
439.42
408.55
377.75
346.75
315.92
286.88
261.67
241.31
224.84
209.46
191.76
169.32
141.79
110.81
79.26
49.74
23.50
-0.02
-22.82
-47.36
-75.50
-107.78
-143.47
-181.21
-219.90
-259.05
-298.48
-337.44
-373.94
-404.84
-426.67
-437.11
-436.05
-425.75
-409.96
-392.41
-375.64
-360.61
-347.22
-335.25
-325.24
-318.47
-316.54
-320.33
-329.31
-341.59
-355.10
-368.93
-384.28
-403.95
-430.41
-463.40
-498.83
-529.71
-549.00
-553.08
-543.41
-525.92
-508.05
-495.57
-490.43
-490.79
-492.84
-492.66
-487.43
-474.90
-453.01
-420.26
-377.11
-327.35
-278.29
-238.93
-215.56
-210.09
-218.54
-232.34
-241.40
-237.41
-215.75
-175.44
-117.84
-45.10
40.19
134.96
235.09
335.39
430.39
515.49
587.75
646.09
690.97
723.36
744.18
754.01
753.15
742.00
721.44
693.07
659.09
621.88
583.46
545.18
507.60
470.70
434.22
398.05
362.41
327.88
295.19
264.91
237.27
212.13
189.09
167.71
147.63
128.74
111.12
94.97
80.41
67.45
55.98
45.82
36.76
28.64
21.35
14.85
9.13
4.14
-0.16
-3.83
-6.92
-9.49
-11.55
-13.17
-14.36
-15.17
-15.51
-15.48
-15.19
-14.68
-14.01
-13.21
-12.31
-11.35
-10.32
-9.28
-8.22
-7.16
-6.09
-5.01
-3.90
-2.78
-1.64
-0.47
0.73
1.96
3.24
4.57
5.96
7.45
9.00
10.62
12.34
14.15
16.05
18.06
20.19
22.44
24.85
27.35
29.95
32.67
35.52
38.52
41.70
45.06
48.63
52.40
56.22
60.01
63.57
66.70
69.09
70.43
70.41
68.76
65.31
59.81
52.22
42.67
31.42
18.90
5.64
-7.78
-20.78
-32.11
-41.67
-49.29
-54.89
-58.51
-60.29
-60.43
-59.17
-57.20
-54.47
-51.30
-47.94
-44.66
-41.69
-39.12
-36.92
-34.95
-33.02
-30.90
-28.70
-26.55
-24.66
-23.24
-22.37
-21.94
-21.70
-21.34
-20.59
-19.53
-18.42
-17.65
-17.64
-18.57
-20.32
-22.49
-24.56
-26.04
-26.84
-27.18
-27.58
-28.77
-31.53
-36.37
-43.23
-51.15
-58.34
-62.65
-62.36
-57.04
-47.84
-37.13
-27.53
-20.86
-17.76
-17.88
-20.64
-25.81
-33.73
-44.71
-58.43
-73.77
-88.99
-102.43
-113.09
-120.63
-124.99
-126.26
-125.09
-123.00
-122.71
-127.33
-138.73
-156.11
-175.96
-191.73
-196.63
-186.26
-159.83
-120.27
-72.54
-21.92
27.26
71.98
109.35
137.02
153.36
158.49
153.74
141.86
126.72
112.11
101.03
95.07
94.39
97.65
103.82
111.95
121.39
131.62
141.92
151.22
158.26
161.83
161.38
157.36
151.05
144.15
138.69
134.98
132.56
130.35
127.37
123.22
118.45
114.25
111.80
111.84
113.92
116.76
118.61
117.56
111.95
100.47
82.43
58.65
32.36
7.85
-10.01
-18.24
-17.55
-12.39
-9.12
-13.14
-26.44
-46.93
-70.10
-91.35
-108.08
-120.20
-129.27
-136.28
-141.33
-143.83
-143.39
-140.72
-137.31
-134.90
-134.89
-137.53
-142.01
-146.87
-150.41
-151.55
-149.90
-145.55
-138.67
-129.27
-117.05
-101.52
-82.96
-61.65
-38.77
-16.20
3.91
19.59
29.25
31.77
26.55
13.35
-7.34
-34.30
-65.40
-97.73
-127.84
-152.33
-168.49
-174.73
-171.46
-159.05
-138.45
-110.68
-76.78
-37.70
5.67
52.54
102.27
153.88
203.96
247.63
278.02
288.30
274.68
238.99
188.99
136.08
90.79
59.16
41.17
32.16
26.39
19.89
11.77
2.05
-9.00
-21.13
-33.07
-41.57
-41.90
-29.97
-5.03
29.28
65.47
95.47
113.72
119.05
114.20
103.76
91.97
81.40
73.12
67.46
64.71
65.02
67.74
70.95
71.81
67.44
56.20
38.83
18.35
-1.01
-15.69
-24.22
-27.61
-28.62
-30.21
-34.14
-40.16
-46.37
-50.26
-50.06
-45.53
-38.13
-30.11
-23.66
-19.86
-18.44
-18.13
-17.27
-14.72
-10.14
-4.24
1.90
7.19
11.15
13.87
15.44
15.93
14.87
11.93
7.63
4.03
4.02
9.63
20.38
32.66
41.16
41.70
33.93
20.96
8.44
1.53
2.44
10.39
22.78
36.92
50.08
58.93
59.09
46.50
20.25
-15.42
-50.94
-75.05
-79.79
-64.36
-35.38
-3.89
19.01
26.49
17.56
-3.34
-28.48
-49.22
-58.38
-52.55
-33.28
-7.26
15.92
27.71
23.84
5.68
-21.36
-50.47
-76.08
-94.44
-103.13
-100.34
-85.09
-58.52
-24.93
8.48
33.76
44.99
41.51
27.31
8.60
-8.99
-22.11
-29.86
-32.97
-32.72
-30.47
-27.59
-25.64
-25.85
-28.64
-33.44
-38.64
-42.27
-42.58
-38.21
-28.27
-12.81
6.42
26.19
41.76
48.33
43.14
27.31
5.87
-14.22
-26.27
-27.69
-20.31
-8.82
2.20
10.41
15.97
20.38
24.62
28.41
30.36
29.36
25.59
20.54
16.22
14.35
15.26
18.00
20.83
22.06
20.94
17.95
14.48
12.13
11.85
13.58
16.29
18.58
19.39
18.34
16.04
13.53
11.74
10.99
10.83
10.28
8.36
4.28
-2.26
-11.15
-21.73
-32.62
-41.75
-46.79
-46.01
-39.13
-27.78
-14.95
-3.87
3.24
5.85
4.75
1.45
-2.76
-7.09
-11.10
-14.21
-15.44
-13.71
-8.45
-0.16
9.44
17.88
22.73
22.52
17.49
9.61
1.76
-3.37
-4.46
-2.01
1.97
4.97
5.14
2.10
-3.07
-8.32
-11.72
-11.96
-8.44
-1.41
8.24
19.05
29.07
36.18
38.63
35.38
26.97
15.66
4.64
-3.14
-6.20
-4.84
-0.75
3.97
7.24
7.81
5.39
0.36
-6.46
-13.92
-20.59
-25.16
-24.37
-17.41
-6.35
4.70
11.79
13.20
9.73
3.75
-2.30
-6.84
-9.80
-11.71
-12.95
-13.52
-13.20
-11.92
-9.98
-7.82
-5.92
-4.77
-4.51
-4.82
-5.15
-5.01
-4.20
-2.89
-1.45
-0.21
0.45
0.46
0.04
-0.43
-0.62
-0.38
0.18
0.84
1.38
1.62
1.57
1.35
1.18
1.19
1.37
1.62
1.78
1.77
1.58
1.32
1.11
1.05
1.12
1.21
1.17
0.88
0.39
-0.18
-0.60
-0.75
-0.65
-0.49
-0.62
-1.34
-2.74
-4.64
-6.70
-8.34
-9.17
-9.19
-8.93
-9.21
-10.78
-13.94
-18.28
-22.82
-26.31
-27.93
-27.61
-26.36
-25.87
-27.70
-32.58
-39.94
-48.05
-54.68
-58.21
-58.31
-56.32
-54.49
-55.02
-58.79
-64.89
-70.71
-72.60
-67.05
-51.36
-24.75
10.73
49.89
84.94
107.23
110.13
92.06
57.65
18.14
-12.84
-25.28
-15.90
10.65
44.20
73.40
90.30
92.64
83.39
67.79
50.40
33.58
17.62
2.09
-12.50
-23.86
-29.11
-26.15
-15.20
0.98
18.70
34.87
48.55
60.66
72.54
84.24
94.13
99.64
98.80
91.55
79.43
64.34
47.41
28.73
8.10
-13.70
-34.65
-52.20
-64.03
-68.71
-65.85
-56.19
-41.67
-25.60
-12.12
-5.13
-6.66
-15.79
-28.80
-40.71
-47.29
-46.11
-37.10
-21.24
0.95
28.62
58.93
85.88
101.10
97.10
71.39
29.22
-17.39
-53.82
-69.74
-64.31
-46.68
-30.95
-28.61
-42.53
-65.79
-85.72
-90.61
-75.55
-43.99
-5.12
31.04
57.62
72.54
77.36
75.07
68.25
58.23
45.60
31.13
16.45
4.16
-2.98
-3.21
3.49
15.27
29.05
41.55
50.28
54.07
53.35
50.13
47.44
48.44
55.26
68.06
85.10
103.59
121.16
136.87
151.11
164.44
176.49
185.56
189.72
188.56
184.41
182.10
187.38
204.65
235.11
276.26
322.25
365.23
397.20
411.89
406.40
381.77
342.44
294.58
244.17
195.38
150.32
109.61
73.52
42.68
18.10
0.59
-9.80
-13.93
-13.27
-9.28
-3.04
4.82
13.90
23.65
33.14
41.15
46.53
48.54
47.15
43.04
37.37
31.38
25.97
21.52
17.89
14.61
11.24
7.55
3.65
-0.16
-3.51
-6.23
-8.42
-10.37
-12.56
-15.37
-19.03
-23.57
-28.77
-34.33
-39.88
-45.10
-49.71
-53.49
-56.25
-57.79
-57.97
-56.67
-53.87
-49.65
-44.23
-37.91
-31.07
-24.11
-17.44
-11.44
-6.40
-2.58
-0.12
0.91
0.52
-1.20
-4.03
-7.76
-12.12
-16.81
-21.57
-26.20
-30.46
-34.16
-37.12
-39.16
-40.16
-40.12
-39.15
-37.47
-35.40
-33.20
-31.11
-29.21
-27.48
-25.85
-24.29
-22.80
-21.48
-20.41
-19.61
-18.90
-17.90
-16.09
-12.88
-7.94
-1.24
6.83
15.68
24.69
33.53
42.25
51.24
60.91
71.30
81.76
90.97
97.25
99.17
96.08
88.41
77.49
64.88
51.57
37.43
21.16
0.91
-24.82
-56.38
-92.60
-131.22
-169.88
-207.13
-243.08
-279.22
-317.71
-360.68
-409.82
-465.88
-528.07
-593.16
-654.96
-704.64
-732.92
-733.23
-704.75
-653.40
-590.00
-526.09
-469.52
-421.99
-379.88
-337.65
-291.87
-243.31
-196.31
-155.94
-125.04
-102.81
-85.80
-70.45
-55.50
-42.84
-35.93
-37.44
-47.11
-61.44
-75.15
-83.60
-84.79
-79.60
-70.88
-61.35
-52.66
-45.12
-38.74
-33.98
-32.03
-34.53
-42.58
-56.29
-73.54
-90.38
-102.50
-107.18
-104.92
-99.55
-97.08
-103.33
-123.10
-157.99
-207.07
-268.47
-340.61
-422.24
-511.23
-603.90
-694.94
-781.07
-860.82
-935.39
-1008.00
-1081.53
-1156.54
-1230.00
-1296.19
-1347.95
-1381.32
-1394.30
-1388.39
-1369.48
-1347.09
-1331.70
-1330.27
-1342.32
-1341.57
-1299.21
-1188.35
-992.77
-713.67
-369.34
11.28
398.65
769.50
1108.09
1400.47
1634.47
1800.43
1894.71
1923.41
1901.97
1850.80
1788.83
1728.41
1672.31
1618.43
1563.91
1507.15
1447.30
1382.36
1308.21
1220.03
1115.55
996.55
870.67
748.85
640.81
551.77
481.06
423.68
373.50
325.82
278.57
232.89
192.42
161.49
143.33
138.14
142.31
148.95
150.59
141.07
118.38
85.34
47.70
11.40
-20.20
-47.46
-72.75
-98.01
-122.52
-142.77
-154.47
-155.57
-147.37
-133.06
-116.00
-95.80
-70.19
-37.36
0.76
37.80
65.14
76.41
70.76
52.82
29.35
4.20
-22.79
-54.01
-89.86
-126.30
-155.74
-170.87
-169.18
-152.39
-129.28
-109.53
-98.68
-96.42
-98.11
-98.49
-94.35
-85.57
-73.59
-59.87
-43.83
-22.74
6.81
47.08
99.06
161.15
228.16
292.06
342.85
371.82
374.27
350.94
307.07
249.58
184.60
116.44
48.57
-14.77
-67.45
-102.76
-116.87
-109.52
-87.84
-62.50
-42.81
-33.06
-32.04
-35.14
-37.52
-36.72
-33.01
-28.50
-24.94
-22.84
-21.60
-20.31
-18.51
-16.26
-14.34
-13.55
-14.50
-17.11
-20.70
-24.47
-27.90
-31.06
-34.46
-38.88
-44.98
-53.12
-63.13
-74.47
-86.68
-99.45
-113.02
-127.71
-144.01
-162.21
-182.14
-203.33
-224.73
-245.33
-263.99
-280.29
-293.63
-303.26
-308.62
-308.97
-303.98
-293.65
-278.10
-257.56
-232.61
-204.01
-172.41
-138.85
-104.12
-69.32
-35.38
-3.41
25.55
50.60
70.87
86.22
96.31
101.70
102.97
101.16
97.57
93.35
89.89
87.83
87.87
89.80
93.34
97.86
102.46
106.50
109.08
109.95
108.71
105.58
100.54
93.94
86.18
77.42
68.15
58.45
48.84
39.34
30.28
21.69
13.51
5.78
-1.86
-9.22
-16.46
-23.25
-29.51
-35.00
-39.68
-43.90
-47.78
-51.82
-55.87
-59.87
-63.19
-65.15
-65.22
-62.99
-58.77
-52.84
-46.02
-38.70
-31.13
-22.88
-13.25
-1.79
11.89
27.14
43.32
59.17
73.92
87.25
99.47
111.97
126.39
145.14
169.80
200.73
235.48
269.15
295.56
309.00
307.09
291.06
266.13
238.73
214.36
195.58
181.63
170.08
157.82
143.28
125.95
106.90
87.54
69.50
54.27
42.54
34.55
29.08
24.64
19.18
11.47
1.62
-9.12
-18.35
-24.43
-26.39
-25.17
-22.50
-20.49
-20.76
-23.49
-28.09
-32.81
-36.42
-38.03
-38.10
-37.87
-38.56
-41.02
-44.33
-46.88
-46.24
-41.20
-32.18
-21.56
-12.97
-9.24
-11.76
-19.00
-28.05
-35.16
-37.95
-36.05
-31.21
-26.53
-24.36
-25.92
-29.77
-33.43
-34.36
-31.63
-26.74
-22.43
-21.76
-25.32
-31.56
-36.36
-35.86
-28.50
-15.92
-2.81
6.30
8.40
4.49
-1.97
-6.49
-6.29
-1.96
3.54
5.82
2.59
-6.03
-17.02
-26.82
-32.83
-34.33
-32.29
-27.52
-20.82
-12.32
-2.96
5.25
9.33
6.34
-4.73
-22.83
-44.52
-66.67
-86.63
-103.19
-115.53
-122.00
-121.03
-112.10
-98.36
-85.91
-82.18
-90.99
-109.41
-127.76
-133.70
-119.31
-85.44
-43.32
-9.08
2.96
-12.75
-50.47
-95.83
-131.65
-145.07
-131.04
-93.46
-42.22
11.00
56.18
86.68
98.86
91.35
64.66
22.96
-24.56
-63.89
-79.50
-60.50
-5.54
75.51
165.58
247.43
310.65
354.62
385.92
413.72
444.29
479.19
515.73
550.22
579.68
602.50
617.35
622.00
613.31
587.67
543.59
482.55
408.79
328.20
246.33
166.80
90.69
18.11
-54.14
-130.13
-212.87
-302.25
-393.87
-479.25
-547.90
-590.15
-601.41
-584.91
-550.25
-509.80
-473.79
-446.80
-427.26
-409.74
-388.85
-362.38
-332.39
-303.31
-279.20
-261.59
-248.56
-235.59
-217.59
-190.26
-151.66
-102.18
-43.69
20.28
84.27
140.41
179.39
193.77
182.12
151.79
117.55
96.08
98.16
123.37
160.21
192.03
205.44
196.49
171.06
140.30
114.08
96.67
86.60
80.12
75.15
72.89
76.58
88.28
106.20
124.39
134.81
130.60
108.43
68.55
14.22
-49.73
-117.78
-184.01
-242.52
-288.34
-317.69
-330.02
-328.08
-316.77
-301.06
-284.39
-268.15
-252.21
-236.35
-220.43
-205.05
-189.64
-172.29
-149.81
-119.19
-79.41
-32.57
15.95
59.49
92.33
112.20
120.69
121.97
120.62
119.63
119.84
120.50
121.10
122.03
124.61
129.76
137.00
144.28
148.94
149.24
145.08
138.51
132.57
130.19
133.02
140.75
151.55
162.38
170.21
172.16
166.02
150.32
124.94
92.68
58.43
28.56
8.58
0.90
3.36
10.26
15.09
13.76
6.11
-4.02
-11.18
-11.29
-3.74
8.62
21.30
30.06
31.81
24.44
6.25
-23.45
-63.02
-107.49
-149.25
-179.94
-193.71
-188.53
-168.19
-140.31
-112.86
-91.04
-76.10
-66.32
-59.07
-52.55
-46.41
-41.24
-37.46
-34.89
-32.98
-31.61
-31.43
-33.59
-39.30
-48.95
-61.92
-76.48
-90.39
-101.56
-108.90
-112.54
-113.59
-113.53
-113.38
-113.41
-112.94
-111.04
-106.70
-99.69
-90.72
-81.10
-72.19
-64.59
-58.01
-50.96
-41.94
-29.70
-14.16
3.82
22.95
42.46
62.80
84.60
108.24
132.47
155.25
174.37
188.53
197.45
200.66
197.08
184.31
160.74
127.08
87.98
51.27
24.70
13.05
15.59
27.45
41.89
53.86
61.33
64.68
65.27
63.39
58.93
50.96
39.84
26.96
14.65
4.88
-2.33
-8.05
-14.64
-23.26
-34.04
-45.17
-54.08
-58.21
-55.70
-46.76
-32.75
-17.19
-3.84
3.64
3.89
-1.49
-8.65
-12.53
-10.19
-1.32
10.64
21.32
27.27
27.37
23.33
17.39
11.88
7.48
4.83
4.07
5.66
9.79
14.98
18.91
18.20
11.07
-2.43
-19.08
-33.85
-41.61
-38.92
-26.02
-6.09
15.02
32.18
42.17
45.06
43.25
39.29
35.38
31.88
29.14
27.12
26.29
26.68
26.98
25.64
21.02
14.03
7.26
4.53
7.73
15.19
21.92
21.49
10.03
-12.65
-41.93
-71.35
-94.35
-106.47
-106.80
-97.16
-81.78
-64.93
-50.58
-40.38
-34.14
-30.09
-25.48
-18.59
-8.41
4.19
17.97
31.07
42.29
51.20
57.82
62.87
65.96
66.55
63.21
55.47
44.79
34.38
27.78
25.98
26.64
24.06
13.13
-7.74
-34.54
-58.78
-72.25
-70.02
-53.36
-27.47
0.03
22.86
36.57
39.08
30.86
14.29
-5.68
-23.70
-34.88
-37.36
-32.18
-22.60
-12.41
-3.92
1.46
3.70
2.57
-1.76
-8.18
-14.81
-19.27
-20.98
-21.12
-23.26
-30.64
-44.53
-62.44
-78.56
-86.68
-82.10
-64.77
-38.03
-7.97
19.81
41.85
56.85
65.01
66.10
59.83
45.46
24.19
-0.42
-22.66
-36.35
-38.02
-27.72
-9.98
9.32
24.62
33.15
35.47
34.07
32.61
33.45
38.09
45.74
54.67
61.68
63.85
59.24
47.61
31.26
13.46
-1.73
-11.89
-15.99
-13.98
-6.60
4.93
17.64
27.34
28.27
16.49
-7.40
-37.22
-62.58
-74.51
-69.47
-52.20
-32.34
-19.71
-18.92
-27.66
-39.40
-47.56
-50.09
-49.38
-50.07
-54.52
-61.76
-68.43
-72.41
-75.24
-81.15
-93.72
-110.94
-124.62
-123.31
-98.71
-51.30
8.53
64.29
101.37
112.89
102.40
80.40
58.37
43.97
38.85
40.58
45.55
51.61
58.65
67.72
79.37
92.70
105.64
115.90
121.95
123.54
121.69
118.00
114.03
110.72
107.88
104.60
99.54
91.53
79.90
64.33
44.19
18.21
-15.13
-56.34
-103.26
-150.32
-189.39
-211.55
-211.84
-191.50
-157.67
-120.32
-88.31
-66.15
-53.53
-47.08
-43.17
-40.08
-37.99
-38.12
-40.94
-45.75
-50.75
-53.67
-52.27
-44.29
-28.43
-4.44
25.71
57.49
84.19
98.58
95.46
73.51
35.93
-11.01
-59.84
-104.17
-139.35
-162.52
-171.88
-166.23
-145.66
-111.47
-67.00
-16.80
34.01
80.34
117.48
140.65
146.25
131.80
98.20
50.11
-3.65
-51.64
-83.27
-91.72
-77.22
-46.18
-9.65
21.37
39.74
44.27
39.11
30.66
24.31
22.18
23.57
26.38
29.49
32.85
36.75
40.34
40.75
34.76
20.45
-0.66
-23.84
-42.68
-51.63
-48.48
-34.41
-13.44
9.99
32.16
51.06
66.36
78.44
88.04
95.42
100.53
102.93
102.27
98.46
91.85
83.22
73.52
63.61
54.03
45.05
36.68
28.87
21.57
14.79
8.63
3.12
-1.69
-5.85
-9.36
-12.29
-14.61
-16.31
-17.43
-18.01
-18.17
-18.06
-17.79
-17.41
-16.91
-16.22
-15.30
-14.11
-12.68
-11.07
-9.37
-7.63
-5.87
-4.09
-2.28
-0.43
1.47
3.41
5.36
7.34
9.37
11.44
13.57
15.71
17.80
19.78
21.52
22.86
23.59
23.45
22.21
19.61
15.45
9.59
1.93
-7.50
-18.60
-31.06
-44.51
-58.50
-72.55
-86.14
-98.74
-109.77
-118.66
-124.93
-127.99
-127.38
-122.83
-114.31
-102.09
-86.72
-69.03
-49.44
-29.51
-10.52
6.48
20.81
32.11
40.36
45.77
48.71
49.70
49.15
47.60
45.49
43.16
40.80
38.51
36.31
34.19
32.16
30.09
28.11
26.20
24.38
22.65
21.02
19.47
17.98
16.56
15.14
13.76
12.43
11.19
10.03
8.96
7.97
7.06
6.21
5.39
4.61
3.89
3.21
2.60
2.05
1.56
1.13
0.75
0.41
0.11
-0.16
-0.38
-0.55
-0.69
-0.79
-0.84
-0.87
-0.88
-0.87
-0.85
-0.83
-0.80
-0.78
-0.76
-0.73
-0.71
-0.69
-0.67
-0.66
-0.64
-0.62
-0.61
-0.59
-0.58
-0.56
-0.55
-0.54
-0.53
-0.52
-0.50
-0.49
-0.48
-0.47
-0.46
-0.45
-0.44
-0.43
-0.42
-0.41
-0.40
-0.40
-0.39
-0.38
-0.38
-0.37
-0.36
-0.35
-0.35
-0.33
-0.33
-0.32
-0.32
-0.31
-0.30
-0.30
-0.29
-0.29
-0.28
-0.28
-0.27
-0.27
-0.26
-0.25
-0.26
-0.25
-0.25
-0.24
-0.24
-0.23
-0.22
-0.21
-0.19
-0.18
-0.15
-0.12
-0.05
0.03
0.13
0.21
0.25
0.23
0.14
0.04
-0.05
-0.05
0.01
0.14
0.28
0.38
0.39
0.33
0.26
0.21
0.28
0.47
0.74
1.02
1.19
1.19
1.04
0.86
0.79
1.01
1.52
2.26
2.96
3.37
3.32
2.86
2.25
1.91
2.22
3.25
4.78
6.27
7.13
7.02
6.00
4.64
3.73
3.96
5.55
8.05
10.57
12.11
12.06
10.50
8.31
6.69
6.45
7.79
10.02
11.89
12.12
9.71
3.89
-5.67
-18.79
-34.01
-48.38
-57.86
-58.75
-49.61
-32.13
-11.55
6.21
16.84
19.37
16.03
10.50
5.79
2.93
1.25
-0.49
-2.73
-4.85
-5.71
-4.68
-2.08
0.84
2.79
2.78
0.90
-1.92
-4.43
-5.63
-5.19
-3.57
-1.72
-0.59
-0.80
-2.29
-4.45
-6.51
-7.81
-8.14
-7.73
-7.14
-6.90
-7.39
-8.59
-10.21
-11.87
-13.23
-14.21
-14.86
-15.45
-16.18
-17.24
-18.63
-20.22
-21.85
-23.33
-24.51
-25.26
-25.53
-25.22
-24.29
-22.68
-20.39
-17.42
-13.78
-9.48
-4.56
0.86
6.61
12.36
17.73
22.33
25.87
28.30
29.76
30.58
31.12
31.64
32.17
32.56
32.59
32.07
31.05
29.81
28.76
28.29
28.59
29.49
30.60
31.48
31.75
31.33
30.42
29.36
28.58
28.72
30.36
33.94
39.20
44.80
48.32
46.98
38.80
23.92
4.89
-14.12
-29.00
-37.32
-39.10
-36.20
-31.10
-25.54
-19.98
-14.15
-8.02
-2.45
0.94
0.71
-3.41
-10.19
-17.52
-23.23
-26.10
-26.06
-23.92
-20.68
-17.14
-13.92
-11.17
-9.56
-10.16
-13.57
-18.74
-22.34
-19.54
-5.94
20.09
55.88
94.63
127.75
147.84
151.45
139.83
117.78
91.28
65.42
43.44
26.82
16.06
11.32
12.70
19.98
32.31
47.76
63.47
76.44
84.18
85.48
80.33
69.76
55.48
39.82
25.63
15.87
12.96
17.85
28.82
40.47
45.22
36.06
9.43
-33.85
-89.28
-150.46
-210.91
-265.18
-309.98
-342.75
-360.08
-357.73
-333.26
-288.35
-228.83
-162.72
-97.37
-39.05
8.22
43.69
68.89
85.02
92.04
90.46
83.58
77.74
77.44
82.98
90.17
92.28
81.36
50.59
-2.27
-74.08
-143.20
-184.80
-189.59
-170.72
-147.74
-132.25
-125.40
-120.97
-110.07
-85.28
-46.27
0.55
46.10
83.24
108.36
121.57
126.27
127.34
128.81
130.45
129.04
121.95
110.27
98.18
90.37
90.01
96.38
104.88
107.36
95.67
66.37
23.13
-25.13
-68.42
-99.22
-115.38
-119.57
-117.47
-114.51
-113.38
-113.57
-113.12
-111.95
-108.70
-103.58
-96.74
-87.96
-76.69
-62.51
-45.56
-26.34
-7.81
7.60
17.56
20.96
18.82
14.69
13.97
22.02
41.71
71.47
106.08
137.88
160.35
170.72
170.48
163.93
155.41
148.14
140.93
132.21
120.56
105.94
89.64
73.42
58.56
45.31
32.78
20.53
8.32
-3.75
-15.06
-24.68
-31.73
-35.65
-36.57
-35.07
-32.30
-29.39
-27.32
-26.45
-26.73
-27.65
-28.54
-28.96
-28.50
-26.65
-22.64
-15.98
-7.25
1.00
4.54
-0.83
-17.09
-42.07
-69.74
-92.26
-103.29
-100.55
-86.47
-66.43
-45.59
-27.95
-14.17
-2.94
7.27
16.73
24.70
29.90
31.59
29.87
25.34
18.66
9.54
-2.59
-17.79
-34.26
-48.29
-55.44
-52.83
-41.02
-23.88
-7.89
1.55
2.23
-4.24
-14.02
-23.15
-29.35
-32.26
-32.51
-30.70
-26.58
-19.65
-9.86
1.92
14.05
24.77
32.59
37.16
38.93
38.85
37.82
36.28
34.06
30.74
25.86
19.41
12.04
4.86
-0.81
-4.01
-4.41
-2.43
1.12
4.98
8.04
9.60
9.50
7.96
5.40
2.27
-1.03
-3.94
-6.29
-7.93
-8.62
-8.04
-5.88
-1.81
4.26
12.24
22.27
33.69
45.60
57.14
67.58
76.54
83.86
89.55
93.62
96.51
97.74
96.60
92.58
85.71
76.69
66.83
57.68
46.72
35.93
26.45
18.18
10.32
2.15
-6.26
-13.94
-19.43
-21.48
-19.27
-13.99
-7.99
-3.55
-2.10
-3.52
-6.32
-8.32
-7.58
-2.43
7.18
20.00
33.33
43.00
44.17
32.84
7.88
-27.83
-67.47
-103.24
-129.23
-143.46
-148.33
-148.92
-150.28
-154.84
-161.21
-164.69
-159.76
-142.58
-113.05
-75.23
-35.93
-2.24
21.27
34.14
39.42
41.39
43.19
45.38
46.42
44.42
38.84
31.26
24.76
21.87
23.57
28.59
34.12
37.22
36.47
32.43
26.94
21.78
17.40
12.83
6.62
-1.82
-11.47
-19.91
-24.84
-25.22
-21.62
-15.77
-9.37
-3.09
3.62
11.47
20.02
26.83
28.05
20.34
2.73
-22.30
-49.46
-72.59
-86.84
-90.79
-85.58
-74.64
-61.02
-46.00
-29.53
-11.82
5.47
19.09
25.52
22.59
11.01
-5.16
-19.46
-24.63
-14.94
11.85
53.02
100.84
144.36
172.63
178.59
161.35
126.25
82.40
39.28
3.66
-21.52
-36.43
-42.73
-42.31
-36.96
-28.69
-20.41
-15.20
-15.60
-22.33
-33.73
-45.95
-53.86
-52.84
-40.59
-18.98
6.04
26.17
34.42
28.33
11.17
-9.52
-26.06
-34.51
-36.22
-36.09
-39.43
-48.36
-60.86
-71.85
-75.52
-67.66
-46.90
-15.22
21.92
56.02
77.93
81.46
66.39
39.62
12.80
-3.02
-2.19
13.29
35.85
57.26
73.04
84.14
94.51
106.72
118.44
122.78
111.69
81.04
34.46
-17.09
-59.37
-80.79
-77.54
-54.80
-23.94
2.70
17.05
17.62
8.40
-4.56
-16.62
-26.36
-35.13
-44.71
-55.57
-66.04
-72.98
-73.98
-69.12
-61.42
-55.42
-54.43
-58.27
-62.36
-59.67
-44.25
-14.79
24.05
63.71
95.61
115.14
122.37
120.40
112.33
99.70
83.20
65.13
50.53
45.50
53.37
71.31
90.42
99.66
91.81
67.13
33.51
1.94
-19.14
-27.40
-26.41
-22.19
-19.44
-19.48
-20.82
-21.60
-20.96
-19.94
-20.62
-24.31
-30.68
-37.95
-43.62
-45.57
-43.18
-37.23
-29.50
-21.91
-15.71
-11.27
-8.38
-6.49
-5.41
-5.44
-7.16
-11.00
-16.94
-24.34
-31.54
-38.08
-43.53
-47.99
-51.89
-55.58
-59.01
-61.75
-63.32
-63.34
-62.16
-60.41
-58.94
-58.62
-60.21
-64.30
-70.95
-78.88
-85.07
-85.39
-75.95
-55.32
-25.86
6.52
35.23
55.01
64.22
65.00
61.44
57.40
54.69
53.00
51.09
48.19
44.56
41.30
39.57
39.71
41.24
43.21
44.43
44.26
42.63
40.03
37.30
35.40
35.06
36.55
39.50
42.99
45.89
47.22
46.72
44.82
42.65
41.49
42.15
44.72
48.89
54.28
60.52
66.63
70.57
69.18
59.26
39.26
10.54
-22.49
-54.00
-79.01
-95.16
-103.07
-105.12
-103.91
-100.97
-96.88
-92.05
-87.44
-84.66
-85.49
-90.94
-100.44
-111.42
-119.59
-119.86
-108.44
-84.51
-51.22
-14.82
17.63
41.02
53.95
58.52
58.50
56.93
54.89
51.85
47.13
41.23
35.92
33.29
34.16
37.54
41.06
42.13
39.23
32.75
24.64
17.52
13.81
14.93
20.85
29.36
36.14
35.69
23.33
-2.64
-39.37
-79.91
-115.80
-139.72
-148.36
-142.99
-127.96
-108.02
-86.30
-63.82
-40.08
-15.91
7.07
26.57
40.63
48.76
52.06
52.56
52.57
53.32
54.80
56.28
56.70
55.28
51.97
47.47
42.88
39.30
37.37
36.99
37.67
38.57
38.81
37.81
35.51
32.33
29.12
26.78
25.96
26.82
28.86
31.06
32.27
31.75
29.48
26.33
23.62
22.53
23.30
25.21
26.59
25.62
21.14
12.81
0.98
-13.99
-31.82
-51.76
-71.75
-88.11
-96.77
-94.32
-81.38
-61.88
-41.56
-25.07
-13.79
-5.86
1.55
9.30
14.97
14.07
3.38
-16.17
-38.85
-56.58
-62.78
-55.27
-37.62
-16.36
2.19
14.96
22.41
26.99
31.23
36.03
40.82
44.31
45.65
44.68
42.05
38.95
36.39
35.10
35.41
37.26
40.12
43.19
45.45
46.00
44.45
41.06
36.80
32.95
30.40
29.25
28.39
25.94
19.77
8.54
-7.94
-28.88
-52.41
-75.57
-94.58
-105.02
-102.95
-86.32
-56.34
-18.58
17.83
42.95
50.17
39.45
17.51
-5.68
-22.15
-29.45
-30.82
-31.56
-34.40
-37.25
-34.77
-22.74
-1.37
22.51
39.89
44.70
37.06
22.76
9.40
2.06
1.35
4.08
6.07
4.96
0.85
-4.16
-7.58
-7.97
-5.41
-1.45
1.99
3.37
2.36
-0.25
-3.03
-4.62
-4.47
-2.91
-0.94
0.29
0.18
-1.17
-3.09
-4.76
-5.61
-5.68
-5.43
-5.52
-6.36
-7.94
-9.81
-11.38
-12.22
-12.39
-12.44
-13.09
-14.91
-17.89
-21.47
-24.75
-26.97
-27.82
-27.76
-27.85
-29.21
-32.50
-37.54
-43.32
-48.46
-51.86
-53.14
-52.98
-52.77
-53.72
-56.32
-59.84
-62.61
-62.56
-57.78
-46.88
-28.89
-3.84
26.59
58.57
86.39
103.95
107.20
95.66
74.40
51.30
33.58
24.90
24.44
28.38
32.57
34.87
35.36
35.40
35.91
36.49
35.87
32.98
27.85
21.76
16.41
13.25
12.72
13.95
15.43
15.70
14.01
10.67
6.70
3.37
1.55
1.39
2.23
3.07
3.07
1.96
0.10
-1.79
-3.06
-3.49
-3.36
-3.32
-3.92
-5.30
-7.01
-8.33
-8.67
-7.94
-6.79
-6.23
-7.19
-9.91
-13.70
-17.15
-18.82
-17.97
-15.09
-11.83
-10.24
-11.88
-16.91
-23.85
-30.14
-33.40
-32.52
-28.18
-22.75
-19.06
-19.13
-23.70
-32.18
-42.82
-53.19
-59.98
-59.12
-47.01
-22.52
10.62
44.06
67.46
73.67
62.84
42.78
25.73
21.50
33.12
55.31
78.15
92.12
93.02
82.46
65.60
48.02
33.01
22.12
15.62
13.68
16.26
21.89
27.33
28.24
21.53
6.62
-12.97
-31.53
-43.53
-45.82
-38.90
-25.90
-11.05
2.35
11.89
16.52
16.02
10.69
2.18
-7.28
-14.71
-17.84
-15.68
-9.34
-1.00
7.03
13.03
16.96
19.33
22.01
26.49
33.44
41.57
48.02
49.21
41.91
26.00
4.00
-18.57
-35.87
-44.34
-43.90
-37.73
-30.11
-24.63
-22.08
-21.58
-21.49
-21.35
-22.06
-24.92
-30.32
-36.71
-41.85
-43.38
-40.71
-35.60
-31.06
-30.41
-35.13
-44.46
-55.38
-64.49
-69.08
-69.12
-67.19
-66.86
-70.83
-78.52
-86.33
-88.91
-82.10
-64.68
-38.99
-9.57
20.51
51.08
81.76
112.23
140.82
163.90
177.46
178.69
167.08
145.68
119.35
92.69
68.73
48.45
32.20
21.28
16.98
19.39
27.21
37.77
47.33
52.56
51.61
39.65
18.69
-3.65
-20.83
-30.90
-35.51
-37.52
-38.78
-40.48
-42.96
-45.91
-49.58
-55.37
-63.62
-72.29
-78.32
-78.29
-70.17
-53.65
-30.11
-2.72
23.27
41.00
47.85
45.81
39.21
31.59
24.01
15.31
3.42
-12.54
-30.33
-44.82
-51.10
-47.24
-35.58
-21.25
-9.43
-3.07
-1.90
-3.24
-3.81
-2.15
0.89
3.17
3.11
0.76
-2.33
-4.29
-3.95
-1.05
3.01
6.32
7.30
5.55
2.08
-1.21
-2.48
-0.88
3.09
7.67
10.71
10.74
7.73
3.20
-0.53
-1.39
1.31
6.60
12.17
15.44
15.01
11.10
5.64
1.05
-0.68
1.11
5.96
12.89
20.55
26.83
28.30
21.07
2.66
-25.56
-57.26
-82.93
-93.80
-86.27
-63.72
-34.93
-9.53
6.50
12.82
13.33
12.68
13.30
14.54
14.29
11.17
5.98
1.14
-0.95
0.77
5.30
10.38
13.44
13.16
9.82
5.06
1.00
-0.72
0.34
3.32
6.64
8.72
8.76
6.93
4.19
1.76
0.51
0.67
1.85
3.33
4.47
4.96
4.86
4.43
3.96
3.55
3.22
2.94
2.79
2.91
3.47
4.43
5.49
6.17
6.05
5.02
3.43
2.08
1.77
2.98
5.50
8.45
10.61
11.01
9.57
6.89
4.28
3.03
3.84
6.63
10.84
15.59
19.69
21.58
19.52
12.36
0.50
-13.54
-25.70
-32.03
-30.59
-22.46
-11.12
-0.55
6.83
11.08
14.01
17.46
21.77
25.65
27.12
25.06
20.16
14.53
10.64
10.38
14.67
23.37
35.08
47.32
56.05
56.58
44.73
18.49
-20.53
-66.84
-112.30
-148.51
-168.85
-170.54
-154.17
-123.06
-81.39
-33.73
14.59
56.96
85.65
94.17
79.80
46.22
2.87
-37.66
-64.49
-72.43
-62.70
-41.76
-16.97
5.99
24.31
37.51
45.40
48.27
46.17
40.25
32.16
23.82
16.70
12.15
11.18
14.46
22.55
34.61
48.93
62.07
70.19
69.61
58.32
37.28
10.14
-17.08
-39.20
-53.08
-59.07
-59.53
-57.36
-54.49
-50.99
-46.95
-42.59
-39.51
-39.17
-42.03
-47.02
-51.81
-54.70
-54.84
-53.10
-50.77
-48.80
-47.17
-45.58
-44.00
-42.51
-40.92
-37.94
-31.89
-21.13
-5.63
12.64
30.38
44.03
52.07
55.43
57.58
62.66
73.84
91.47
112.62
132.54
145.94
148.71
138.68
115.38
80.48
38.82
-1.43
-30.86
-41.72
-32.14
-7.62
20.24
38.24
37.10
14.98
-22.43
-65.00
-102.71
-129.39
-142.76
-143.49
-133.07
-112.16
-80.78
-39.85
7.37
55.40
97.63
128.89
147.22
153.73
152.24
147.04
141.14
135.09
127.83
116.50
98.22
71.39
35.50
-8.07
-56.10
-103.66
-144.67
-173.25
-185.71
-181.81
-163.15
-135.97
-108.04
-85.62
-71.47
-64.99
-63.80
-65.79
-69.83
-75.39
-82.19
-88.93
-93.45
-94.01
-89.93
-82.20
-72.75
-64.05
-57.22
-52.25
-48.05
-42.99
-35.96
-26.81
-16.45
-6.31
2.25
8.84
13.47
16.92
20.18
23.81
28.32
33.97
41.36
50.80
61.97
73.34
82.57
87.99
88.81
85.73
80.02
72.88
65.04
56.97
49.59
44.27
42.82
46.16
53.55
62.00
66.91
64.11
51.39
30.08
4.62
-18.92
-35.11
-40.44
-33.81
-15.79
12.24
47.94
87.70
125.19
152.57
162.52
151.78
123.13
84.56
46.66
17.08
-0.98
-9.04
-10.52
-8.36
-4.27
0.89
5.91
9.76
12.16
15.02
21.32
33.27
50.36
68.07
79.80
79.31
64.36
37.85
6.97
-19.32
-34.03
-34.16
-22.20
-3.99
13.19
23.96
26.12
20.16
7.82
-10.18
-33.65
-62.92
-96.29
-129.62
-156.79
-171.85
-171.23
-154.51
-124.99
-87.64
-48.08
-10.69
21.99
49.69
74.20
97.94
123.07
149.20
173.85
192.76
201.54
197.46
179.72
150.27
112.29
70.43
29.26
-7.12
-35.77
-55.76
-67.98
-75.18
-80.12
-85.19
-90.82
-96.41
-100.68
-102.91
-103.55
-102.86
-101.37
-98.45
-93.03
-84.24
-72.33
-59.23
-47.64
-40.24
-37.21
-36.47
-33.77
-25.64
-11.69
4.16
14.75
13.61
-2.41
-30.04
-61.44
-87.12
-100.44
-100.11
-89.47
-74.45
-59.57
-47.39
-37.76
-30.11
-24.73
-23.05
-26.75
-35.41
-46.93
-57.17
-62.26
-59.90
-50.44
-36.64
-22.08
-10.17
-2.59
-0.08
-2.22
-8.37
-17.25
-27.18
-36.51
-43.47
-47.49
-48.60
-47.98
-46.39
-44.80
-43.89
-43.89
-45.08
-47.03
-49.98
-53.27
-55.70
-55.75
-52.15
-44.41
-32.50
-17.85
-2.08
13.10
27.14
41.13
57.67
80.27
111.34
150.81
194.60
235.72
265.76
277.75
268.38
238.82
194.51
143.62
95.63
59.23
40.70
42.09
60.17
87.05
112.08
125.82
122.82
103.68
73.59
39.75
8.49
-16.65
-34.81
-47.54
-56.91
-64.83
-72.22
-78.74
-83.26
-83.99
-79.77
-70.33
-57.32
-43.63
-33.20
-29.98
-36.58
-53.43
-77.82
-104.39
-126.17
-136.82
-133.00
-115.90
-90.79
-64.66
-43.60
-30.17
-23.36
-19.54
-14.40
-4.76
10.26
29.42
50.55
71.36
90.49
107.51
122.25
134.61
144.00
149.56
150.52
146.71
137.90
123.61
103.98
78.79
49.52
20.07
-3.82
-16.68
-15.82
-2.65
16.91
34.78
44.29
42.98
32.69
17.65
1.88
-12.36
-24.65
-35.38
-44.46
-51.15
-54.38
-53.77
-50.07
-45.00
-40.69
-38.72
-39.64
-42.85
-47.02
-50.52
-52.13
-51.58
-49.56
-47.52
-47.13
-49.58
-55.19
-63.19
-71.92
-79.51
-84.70
-87.45
-89.10
-91.84
-97.76
-107.64
-120.48
-133.55
-143.40
-147.36
-144.24
-134.21
-118.02
-95.31
-64.85
-25.98
19.48
66.59
107.95
136.47
148.21
143.54
126.08
100.28
69.78
37.37
7.14
-14.22
-18.33
1.09
43.49
99.00
150.12
178.04
170.61
128.19
63.68
-2.74
-52.52
-76.05
-75.10
-60.31
-44.62
-37.78
-42.88
-57.16
-75.15
-92.13
-106.30
-117.85
-127.40
-134.20
-136.08
-130.34
-115.64
-93.11
-65.88
-37.86
-11.43
13.33
37.97
63.55
88.66
108.72
117.65
110.84
87.95
54.04
17.69
-11.78
-27.78
-28.20
-14.97
7.74
35.55
64.76
92.64
116.87
135.50
147.21
151.64
149.76
143.34
134.64
125.32
116.21
107.12
97.32
86.11
73.22
59.18
45.11
32.34
21.80
13.76
7.76
2.92
-1.67
-6.60
-11.89
-17.11
-21.65
-25.03
-27.12
-28.16
-28.58
-28.84
-29.26
-29.88
-30.53
-30.98
-31.02
-30.63
-29.86
-28.87
-27.83
-26.85
-25.96
-25.14
-24.36
-23.45
-22.46
-21.41
-20.33
-19.23
-18.13
-17.04
-15.96
-14.90
-13.88
-12.90
-11.99
-11.13
-10.32
-9.57
-8.87
-8.22
-7.63
-7.07
-6.57
-6.13
-5.72
-5.34
-4.98
-4.64
-4.31
-4.00
-3.70
-3.40
-3.12
-2.84
-2.58
-2.32
-2.08
-1.84
-1.62
-1.41
-1.22
-1.04
-0.86
-0.69
-0.52
-0.34
-0.15
0.05
0.26
0.50
0.75
1.02
1.32
1.65
2.02
2.42
2.86
3.35
3.89
4.47
5.11
5.80
6.56
7.38
8.27
9.22
10.23
11.33
12.48
13.70
15.00
16.37
17.82
19.33
20.91
22.55
24.27
26.06
27.94
29.96
32.12
34.47
36.96
39.57
42.11
44.44
46.20
47.07
46.65
44.55
40.46
34.12
25.57
14.92
2.65
-10.75
-24.52
-37.82
-49.80
-59.64
-66.75
-70.66
-71.37
-69.08
-64.37
-57.99
-50.70
-43.31
-36.29
-30.10
-24.79
-20.32
-16.50
-13.23
-10.57
-8.45
-6.91
-5.58
-4.28
-2.69
-0.60
1.96
4.62
6.65
7.59
7.09
5.63
3.64
1.92
1.28
1.90
3.32
4.22
3.53
0.56
-4.07
-9.51
-14.34
-16.91
-16.71
-14.65
-13.29
-15.14
-21.73
-32.52
-46.15
-60.31
-71.92
-79.44
-83.89
-89.32
-101.13
-124.85
-159.74
-204.17
-253.55
-298.32
-327.62
-332.96
-311.93
-268.12
-209.48
-145.01
-82.35
-25.42
28.23
83.40
143.82
209.79
278.89
347.53
411.49
465.76
490.17
469.64
404.63
313.78
221.42
144.44
88.25
50.13
24.39
5.99
-5.34
-8.56
-4.29
3.36
8.04
5.06
-8.65
-31.96
-60.77
-86.66
-101.15
-99.22
-81.81
-54.75
-28.56
-13.37
-13.93
-29.70
-54.29
-79.60
-99.48
-111.57
-116.67
-116.51
-112.64
-103.11
-87.00
-65.22
-41.40
-21.57
-11.71
-14.54
-26.89
-40.28
-43.36
-29.64
0.17
39.38
78.86
111.82
136.72
157.69
176.11
194.94
212.28
221.65
215.52
189.34
144.11
86.34
26.09
-29.52
-69.38
-87.36
-86.18
-74.20
-59.55
-46.13
-34.24
-23.10
-12.77
-4.03
1.29
0.24
-8.03
-21.78
-37.71
-52.39
-63.40
-68.60
-66.56
-58.39
-46.66
-33.47
-20.03
-7.02
4.57
12.91
16.22
14.94
9.94
4.08
2.04
8.01
23.21
44.72
65.14
76.70
75.33
61.84
41.02
18.87
-0.26
-14.85
-25.57
-33.61
-39.15
-41.55
-40.46
-36.45
-31.09
-26.31
-23.77
-24.04
-26.52
-29.60
-31.54
-31.41
-29.26
-26.08
-23.27
-21.95
-22.57
-24.74
-27.48
-29.67
-30.71
-30.54
-29.79
-29.27
-29.64
-31.18
-33.68
-36.67
-39.47
-41.72
-43.19
-44.04
-44.45
-44.51
-44.17
-43.15
-41.25
-38.14
-34.07
-28.89
-22.90
-16.38
-9.70
-3.13
3.21
9.09
14.52
19.29
23.36
26.56
28.81
30.09
30.33
29.76
28.41
26.53
24.17
21.43
18.45
15.17
11.77
8.12
4.52
0.93
-2.46
-5.76
-9.14
-12.55
-16.22
-19.97
-23.80
-27.22
-29.98
-31.73
-32.42
-32.44
-31.82
-31.02
-30.05
-29.00
-27.45
-25.20
-22.16
-18.52
-15.03
-11.82
-9.36
-7.32
-5.41
-2.71
1.78
9.31
21.74
38.13
58.87
83.47
110.20
135.36
154.49
163.63
160.81
147.40
126.82
103.90
82.23
63.50
47.41
32.95
19.71
8.39
1.07
-0.73
3.83
14.03
28.18
44.58
62.05
80.00
97.26
112.17
121.44
122.10
112.96
96.21
77.22
62.84
58.53
62.24
69.09
71.64
64.17
45.44
18.86
-9.89
-36.03
-57.35
-74.12
-87.12
-96.99
-103.39
-105.61
-103.36
-97.36
-89.33
-81.35
-75.17
-71.23
-69.05
-67.38
-64.89
-60.73
-54.95
-48.30
-41.92
-36.87
-33.47
-31.56
-30.47
-29.40
-27.67
-25.03
-21.66
-18.00
-14.64
-11.93
-10.10
-9.13
-8.78
-8.70
-8.58
-8.16
-7.26
-5.91
-4.30
-2.63
-1.29
-0.78
-1.68
-4.53
-9.29
-14.72
-18.35
-17.23
-9.82
2.42
14.24
18.64
9.78
-13.69
-47.52
-83.56
-113.16
-130.41
-133.35
-123.03
-101.50
-71.01
-34.16
4.93
40.40
65.58
76.31
73.25
61.53
47.72
35.95
25.98
13.73
-5.35
-32.52
-63.95
-91.99
-108.27
-107.97
-91.77
-65.04
-34.79
-6.56
17.25
36.73
52.76
65.48
73.86
76.66
73.70
66.38
57.23
49.14
44.01
42.18
42.50
43.05
41.97
38.40
32.82
26.62
21.42
18.27
17.29
17.66
18.11
17.55
15.51
12.33
8.82
5.90
4.11
3.48
3.58
3.77
3.55
2.77
1.59
0.37
-0.56
-1.08
-1.30
-1.45
-1.74
-2.24
-2.83
-3.31
-3.49
-3.40
-3.21
-3.22
-3.67
-4.59
-5.73
-6.65
-6.93
-6.37
-5.18
-3.91
-3.25
-3.69
-5.24
-7.37
-9.17
-9.83
-8.93
-6.86
-4.51
-3.10
-3.47
-5.66
-8.81
-11.57
-12.77
-11.83
-9.08
-5.49
-2.30
-0.47
-0.67
-3.30
-8.31
-14.53
-19.16
-18.27
-8.11
12.40
40.67
70.67
95.01
107.95
107.56
96.02
77.32
56.88
37.79
20.83
5.67
-7.78
-18.81
-26.20
-29.31
-28.70
-25.84
-22.80
-21.24
-21.58
-23.17
-24.73
-25.06
-23.59
-20.64
-17.05
-14.03
-12.40
-12.27
-13.09
-13.98
-14.12
-13.17
-11.28
-8.98
-6.95
-5.69
-5.26
-5.38
-5.59
-5.49
-4.89
-3.88
-2.66
-1.55
-0.78
-0.35
-0.18
-0.07
0.12
0.46
0.94
1.50
2.05
2.52
2.90
3.21
3.47
3.68
3.87
4.02
4.15
4.23
4.30
4.34
4.36
4.36
4.34
4.31
4.29
4.32
4.38
4.48
4.59
4.68
4.72
4.74
4.77
4.83
4.95
5.10
5.23
5.28
5.19
4.93
4.51
3.97
3.34
2.66
1.92
1.09
0.08
-1.18
-2.75
-4.58
-6.59
-8.67
-10.74
-12.83
-15.09
-17.76
-21.04
-25.06
-29.68
-34.64
-39.61
-44.36
-48.99
-53.76
-59.18
-65.51
-72.85
-80.74
-88.48
-95.19
-100.17
-103.23
-104.37
-103.94
-101.93
-98.21
-91.77
-81.70
-67.30
-48.43
-25.67
0.32
29.04
60.33
93.32
126.04
154.99
176.49
188.67
192.34
190.70
187.01
182.21
174.06
158.98
134.32
100.64
61.86
23.04
-11.63
-40.32
-62.76
-78.63
-86.58
-84.41
-71.27
-49.25
-24.22
-3.62
5.79
0.50
-18.57
-46.82
-77.60
-104.40
-122.27
-129.18
-125.39
-112.90
-94.22
-71.52
-46.83
-22.21
0.28
18.72
31.67
39.03
41.58
41.04
39.42
38.27
38.47
39.95
42.07
44.08
45.39
45.89
45.86
45.74
45.79
45.97
45.84
44.80
42.34
38.36
33.24
27.78
22.96
19.44
17.38
16.36
15.52
13.98
11.23
7.40
3.32
0.10
-1.38
-0.81
1.28
3.71
5.11
4.61
2.22
-1.07
-3.76
-4.52
-2.69
1.36
6.53
11.33
14.34
14.25
10.10
1.82
-9.03
-19.08
-23.78
-19.16
-3.96
19.11
43.97
63.31
71.86
68.53
56.24
40.00
24.29
11.40
1.33
-7.01
-14.23
-19.75
-22.32
-21.06
-16.23
-9.34
-2.66
1.73
2.85
1.14
-1.72
-3.57
-2.80
1.15
7.38
14.01
18.94
20.88
19.73
16.60
13.59
12.19
13.24
16.55
21.38
26.55
30.45
31.13
25.77
12.17
-10.62
-40.61
-73.20
-102.49
-123.04
-132.36
-131.24
-123.47
-113.73
-106.47
-104.38
-107.48
-113.80
-119.91
-122.51
-119.14
-109.43
-94.34
-75.40
-53.72
-30.44
-7.70
11.74
23.92
26.31
19.62
8.97
1.90
4.72
19.67
42.72
66.65
83.80
90.24
86.28
75.04
61.30
48.48
39.02
33.71
33.00
35.99
40.74
44.65
44.89
40.27
31.64
22.04
14.31
9.90
8.38
8.17
8.00
7.17
6.54
6.31
6.29
5.92
5.34
5.83
8.83
15.05
21.98
25.50
20.90
6.52
-15.22
-38.75
-56.97
-65.28
-62.08
-49.56
-31.56
-13.12
1.25
8.79
8.75
3.29
-3.73
-7.85
-6.83
-1.29
5.85
11.32
13.30
11.39
7.05
0.78
-7.56
-18.35
-30.67
-41.77
-48.36
-48.31
-43.20
-36.98
-34.32
-37.07
-43.40
-49.04
-49.94
-45.45
-38.63
-34.71
-37.48
-47.29
-60.53
-71.57
-75.76
-71.14
-58.83
-41.18
-20.34
2.76
27.97
55.01
82.67
108.35
129.52
143.98
151.03
151.53
147.34
140.58
132.84
124.82
116.25
106.57
95.26
82.48
69.01
55.96
44.35
34.78
27.21
21.06
15.60
10.22
4.72
-0.72
-5.70
-9.83
-12.92
-15.06
-16.57
-17.78
-18.96
-20.17
-21.33
-22.28
-22.91
-23.17
-23.13
-22.88
-22.53
-22.16
-21.77
-21.34
-20.87
-20.34
-19.74
-19.09
-18.40
-17.70
-16.98
-16.25
-15.50
-14.74
-13.98
-13.24
-12.51
-11.71
-10.91
-10.14
-9.41
-8.73
-8.08
-7.50
-6.95
-6.44
-5.98
-5.56
-5.19
-4.85
-4.53
-4.24
-3.97
-3.73
-3.49
-3.28
-3.09
-2.92
-2.77
-2.62
-2.48
-2.36
-2.24
-2.12
-2.02
-1.93
-1.84
-1.76
-1.69
-1.63
-1.56
-1.50
-1.44
-1.38
-1.34
-1.29
-1.25
-1.21
-1.17
-1.13
-1.09
-1.06
-1.03
-1.01
-0.99
-0.97
-0.96
-0.92
-0.86
-0.81
-0.76
-0.76
-0.82
-0.93
-1.07
-1.17
-1.19
-1.12
-0.98
-0.83
-0.73
-0.71
-0.78
-0.90
-0.99
-0.99
-0.86
-0.66
-0.47
-0.41
-0.53
-0.83
-1.21
-1.49
-1.52
-1.24
-0.75
-0.31
-0.18
-0.54
-1.37
-2.37
-3.15
-3.32
-2.71
-1.59
-0.48
-0.01
-0.57
-2.10
-4.06
-5.63
-6.04
-4.98
-2.85
-0.63
0.62
0.16
-1.99
-4.97
-7.46
-8.42
-7.27
-4.43
-0.90
2.23
4.06
3.91
1.30
-3.69
-9.96
-14.85
-14.86
-6.99
9.50
31.88
54.57
71.20
77.44
72.26
59.15
42.99
27.91
15.72
5.95
-2.65
-10.71
-17.54
-21.69
-22.01
-18.78
-13.59
-8.59
-5.89
-6.30
-9.34
-13.29
-16.10
-16.14
-13.10
-7.98
-2.68
0.78
1.35
-1.00
-5.00
-8.94
-11.39
-11.74
-9.86
-5.92
-0.31
5.93
10.54
10.43
2.78
-13.30
-35.49
-58.48
-75.85
-82.83
-77.72
-63.56
-45.24
-27.21
-11.85
0.65
11.13
20.06
27.01
31.04
31.63
29.50
26.29
23.77
23.28
25.00
28.07
31.15
33.06
33.15
31.83
30.07
28.99
29.37
31.27
34.18
37.24
39.71
41.21
41.95
