1679581166.00
64.000000
-0.00
-0.00
-0.00
-0.00
-0.00
-0.00
-0.00
-0.00
-0.00
-0.00
0.00
0.01
0.01
-0.00
-0.03
-0.05
-0.05
0.00
0.13
0.36
0.66
1.01
1.37
1.72
2.06
2.40
2.79
3.24
3.80
4.42
5.06
5.66
6.20
6.68
7.15
7.68
8.31
9.14
10.09
11.04
11.88
12.56
13.14
13.76
14.65
15.96
17.91
20.32
22.90
25.38
27.58
29.57
31.68
34.32
37.81
42.54
48.15
54.10
59.83
64.97
69.58
74.14
79.34
85.71
93.76
103.00
112.62
121.73
129.77
136.75
143.30
150.75
157.77
166.64
177.95
191.79
206.97
220.57
228.25
225.36
208.53
176.87
132.76
80.05
23.07
-34.94
-92.44
-149.16
-205.23
-260.37
-313.74
-363.88
-409.83
-450.90
-486.49
-515.71
-537.18
-549.16
-549.87
-538.24
-514.04
-478.46
-433.62
-382.13
-326.64
-269.40
-212.13
-156.09
-102.31
-51.66
-5.12
36.44
72.37
102.38
126.63
145.61
160.03
170.61
177.97
182.50
184.49
184.17
181.81
177.78
172.46
166.27
159.56
152.58
145.46
138.29
131.10
123.93
116.86
109.95
103.27
96.87
90.80
85.05
79.66
74.62
69.94
65.64
61.72
58.18
55.02
52.24
49.83
47.81
46.16
44.88
43.95
43.32
42.94
42.71
42.50
42.14
41.46
40.28
38.44
35.82
32.37
28.07
22.98
17.24
11.07
4.70
-1.59
-7.54
-12.89
-17.46
-21.11
-23.76
-25.42
-26.14
-26.03
-25.21
-23.84
-22.05
-19.96
-17.67
-15.24
-12.72
-10.14
-7.54
-4.93
-2.32
0.29
2.91
5.55
8.22
10.96
13.74
16.55
19.40
22.31
25.30
28.41
31.68
35.17
38.94
42.90
47.02
51.27
55.64
60.13
64.76
69.59
74.65
80.06
85.64
91.31
97.01
102.73
108.43
114.11
119.79
125.50
131.30
136.92
142.16
146.81
150.65
153.40
154.70
154.04
150.68
145.96
140.32
134.05
127.32
120.27
112.99
105.61
98.24
91.05
84.26
77.75
71.50
65.53
59.87
54.56
49.65
45.16
41.13
37.62
34.43
31.44
28.56
25.72
22.91
20.12
17.38
14.75
12.32
10.03
7.86
5.84
3.97
2.27
0.78
-0.52
-1.60
-2.45
-3.14
-3.72
-4.24
-4.73
-5.23
-5.74
-6.27
-6.81
-7.33
-7.83
-8.30
-8.71
-9.03
-9.25
-9.38
-9.41
-9.39
-9.32
-9.23
-9.10
-8.89
-8.57
-8.12
-7.54
-6.86
-6.17
-5.51
-4.97
-4.56
-4.28
-4.12
-4.10
-4.21
-4.52
-5.08
-5.96
-7.15
-8.59
-10.17
-11.75
-13.26
-14.70
-16.19
-17.95
-20.16
-22.91
-26.12
-29.57
-32.98
-36.20
-39.24
-42.40
-46.09
-50.69
-56.38
-63.00
-70.09
-77.11
-83.71
-89.90
-96.12
-103.06
-111.39
-121.42
-132.95
-145.41
-158.08
-170.45
-182.38
-194.18
-206.48
-220.09
-235.96
-254.94
-277.41
-302.60
-328.29
-350.84
-366.10
-370.84
-363.89
-346.69
-322.60
-295.67
-269.15
-244.89
-223.35
-204.33
-187.55
-172.94
-160.33
-149.20
-138.50
-127.01
-113.84
-98.86
-82.83
-67.12
-53.11
-41.63
-32.74
-25.77
-19.69
-13.63
-7.20
-0.52
5.87
11.40
15.71
18.82
21.03
22.79
24.45
26.26
28.18
30.04
31.59
32.59
32.97
32.85
32.47
32.18
32.18
32.43
32.73
32.67
31.98
30.58
28.68
26.62
24.69
22.98
21.34
19.55
17.53
15.37
13.31
11.53
10.05
8.71
7.16
5.18
2.76
0.19
-2.08
-3.58
-4.12
-3.79
-3.07
-2.54
-2.78
-4.11
-6.53
-9.58
-12.49
-14.37
-14.49
-12.51
-8.65
-3.78
0.96
4.48
6.12
5.86
4.13
1.57
-1.28
-4.17
-7.14
-10.33
-13.84
-17.52
-21.01
-23.71
-24.97
-24.21
-21.09
-15.56
-7.98
0.99
10.48
19.58
27.49
33.66
37.90
40.41
41.67
42.38
43.17
44.40
46.10
47.92
49.43
50.27
50.37
49.90
49.16
48.31
47.34
46.03
44.12
41.40
37.85
33.63
29.03
24.38
20.00
16.12
12.83
10.08
7.66
5.30
2.72
-0.16
-3.23
-6.11
-8.30
-9.25
-8.61
-6.36
-2.78
1.55
6.01
10.08
13.49
16.28
18.67
20.91
23.23
25.63
27.96
29.98
31.50
32.43
32.90
33.09
33.22
33.41
33.66
33.83
33.78
33.45
32.86
32.08
31.18
30.13
28.84
27.24
25.34
23.27
21.27
19.53
18.14
17.00
15.80
14.22
12.08
9.42
6.57
3.95
1.92
0.62
-0.08
-0.48
-1.02
-2.01
-3.69
-6.03
-8.85
-11.80
-14.40
-16.20
-16.80
-16.02
-13.96
-11.02
-7.78
-4.81
-2.53
-1.05
-0.21
0.28
0.76
1.43
2.30
3.29
4.29
5.16
5.85
6.31
6.54
6.60
6.61
6.77
7.30
8.40
10.07
12.21
14.55
16.75
18.58
19.85
20.49
20.53
20.05
19.16
18.02
16.79
15.55
14.32
12.97
11.33
9.27
6.77
3.94
0.96
-2.02
-5.06
-8.35
-12.16
-16.70
-21.99
-27.82
-33.92
-39.91
-45.48
-50.29
-53.93
-55.93
-55.84
-53.43
-48.83
-42.64
-35.80
-29.27
-23.80
-19.67
-16.69
-14.36
-12.12
-9.54
-6.38
-2.66
1.48
5.81
10.16
14.38
18.36
22.03
25.34
28.32
31.09
33.77
36.44
39.01
41.22
42.73
43.28
42.81
41.53
39.76
37.89
36.08
34.38
32.71
30.93
28.94
26.71
24.28
21.79
19.45
17.44
15.86
14.61
13.38
11.86
9.79
7.13
4.09
1.02
-1.80
-4.23
-6.38
-8.54
-11.04
-14.17
-18.07
-22.64
-27.57
-32.31
-36.18
-38.51
-38.82
-36.90
-32.96
-27.50
-21.15
-14.52
-8.11
-2.17
3.23
8.07
12.38
16.07
19.11
21.53
23.37
24.78
25.84
26.62
27.10
27.31
27.27
27.13
26.98
26.97
27.16
27.57
28.15
28.81
29.45
29.92
30.19
30.22
30.08
29.83
29.48
28.89
27.94
26.52
24.63
22.41
20.11
17.98
16.27
15.05
14.29
13.81
13.28
12.42
11.01
9.02
6.58
3.94
1.33
-1.17
-3.68
-6.47
-9.88
-14.09
-19.08
-24.47
-29.60
-33.66
-35.90
-35.89
-33.69
-29.81
-25.05
-20.30
-16.15
-12.83
-10.20
-7.95
-5.85
-3.94
-2.50
-1.84
-2.12
-3.18
-4.55
-5.80
-6.63
-7.08
-7.35
-7.72
-8.31
-9.03
-9.73
-10.24
-10.58
-10.90
-11.45
-12.48
-14.06
-16.04
-18.06
-19.63
-20.18
-19.33
-16.96
-13.28
-8.78
-4.10
0.21
3.79
6.50
8.38
9.45
9.78
9.39
8.33
6.80
5.06
3.41
1.99
0.76
-0.58
-2.39
-4.91
-8.00
-11.06
-13.18
-13.46
-11.38
-7.04
-1.21
4.98
10.49
14.64
17.34
18.90
19.86
20.65
21.53
22.52
23.54
24.52
25.47
26.53
27.78
29.22
30.68
31.83
32.37
32.12
31.15
29.77
28.34
27.11
26.10
25.13
23.99
22.61
21.12
19.78
18.85
18.42
18.37
18.39
18.15
17.40
16.14
14.55
12.94
11.60
10.62
9.89
9.17
8.22
6.93
5.45
3.93
2.50
1.04
-0.75
-3.19
-6.35
-9.91
-13.28
-15.95
-17.82
-19.29
-21.05
-23.56
-26.56
-28.99
-29.32
-26.04
-18.19
-5.61
11.18
31.20
53.12
75.31
95.88
112.84
124.61
130.52
131.00
127.57
122.16
116.51
111.50
106.96
101.81
94.62
84.38
71.12
56.11
41.44
29.16
20.37
14.64
10.29
5.27
-1.81
-11.03
-21.31
-31.14
-39.45
-45.94
-51.03
-55.25
-58.73
-61.19
-62.09
-61.17
-58.74
-55.68
-53.11
-51.91
-52.42
-54.36
-57.03
-59.66
-61.75
-63.18
-64.14
-64.86
-65.34
-65.24
-63.93
-60.91
-56.06
-49.81
-42.98
-36.46
-30.77
-25.89
-21.28
-16.24
-10.27
-3.38
3.96
10.93
16.84
21.32
24.44
26.61
28.40
30.25
32.31
34.45
36.34
37.63
38.10
37.68
36.41
34.34
31.51
28.13
24.74
22.23
21.56
23.24
26.87
31.01
33.74
33.66
30.47
25.26
19.90
15.86
13.30
10.86
6.73
-0.03
-8.64
-17.02
-23.30
-27.27
-30.64
-35.95
-44.55
-55.28
-64.68
-68.65
-64.81
-53.60
-38.00
-21.74
-7.49
3.99
13.35
21.38
28.14
32.87
34.66
33.19
29.01
23.41
17.84
13.36
10.39
8.80
8.16
8.05
8.21
8.63
9.40
10.58
12.12
13.81
15.46
16.94
18.27
19.58
21.05
22.84
24.96
27.30
29.52
31.23
32.01
31.69
30.42
28.65
27.02
26.03
25.86
26.35
27.04
27.58
27.82
27.97
28.40
29.41
31.05
33.07
35.11
36.95
38.69
40.53
42.54
44.44
45.63
45.62
44.41
42.56
40.97
40.42
41.17
42.95
45.18
47.34
48.95
49.38
47.43
41.42
29.74
11.68
-11.97
-38.84
-65.74
-89.66
-108.65
-122.13
-130.56
-134.91
-136.07
-134.60
-130.80
-124.98
-117.61
-109.36
-101.04
-93.24
-86.28
-80.11
-74.43
-68.95
-63.59
-58.45
-53.76
-49.69
-46.25
-43.27
-40.56
-37.98
-35.55
-33.43
-31.84
-30.88
-30.51
-30.43
-30.24
-29.56
-28.11
-25.97
-23.40
-20.84
-18.63
-16.91
-15.62
-14.54
-13.51
-12.47
-11.55
-10.88
-10.58
-10.67
-11.08
-11.77
-12.58
-13.20
-13.03
-11.35
-7.65
-1.99
4.84
11.51
16.70
19.67
20.51
20.05
19.24
18.69
18.43
18.07
17.26
15.99
14.62
13.59
13.11
12.96
12.70
11.87
10.32
8.26
6.08
4.19
2.73
1.60
0.55
-0.73
-2.37
-4.36
-6.53
-8.69
-10.69
-12.43
-13.77
-14.54
-14.49
-13.44
-11.40
-8.61
-5.51
-2.58
-0.16
1.64
2.87
3.63
4.08
4.30
4.47
4.79
5.40
6.31
7.32
8.20
8.78
9.07
9.23
9.48
9.88
10.44
11.04
11.60
12.08
12.41
12.54
12.35
11.75
10.77
9.53
8.32
7.39
6.93
6.96
7.37
7.92
8.31
8.32
7.83
6.96
5.88
4.83
3.94
3.19
2.46
1.57
0.40
-1.10
-2.84
-4.71
-6.52
-8.13
-9.39
-10.27
-10.83
-11.26
-11.78
-12.53
-13.50
-14.55
-15.44
-15.92
-15.79
-15.00
-13.58
-11.70
-9.60
-7.53
-5.73
-4.38
-3.53
-3.09
-2.86
-2.62
-2.27
-1.81
-1.33
-0.95
-0.68
-0.46
-0.19
0.16
0.55
0.86
0.93
0.72
0.29
-0.20
-0.58
-0.77
-0.80
-0.77
-0.86
-1.23
-1.93
-2.97
-4.20
-5.39
-6.29
-6.74
-6.72
-6.34
-5.79
-5.16
-4.44
-3.51
-2.27
-0.76
0.85
2.19
3.00
3.11
2.60
1.69
0.64
-0.40
-1.49
-2.84
-4.70
-7.29
-10.68
-14.83
-19.53
-24.45
-29.14
-33.10
-35.78
-36.78
-35.95
-33.49
-29.90
-25.85
-21.97
-18.59
-15.73
-13.04
-10.08
-6.47
-2.12
2.69
7.46
11.62
14.75
16.77
17.85
18.32
18.52
18.66
18.85
19.20
19.82
20.89
22.59
25.02
28.05
31.46
34.94
38.21
41.23
44.19
47.44
51.31
55.84
60.67
65.04
68.11
69.20
68.16
65.25
61.07
56.14
50.75
44.97
38.83
32.51
26.44
21.13
16.93
13.83
11.48
9.29
6.77
3.69
0.22
-3.27
-6.32
-8.61
-10.08
-10.87
-11.25
-11.53
-12.00
-12.87
-14.17
-15.80
-17.42
-18.63
-19.05
-18.53
-17.28
-15.73
-14.39
-13.62
-13.52
-13.94
-14.66
-15.51
-16.37
-17.15
-17.64
-17.56
-16.65
-14.89
-12.56
-10.15
-8.16
-6.91
-6.40
-6.41
-6.67
-6.99
-7.32
-7.65
-7.93
-8.02
-7.68
-6.79
-5.43
-3.86
-2.44
-1.49
-1.12
-1.27
-1.74
-2.36
-3.01
-3.79
-4.79
-6.12
-7.83
-9.94
-12.44
-15.31
-18.47
-21.68
-24.54
-26.55
-27.26
-26.42
-24.13
-20.76
-16.89
-13.11
-9.83
-7.18
-5.01
-3.08
-1.09
1.07
3.38
5.63
7.64
9.22
10.32
10.97
11.26
11.28
11.20
11.19
11.39
11.87
12.58
13.37
14.03
14.38
14.35
13.99
13.40
12.69
11.97
11.31
10.79
10.43
10.21
10.04
9.69
8.98
7.76
6.03
4.01
1.94
0.09
-1.43
-2.68
-3.84
-5.05
-6.32
-7.54
-8.58
-9.35
-9.90
-10.36
-10.89
-11.51
-12.14
-12.58
-12.60
-12.04
-10.88
-9.20
-7.23
-5.23
-3.46
-2.15
-1.36
-1.07
-1.10
-1.24
-1.24
-0.88
-0.04
1.26
2.88
4.55
5.97
6.94
7.45
7.63
7.73
7.93
8.31
8.80
9.32
9.75
10.08
10.28
10.39
10.34
10.14
9.83
9.48
9.17
8.95
8.71
8.28
7.48
6.22
4.57
2.72
0.91
-0.71
-2.07
-3.24
-4.36
-5.61
-7.12
-8.97
-11.10
-13.35
-15.45
-17.06
-17.88
-17.74
-16.65
-14.77
-12.35
-9.69
-7.03
-4.57
-2.50
-0.90
0.29
1.31
2.41
3.82
5.58
7.49
9.25
10.62
11.51
12.07
12.47
12.88
13.28
13.66
13.93
14.09
14.17
14.18
14.05
13.72
13.15
12.43
11.73
11.22
11.03
11.19
11.59
12.10
12.60
12.94
13.03
12.87
12.47
11.89
11.10
10.07
8.69
6.94
4.84
2.48
-0.02
-2.55
-5.00
-7.16
-8.68
-9.22
-8.53
-6.75
-4.36
-1.99
-0.24
0.66
0.82
0.61
0.37
0.23
0.14
-0.08
-0.59
-1.44
-2.53
-3.76
-5.03
-6.21
-7.20
-7.91
-8.28
-8.41
-8.50
-8.82
-9.62
-11.02
-12.87
-14.74
-16.04
-16.20
-14.86
-12.06
-8.22
-4.02
-0.14
2.95
5.14
6.57
7.50
8.07
8.22
7.81
6.75
5.13
3.30
1.65
0.55
0.14
0.41
1.25
2.58
4.33
6.39
8.51
10.28
11.25
11.12
9.84
7.60
4.82
1.86
-0.99
-3.54
-5.66
-7.15
-7.80
-7.49
-6.30
-4.48
-2.44
-0.45
1.40
3.28
5.42
7.87
10.33
12.25
13.08
12.53
10.82
8.60
6.69
5.80
6.32
8.27
11.41
15.29
19.38
23.04
25.61
26.51
25.31
21.85
16.22
8.69
-0.41
-10.65
-21.54
-32.49
-42.92
-52.26
-60.10
-66.10
-70.02
-71.60
-70.67
-67.27
-61.74
-54.77
-47.24
-39.99
-33.50
-27.87
-22.82
-17.98
-13.07
-8.05
-3.20
1.15
4.65
7.13
8.67
9.51
10.02
10.47
11.00
11.60
12.14
12.50
12.69
12.87
13.29
14.18
15.59
17.47
19.60
21.77
23.83
25.65
27.10
28.00
28.17
27.51
26.12
24.19
22.01
19.79
17.53
15.03
12.02
8.26
3.70
-1.51
-7.02
-12.43
-17.36
-21.53
-24.80
-27.21
-28.96
-30.41
-31.93
-33.81
-36.05
-38.29
-39.98
-40.47
-39.42
-36.89
-33.32
-29.39
-25.68
-22.56
-20.06
-18.08
-16.35
-14.65
-12.81
-10.66
-8.20
-5.45
-2.64
-0.02
2.19
3.95
5.43
6.94
8.76
10.99
13.63
16.45
19.24
21.74
23.75
25.11
25.68
25.43
24.46
23.08
21.65
20.51
19.85
19.60
19.52
19.30
18.73
17.84
16.85
16.10
15.88
16.26
17.09
18.04
18.71
18.75
18.01
16.49
14.36
11.92
9.50
7.36
5.60
4.11
2.63
0.79
-1.68
-4.79
-8.23
-11.52
-14.20
-15.97
-16.88
-17.26
-17.52
-18.03
-18.88
-19.95
-20.97
-21.67
-21.84
-21.34
-20.07
-17.95
-15.06
-11.55
-7.78
-4.16
-0.98
1.67
3.90
5.95
8.04
10.25
12.48
14.51
16.17
17.39
18.18
18.59
18.72
18.61
18.29
17.78
17.15
16.43
15.67
14.87
14.05
13.21
12.38
11.57
10.78
9.92
8.91
7.64
6.05
4.20
2.25
0.34
-1.49
-3.32
-5.38
-7.92
-11.07
-14.82
-18.89
-22.78
-25.88
-27.52
-27.26
-24.99
-20.96
-15.78
-10.18
-4.82
-0.12
3.73
6.79
9.20
11.19
12.97
14.75
16.63
18.60
20.53
22.22
23.55
24.47
25.08
25.48
25.68
25.60
25.11
24.15
22.85
21.49
20.38
19.77
19.67
19.91
20.17
20.13
19.57
18.35
16.43
13.69
9.98
5.15
-0.80
-7.63
-14.84
-21.83
-28.08
-33.28
-37.36
-40.41
-42.62
-44.09
-45.01
-45.62
-46.20
-46.97
-47.95
-48.89
-49.35
-48.82
-47.03
-43.93
-39.83
-35.15
-30.35
-25.76
-21.57
-17.81
-14.39
-11.11
-7.75
-4.16
-0.34
3.56
7.28
10.60
13.35
15.49
17.08
18.24
19.10
19.82
20.51
21.24
22.01
22.74
23.25
23.43
23.19
22.58
21.67
20.59
19.38
18.07
16.68
15.27
13.86
12.47
11.05
9.49
7.67
5.51
3.05
0.36
-2.41
-5.15
-7.81
-10.46
-13.20
-16.18
-19.53
-23.34
-27.61
-32.26
-37.03
-41.42
-44.77
-46.32
-45.48
-42.04
-36.31
-29.16
-21.77
-15.23
-10.28
-7.08
-5.28
-4.24
-3.33
-2.11
-0.45
1.57
3.74
5.82
7.64
9.06
10.14
10.98
11.73
12.47
13.08
13.30
12.77
11.23
8.62
5.21
1.43
-2.25
-5.45
-8.04
-10.00
-11.53
-12.75
-13.84
-14.90
-16.07
-17.42
-18.90
-20.40
-21.74
-22.85
-23.70
-24.46
-25.34
-26.42
-27.66
-28.79
-29.59
-29.94
-30.07
-30.41
-31.41
-33.39
-36.21
-39.41
-42.29
-44.13
-44.27
-42.21
-37.67
-30.56
-21.21
-10.27
1.26
12.26
21.89
29.89
36.55
42.62
48.90
55.84
63.47
71.33
78.82
85.30
90.38
93.92
96.06
97.22
97.87
98.52
99.46
100.74
102.09
103.03
103.07
101.80
99.07
94.91
89.60
83.49
76.94
70.26
63.54
56.80
49.94
42.94
35.90
29.11
22.85
17.34
12.66
8.73
5.40
2.44
-0.34
-3.21
-6.49
-10.53
-15.65
-21.92
-29.09
-36.52
-43.20
-48.04
-50.16
-49.28
-45.80
-40.77
-35.44
-30.85
-27.42
-24.93
-22.73
-20.19
-16.98
-13.20
-9.18
-5.27
-1.63
1.74
4.94
7.96
10.71
12.99
14.67
15.77
16.44
16.97
17.50
18.09
18.59
18.75
18.37
17.35
15.81
13.98
12.21
10.70
9.51
8.53
7.55
6.35
4.83
3.00
1.04
-0.87
-2.64
-4.27
-5.97
-8.03
-10.77
-14.44
-19.06
-24.32
-29.58
-33.96
-36.51
-36.53
-33.80
-28.66
-21.99
-14.89
-8.38
-3.12
0.71
3.35
5.28
6.96
8.70
10.61
12.64
14.66
16.54
18.21
19.64
20.77
21.59
22.08
22.27
22.28
22.24
22.28
22.42
22.49
22.25
21.42
19.82
17.50
14.76
12.02
9.72
8.10
7.09
6.41
5.56
4.13
1.88
-1.10
-4.53
-7.95
-10.96
-13.35
-15.17
-16.67
-18.31
-20.54
-23.65
-27.68
-32.24
-36.59
-39.75
-40.81
-39.24
-35.05
-28.93
-21.94
-15.18
-9.44
-4.96
-1.51
1.45
4.38
7.57
10.95
14.28
17.22
19.60
21.46
22.96
24.40
25.92
27.54
29.18
30.72
32.03
33.08
33.83
34.20
34.06
33.28
31.78
29.57
26.83
23.75
20.54
17.38
14.37
11.61
9.12
6.89
4.90
3.15
1.59
0.16
-1.24
-2.72
-4.33
-6.08
-7.87
-9.56
-11.08
-12.52
-14.06
-16.04
-18.75
-22.32
-26.63
-31.29
-35.61
-38.82
-40.16
-39.20
-35.93
-30.86
-24.87
-18.87
-13.61
-9.42
-6.18
-3.54
-1.03
1.72
4.89
8.46
12.24
15.89
19.06
21.51
23.11
23.95
24.18
23.95
23.47
22.87
22.27
21.81
21.52
21.33
21.09
20.62
19.78
18.59
17.24
15.96
14.98
14.39
14.16
14.16
14.18
14.02
13.55
12.72
11.57
10.17
8.60
6.86
4.92
2.73
0.33
-2.17
-4.63
-6.99
-9.26
-11.57
-14.11
-16.98
-20.25
-23.84
-27.57
-31.13
-34.01
-35.55
-35.13
-32.39
-27.42
-20.94
-14.03
-7.84
-3.14
-0.13
1.54
2.56
3.54
4.81
6.41
8.13
9.76
11.17
12.37
13.42
14.31
14.99
15.40
15.46
15.18
14.66
14.01
13.26
12.38
11.27
9.73
7.65
5.05
2.09
-0.93
-3.66
-5.79
-7.18
-7.79
-7.74
-7.16
-6.17
-4.86
-3.30
-1.61
0.02
1.33
2.08
2.09
1.34
-0.04
-1.80
-3.68
-5.48
-7.10
-8.59
-10.10
-11.83
-13.87
-16.13
-18.33
-19.99
-20.59
-19.74
-17.39
-13.85
-9.76
-5.88
-2.88
-1.15
-0.67
-1.07
-1.77
-2.23
-2.19
-1.62
-0.78
0.04
0.66
1.13
1.66
2.43
3.45
4.53
5.36
5.70
5.49
4.94
4.34
3.99
3.92
3.94
3.68
2.83
1.24
-0.90
-3.15
-5.06
-6.26
-6.75
-6.74
-6.60
-6.65
-7.05
-7.76
-8.60
-9.47
-10.27
-11.06
-11.95
-13.08
-14.63
-16.70
-19.36
-22.50
-25.86
-28.91
-31.09
-31.82
-30.77
-28.01
-23.89
-18.94
-13.66
-8.47
-3.52
1.06
5.20
8.73
11.47
13.23
13.93
13.60
12.44
10.68
8.69
6.83
5.49
4.90
5.17
6.18
7.72
9.48
11.33
13.19
15.16
17.36
19.86
22.61
25.52
28.44
31.26
33.97
36.55
38.99
41.27
43.33
45.17
46.77
48.11
49.13
49.78
49.98
49.67
48.84
47.56
45.98
44.39
43.14
42.75
43.68
46.27
50.49
55.89
61.59
66.58
70.00
71.43
70.95
68.99
65.99
62.21
57.50
51.49
43.82
34.41
23.62
12.15
0.89
-9.41
-18.25
-25.53
-31.40
-36.14
-39.98
-43.05
-45.41
-47.15
-48.47
-49.68
-51.12
-53.08
-55.55
-58.21
-60.56
-62.06
-62.38
-61.57
-60.01
-58.21
-56.67
-55.66
-55.19
-55.15
-55.39
-55.83
-56.47
-57.30
-58.23
-59.03
-59.43
-59.11
-57.90
-55.80
-53.07
-50.13
-47.43
-45.32
-43.90
-43.04
-42.43
-41.81
-41.05
-40.16
-39.24
-38.34
-37.34
-36.04
-34.26
-31.89
-28.92
-25.35
-21.13
-16.10
-10.19
-3.47
3.64
10.55
16.67
21.50
24.81
26.57
26.92
26.16
24.76
23.34
22.62
23.22
25.48
29.29
34.19
39.53
44.69
49.23
52.91
55.70
57.61
58.74
59.23
59.33
59.41
59.87
61.05
63.07
65.76
68.73
71.43
73.47
74.71
75.33
75.75
76.44
77.64
79.24
80.68
81.17
79.97
76.65
71.26
64.29
56.45
48.30
40.08
31.69
22.92
13.69
4.14
-5.29
-14.17
-22.20
-29.36
-35.80
-41.72
-47.18
-52.06
-56.11
-59.09
-60.88
-61.60
-61.55
-61.17
-60.80
-60.66
-60.75
-60.99
-61.22
-61.34
-61.22
-60.66
-59.40
-57.12
-53.58
-48.72
-42.74
-35.99
-28.93
-22.05
-15.80
-10.54
-6.50
-3.76
-2.25
-1.83
-2.26
-3.33
-4.79
-6.38
-7.84
-8.93
-9.57
-9.86
-10.03
-10.31
-10.86
-11.65
-12.51
-13.30
-13.93
-14.52
-15.34
-16.72
-18.92
-22.01
-25.77
-29.75
-33.42
-36.24
-37.84
-38.02
-36.76
-34.19
-30.68
-26.68
-22.78
-19.54
-17.33
-16.16
-15.75
-15.54
-14.96
-13.58
-11.20
-7.93
-4.06
0.08
4.18
8.15
11.99
15.83
19.71
23.49
26.95
29.83
31.92
33.14
33.47
32.94
31.61
29.68
27.43
25.25
23.44
22.14
21.20
20.35
19.31
17.94
16.24
14.27
12.00
9.40
6.49
3.39
0.41
-2.13
-4.00
-5.16
-5.78
-6.06
-6.22
-6.40
-6.75
-7.47
-8.88
-11.22
-14.57
-18.71
-23.13
-27.11
-29.96
-31.14
-30.50
-28.22
-24.78
-20.89
-17.25
-14.38
-12.50
-11.54
-11.14
-10.88
-10.38
-9.38
-7.76
-5.57
-2.94
-0.16
2.43
4.45
5.60
5.75
5.03
3.81
2.52
1.56
1.12
1.14
1.37
1.50
1.35
0.84
0.06
-0.90
-1.94
-3.07
-4.28
-5.51
-6.65
-7.50
-7.91
-7.85
-7.45
-6.93
-6.58
-6.56
-6.91
-7.55
-8.38
-9.23
-9.98
-10.45
-10.33
-9.43
-7.67
-5.25
-2.60
-0.21
1.57
2.62
3.02
3.02
2.75
2.24
1.50
0.49
-0.77
-2.24
-3.90
-5.72
-7.63
-9.56
-11.40
-13.05
-14.51
-15.83
-17.08
-18.32
-19.56
-20.74
-21.89
-23.06
-24.32
-25.85
-27.79
-30.21
-33.01
-36.00
-38.77
-40.98
-42.32
-42.72
-42.33
-41.41
-40.23
-39.01
-37.87
-36.90
-36.20
-35.76
-35.48
-35.07
-34.12
-32.17
-28.92
-24.30
-18.50
-11.96
-5.18
1.32
7.12
11.95
15.78
18.77
21.21
23.36
25.31
26.97
28.13
28.71
28.91
29.18
30.03
31.86
34.69
38.28
42.25
46.33
50.44
54.63
58.95
63.29
67.45
71.23
74.51
77.33
79.80
82.00
83.90
85.31
85.81
84.90
82.15
77.31
70.52
62.32
53.43
44.50
35.88
27.53
19.20
10.69
2.06
-6.35
-14.12
-20.84
-26.32
-30.43
-33.10
-34.25
-33.86
-32.06
-29.18
-25.71
-22.17
-18.97
-16.32
-14.25
-12.66
-11.37
-10.21
-9.06
-7.99
-7.16
-6.71
-6.78
-7.34
-8.21
-9.16
-10.03
-10.80
-11.56
-12.37
-13.25
-14.11
-14.84
-15.35
-15.63
-15.75
-15.77
-15.71
-15.56
-15.34
-15.09
-14.93
-15.03
-15.52
-16.39
-17.52
-18.63
-19.48
-19.94
-20.07
-20.02
-19.97
-20.02
-20.11
-20.18
-20.16
-20.18
-20.46
-21.25
-22.65
-24.59
-26.73
-28.62
-29.74
-29.63
-28.05
-25.11
-21.23
-17.03
-13.17
-10.13
-8.09
-6.95
-6.41
-6.13
-5.84
-5.35
-4.53
-3.35
-1.82
-0.07
1.72
3.42
4.98
6.41
7.83
9.26
10.67
11.89
12.76
13.18
13.18
12.85
12.26
11.37
10.09
8.39
6.37
4.30
2.47
1.12
0.29
-0.10
-0.24
-0.24
-0.15
0.11
0.54
1.17
1.97
2.87
3.80
4.65
5.33
5.71
5.73
5.35
4.57
3.48
2.19
0.93
-0.01
-0.35
0.10
1.22
2.67
3.91
4.50
4.28
3.44
2.45
1.79
1.79
2.44
3.48
4.54
5.28
5.55
5.44
5.14
4.90
4.89
5.10
5.40
5.59
5.49
5.00
4.10
2.86
1.31
-0.50
-2.49
-4.53
-6.37
-7.81
-8.65
-8.83
-8.38
-7.45
-6.24
-4.95
-3.78
-2.88
-2.33
-2.14
-2.24
-2.51
-2.82
-3.06
-3.20
-3.28
-3.36
-3.62
-4.20
-5.24
-6.74
-8.56
-10.29
-11.45
-11.64
-10.62
-8.49
-5.66
-2.68
-0.10
1.74
2.73
2.97
2.64
1.98
1.25
0.67
0.43
0.60
1.13
1.83
2.48
2.88
2.98
2.80
2.41
1.87
1.23
0.57
-0.03
-0.43
-0.57
-0.44
-0.15
0.14
0.37
0.51
0.65
0.94
1.46
2.20
3.00
3.62
3.77
3.28
2.15
0.60
-1.01
-2.31
-3.09
-3.41
-3.53
-3.85
-4.68
-6.14
-8.07
-10.07
-11.64
-12.40
-12.13
-10.84
-8.83
-6.46
-4.12
-2.14
-0.68
0.22
0.62
0.70
0.63
0.53
0.46
0.46
0.52
0.70
1.07
1.69
2.53
3.49
4.41
5.11
5.50
5.51
5.17
4.49
3.49
2.24
0.87
-0.45
-1.54
-2.30
-2.73
-2.93
-3.10
-3.42
-3.99
-4.79
-5.72
-6.59
-7.26
-7.70
-8.02
-8.43
-9.19
-10.46
-12.23
-14.32
-16.40
-18.06
-18.93
-18.71
-17.27
-14.73
-11.41
-7.84
-4.60
-2.11
-0.56
0.14
0.31
0.34
0.48
0.83
1.29
1.75
2.13
2.40
2.65
2.96
3.36
3.80
4.19
4.44
4.51
4.42
4.18
3.83
3.35
2.72
1.91
0.94
-0.15
-1.27
-2.33
-3.24
-3.97
-4.59
-5.23
-6.05
-7.13
-8.41
-9.77
-11.05
-12.15
-13.05
-13.92
-15.02
-16.55
-18.65
-21.22
-23.93
-26.32
-27.84
-28.08
-26.92
-24.57
-21.51
-18.28
-15.28
-12.67
-10.37
-8.22
-6.09
-3.94
-1.84
0.11
1.81
3.23
4.36
5.22
5.84
6.31
6.69
7.05
7.49
8.04
8.67
9.37
10.01
10.50
10.70
10.54
10.02
9.22
8.27
7.37
6.69
6.34
6.32
6.53
6.69
6.49
5.71
4.26
2.30
0.13
-1.93
-3.75
-5.43
-7.29
-9.70
-12.87
-16.85
-21.33
-25.78
-29.48
-31.70
-31.92
-30.01
-26.27
-21.38
-16.17
-11.37
-7.31
-3.98
-1.06
1.72
4.50
7.17
9.47
11.21
12.33
13.02
13.54
14.19
15.18
16.55
18.24
20.10
22.03
23.89
25.58
27.00
28.07
28.66
28.70
28.21
27.28
26.15
25.13
24.48
24.30
24.47
24.66
24.37
23.13
20.66
17.02
12.45
7.44
2.44
-2.16
-6.24
-9.86
-13.34
-17.15
-21.76
-27.50
-34.31
-41.75
-48.87
-54.43
-57.21
-56.40
-51.84
-44.16
-34.60
-24.59
-15.38
-7.73
-1.75
2.92
6.86
10.59
14.32
17.92
21.05
23.33
24.53
24.66
23.95
22.76
21.39
20.07
18.83
17.70
16.67
15.79
15.06
14.43
13.75
12.90
11.82
10.54
9.28
8.30
7.80
7.81
8.15
8.51
8.57
8.16
7.38
6.54
6.05
6.19
6.92
7.87
8.38
7.74
5.36
0.93
-5.59
-13.95
-23.60
-33.59
-42.72
-49.71
-53.57
-53.89
-51.05
-46.00
-39.96
-33.93
-28.36
-23.18
-17.94
-12.09
-5.35
2.26
10.40
18.61
26.45
33.67
40.25
46.24
51.70
56.58
60.67
63.71
65.48
65.85
64.78
62.33
58.59
53.75
48.08
41.94
35.68
29.57
23.71
18.04
12.46
6.84
1.15
-4.62
-10.45
-16.25
-21.94
-27.29
-32.07
-36.01
-38.96
-40.97
-42.29
-43.40
-44.82
-46.90
-49.65
-52.60
-54.85
-55.42
-53.56
-49.13
-42.71
-35.40
-28.37
-22.44
-17.84
-14.30
-11.35
-8.57
-5.80
-2.99
-0.12
2.95
6.40
10.32
14.65
19.16
23.61
27.89
31.96
35.86
39.56
42.86
45.54
47.42
48.53
49.02
49.07
48.72
47.84
46.25
43.83
40.67
37.04
33.24
29.39
25.38
20.89
15.62
9.45
2.53
-4.83
-12.18
-19.09
-25.12
-29.81
-32.78
-33.85
-33.17
-31.29
-29.05
-27.36
-26.79
-27.46
-28.93
-30.40
-31.07
-30.31
-27.89
-24.04
-19.22
-14.03
-8.94
-4.18
0.36
4.94
9.87
15.30
21.18
27.30
33.32
38.94
43.95
48.22
51.70
54.37
56.23
57.26
57.51
56.97
55.59
53.32
50.06
45.90
41.08
36.03
31.27
27.25
24.25
22.29
21.25
20.91
21.09
21.67
22.51
23.46
24.24
24.58
24.29
23.31
21.75
19.92
18.18
16.81
16.00
15.67
15.57
15.33
14.56
12.89
10.18
6.47
2.01
-2.69
-6.98
-10.17
-11.78
-11.63
-10.01
-7.56
-5.06
-3.15
-2.15
-1.97
-2.30
-2.75
-3.10
-3.29
-3.40
-3.49
-3.52
-3.41
-3.00
-2.25
-1.20
-0.05
0.99
1.79
2.32
2.79
3.47
4.56
6.09
7.92
9.68
11.07
11.89
12.19
12.23
12.28
12.52
12.96
13.38
13.47
13.01
11.90
10.25
8.30
6.33
4.53
3.02
1.77
0.67
-0.43
-1.73
-3.43
-5.59
-8.08
-10.54
-12.37
-13.04
-12.20
-9.87
-6.50
-2.83
0.45
2.88
4.43
5.37
6.13
7.07
8.38
10.00
11.81
13.66
15.44
17.09
18.58
19.84
20.79
21.41
21.70
21.67
21.37
20.82
20.09
19.28
18.46
17.71
16.94
15.99
14.64
12.77
10.41
7.78
5.16
2.79
0.78
-0.98
-2.74
-4.74
-7.06
-9.62
-12.15
-14.37
-16.07
-17.31
-18.35
-19.59
-21.41
-24.02
-27.46
-31.52
-35.80
-39.73
-42.64
-43.86
-42.93
-39.80
-34.89
-29.00
-23.03
-17.72
-13.42
-10.05
-7.36
-5.01
-2.77
-0.55
1.65
3.76
5.69
7.27
8.37
8.94
9.07
8.93
8.79
8.89
9.28
9.87
10.38
10.57
10.28
9.56
8.61
7.76
7.22
7.02
7.02
6.89
6.36
5.30
3.78
1.95
-0.02
-2.05
-4.14
-6.30
-8.47
-10.57
-12.49
-14.18
-15.68
-17.05
-18.34
-19.57
-20.75
-21.96
-23.38
-25.25
-27.74
-30.75
-33.94
-36.75
-38.60
-39.07
-38.02
-35.58
-32.08
-27.96
-23.64
-19.55
-15.98
-13.11
-10.88
-9.11
-7.51
-5.85
-4.04
-2.18
-0.49
0.89
1.97
3.02
4.38
6.36
9.01
12.07
15.15
17.82
19.82
21.13
21.84
22.07
21.86
21.17
19.96
18.26
16.20
13.98
11.78
9.68
7.68
5.78
4.10
2.88
2.55
3.50
5.94
9.70
14.23
18.78
22.55
25.05
26.15
26.09
25.24
23.92
22.24
20.06
17.17
13.46
9.09
4.59
0.64
-2.12
-3.41
-3.49
-3.11
-3.20
-4.50
-7.23
-10.99
-14.96
-18.24
-20.20
-20.68
-19.92
-18.38
-16.53
-14.65
-12.93
-11.43
-10.13
-8.92
-7.47
-5.29
-1.79
3.37
10.15
17.98
25.92
32.92
38.21
41.45
42.81
42.76
41.84
40.50
39.01
37.48
35.97
34.48
32.98
31.41
29.63
27.46
24.78
21.54
17.85
13.92
9.89
5.79
1.38
-3.66
-9.59
-16.29
-23.16
-29.18
-33.32
-34.92
-34.02
-31.32
-27.86
-24.62
-22.16
-20.52
-19.41
-18.54
-17.77
-17.17
-16.83
-16.66
-16.35
-15.44
-13.54
-10.56
-6.83
-3.01
0.19
2.23
2.98
2.68
1.74
0.59
-0.52
-1.49
-2.35
-3.09
-3.60
-3.74
-3.43
-2.78
-2.07
-1.71
-2.07
-3.31
-5.37
-7.97
-10.71
-13.23
-15.26
-16.76
-17.92
-19.10
-20.74
-23.24
-26.74
-31.10
-35.77
-40.02
-43.08
-44.45
-44.03
-42.14
-39.35
-36.27
-33.36
-30.77
-28.44
-26.21
-23.95
-21.64
-19.44
-17.58
-16.28
-15.67
-15.78
-16.53
-17.71
-19.14
-20.65
-22.03
-23.14
-23.84
-24.07
-23.81
-23.20
-22.46
-21.90
-21.75
-22.20
-23.28
-24.83
-26.60
-28.16
-29.11
-29.04
-27.66
-24.95
-21.14
-16.74
-12.31
-8.35
-5.13
-2.70
-0.94
0.29
1.04
1.32
1.07
0.33
-0.72
-1.80
-2.61
-2.88
-2.56
-1.82
-1.02
-0.59
-0.75
-1.50
-2.49
-3.23
-3.27
-2.40
-0.73
1.53
4.05
6.56
8.77
10.36
10.99
10.37
8.45
5.49
2.03
-1.35
-4.22
-6.46
-8.31
-10.16
-12.37
-15.07
-18.12
-21.17
-23.80
-25.69
-26.65
-26.57
-25.37
-22.93
-19.17
-14.21
-8.43
-2.45
3.10
7.78
11.44
14.27
16.63
18.89
21.31
23.99
26.94
30.11
33.36
36.44
38.99
40.66
41.33
41.19
40.79
40.82
41.86
44.10
47.26
50.70
53.73
55.93
57.21
57.86
58.19
58.47
58.72
58.82
58.55
57.76
56.40
54.51
52.19
49.51
46.51
43.18
39.51
35.50
31.16
26.51
21.67
16.78
12.01
7.56
3.51
-0.14
-3.52
-6.77
-10.02
-13.20
-16.07
-18.28
-19.40
-19.08
-17.14
-13.59
-8.66
-2.81
3.36
9.25
14.33
18.44
21.57
23.91
25.55
26.37
26.07
24.32
20.86
15.71
9.08
1.21
-7.60
-17.04
-26.64
-35.70
-43.39
-48.88
-51.71
-51.85
-49.77
-46.20
-41.82
-37.19
-32.53
-27.90
-23.27
-18.69
-14.28
-10.31
-6.99
-4.43
-2.43
-0.47
2.06
5.58
10.04
14.88
19.22
22.35
24.17
25.30
26.85
29.88
34.94
41.93
50.24
59.10
67.89
76.16
83.47
89.45
93.70
96.18
97.21
97.33
97.07
96.55
95.39
92.95
88.72
82.77
75.94
69.57
65.06
63.41
64.82
68.62
73.29
76.71
76.41
70.06
56.03
33.89
4.87
-28.16
-61.33
-90.73
-113.50
-128.55
-136.49
-138.95
-137.71
-133.94
-128.13
-120.43
-111.16
-101.05
-91.07
-81.97
-73.88
-66.34
-58.62
-50.22
-41.30
-32.49
-24.71
-18.59
-14.32
-11.60
-9.92
-8.82
-8.10
-7.80
-7.98
-8.64
-9.60
-10.52
-11.06
-11.00
-10.26
-8.91
-7.15
-5.13
-3.01
-0.77
1.68
4.54
7.94
11.95
16.41
21.03
25.52
29.64
33.37
36.90
40.53
44.50
48.80
53.24
57.46
61.17
64.27
66.85
69.18
71.57
74.26
77.27
80.41
83.27
85.40
86.42
86.12
84.42
81.19
76.21
69.15
59.74
47.94
34.06
18.65
2.34
-14.36
-31.10
-47.61
-63.50
-78.18
-91.02
-101.56
-109.72
-115.82
-120.36
-123.81
-126.35
-127.97
-128.56
-128.09
-126.73
-124.70
-122.00
-118.36
-113.30
-106.39
-97.56
-87.27
-76.43
-66.12
-57.31
-50.62
-46.16
-43.58
-42.17
-41.09
-39.63
-37.45
-34.72
-31.97
-29.83
-28.66
-28.35
-28.48
-28.49
-28.09
-27.35
-26.57
-26.05
-25.93
-26.19
-26.75
-27.54
-28.65
-30.08
-31.74
-33.37
-34.70
-35.54
-35.92
-36.05
-36.14
-36.37
-36.71
-36.98
-36.96
-36.38
-35.07
-32.95
-30.02
-26.35
-22.01
-17.01
-11.31
-4.87
2.23
9.76
17.27
24.25
30.28
35.14
38.99
42.19
45.19
48.26
51.34
54.11
56.10
56.88
56.26
54.35
51.53
48.35
45.44
43.26
42.09
41.82
41.93
41.65
40.22
37.22
32.80
27.60
22.54
18.33
15.19
12.80
10.54
7.86
4.49
0.54
-3.63
-7.72
-11.55
-15.08
-18.34
-21.25
-23.64
-25.42
-26.55
-27.19
-27.56
-27.91
-28.32
-28.74
-29.05
-29.13
-28.93
-28.41
-27.62
-26.59
-25.42
-24.27
-23.38
-23.03
-23.40
-24.50
-26.09
-27.72
-28.98
-29.58
-29.64
-29.47
-29.60
-30.51
-32.52
-35.68
-39.77
-44.35
-48.68
-51.88
-52.98
-51.39
-47.06
-40.58
-33.09
-25.78
-19.52
-14.55
-10.56
-6.93
-3.17
0.95
5.30
9.55
13.40
16.64
19.34
21.63
23.72
25.72
27.63
29.41
30.98
32.34
33.52
34.60
35.56
36.32
36.64
36.31
35.24
33.43
31.13
28.63
26.19
23.94
21.91
19.95
17.99
15.99
14.07
12.37
10.91
9.60
8.12
6.18
3.61
0.48
-2.85
-6.03
-8.80
-11.23
-13.64
-16.51
-20.20
-24.79
-30.01
-35.17
-39.42
-41.85
-41.83
-39.18
-34.21
-27.69
-20.62
-13.91
-8.17
-3.60
0.05
3.24
6.53
10.26
14.50
19.04
23.47
27.33
30.27
32.17
33.12
33.40
33.31
33.14
33.06
33.12
33.31
33.59
33.86
34.02
33.97
33.61
32.88
31.79
30.47
29.09
27.83
26.81
25.99
25.27
24.45
23.39
22.01
20.40
18.61
16.70
14.60
12.20
9.41
6.28
2.99
-0.20
-3.06
-5.54
-7.79
-10.17
-13.06
-16.75
-21.28
-26.37
-31.40
-35.51
-37.76
-37.39
-34.10
-28.20
-20.58
-12.41
-4.87
1.22
5.57
8.38
10.17
11.58
13.11
15.03
17.35
19.88
22.35
24.48
26.13
27.30
28.13
28.78
29.44
30.18
30.99
31.77
32.44
32.89
33.03
32.81
32.10
30.87
29.10
26.91
24.48
22.06
19.90
18.11
16.67
15.45
14.26
12.91
11.30
9.37
7.19
4.84
2.43
0.05
-2.28
-4.54
-6.74
-8.92
-11.16
-13.60
-16.36
-19.49
-22.77
-25.77
-27.82
-28.23
-26.51
-22.53
-16.60
-9.41
-1.82
5.33
11.36
15.91
18.92
20.62
21.40
21.67
21.73
21.67
21.40
20.75
19.56
17.82
15.65
13.29
10.93
8.69
6.60
4.71
3.10
1.89
1.12
0.68
0.28
-0.41
-1.62
-3.36
-5.39
-7.37
-9.08
-10.55
-12.02
-13.76
-15.91
-18.36
-20.73
-22.65
-23.88
-24.42
-24.46
-24.34
-24.36
-24.82
-25.96
-27.88
-30.45
-33.18
-35.29
-35.80
-33.99
-29.62
-23.14
-15.49
-7.82
-1.08
4.26
8.18
11.02
13.26
15.27
17.27
19.36
21.48
23.57
25.49
27.11
28.31
29.01
29.19
28.89
28.24
27.44
26.65
25.95
25.25
24.37
23.11
21.40
19.41
17.38
15.63
14.28
13.25
12.27
11.09
9.61
7.91
6.22
4.70
3.42
2.25
1.03
-0.38
-2.02
-3.93
-6.15
-8.73
-11.59
-14.44
-16.67
-17.52
-16.37
-13.12
-8.18
-2.49
2.86
7.02
9.66
10.95
11.43
11.62
11.86
12.19
12.40
12.22
11.54
10.42
9.13
7.96
7.17
6.82
6.85
7.06
7.27
7.38
7.33
7.11
6.69
6.04
5.12
3.98
2.69
1.36
0.12
-1.01
-2.03
-3.03
-4.09
-5.29
-6.60
-7.91
-9.01
-9.74
-10.16
-10.50
-11.26
-12.87
-15.48
-18.74
-21.86
-23.78
-23.68
-21.30
-17.07
-11.96
-7.04
-3.12
-0.46
1.15
2.31
3.60
5.42
7.83
10.59
13.29
15.54
17.11
18.02
18.45
18.61
18.64
18.53
18.17
17.49
16.49
15.26
13.97
12.75
11.64
10.66
9.76
8.89
7.92
6.74
5.23
3.34
1.15
-1.17
-3.43
-5.44
-7.23
-8.97
-10.94
-13.41
-16.53
-20.17
-23.97
-27.33
-29.55
-30.04
-28.47
-24.89
-19.78
-13.90
-8.13
-3.12
0.78
3.57
5.59
7.20
8.74
10.31
11.83
13.11
13.94
14.25
14.12
13.79
13.49
13.44
13.64
14.00
14.37
14.60
14.62
14.36
13.76
12.82
11.49
9.78
7.82
5.71
3.56
1.42
-0.72
-2.84
-4.95
-7.01
-9.00
-10.93
-12.82
-14.82
-17.01
-19.50
-22.32
-25.49
-28.80
-31.87
-34.12
-34.86
-33.64
-30.40
-25.65
-20.22
-15.03
-10.71
-7.44
-4.98
-2.86
-0.63
1.95
4.88
7.97
10.94
13.52
15.56
16.96
17.78
18.10
18.04
17.70
17.12
16.35
15.41
14.31
13.09
11.80
10.53
9.39
8.50
7.94
7.68
7.60
7.46
7.01
6.14
4.84
3.22
1.51
-0.12
-1.63
-3.07
-4.61
-6.51
-8.98
-12.07
-15.58
-19.00
-21.62
-22.76
-21.98
-19.30
-15.24
-10.64
-6.35
-2.99
-0.80
0.39
1.03
1.63
2.67
4.38
6.70
9.37
12.00
14.26
15.98
17.24
18.24
19.15
20.05
20.86
21.41
21.61
21.44
21.02
20.43
19.73
18.88
17.81
16.44
14.80
12.89
10.77
8.46
5.98
3.41
0.89
-1.41
-3.37
-5.03
-6.62
-8.49
-10.99
-14.32
-18.40
-22.83
-26.98
-30.04
-31.35
-30.52
-27.63
-23.20
-18.06
-13.06
-8.89
-5.81
-3.70
-2.14
-0.69
0.98
2.96
5.09
7.16
8.94
10.25
11.07
11.44
11.49
11.39
11.30
11.32
11.51
11.79
11.99
11.95
11.50
10.56
9.13
7.25
4.99
2.46
-0.20
-2.76
-4.99
-6.67
-7.71
-8.15
-8.17
-8.05
-8.03
-8.33
-9.03
-10.16
-11.72
-13.61
-15.65
-17.54
-18.82
-18.99
-17.71
-14.93
-10.94
-6.40
-2.01
1.63
4.25
5.92
6.91
7.58
8.12
8.57
8.87
8.93
8.80
8.59
8.44
8.35
8.23
7.91
7.33
6.54
5.79
5.33
5.25
5.46
5.66
5.61
5.14
4.27
3.16
1.99
0.92
0.02
-0.69
-1.28
-1.85
-2.51
-3.36
-4.37
-5.44
-6.36
-7.04
-7.48
-7.88
-8.54
-9.68
-11.38
-13.45
-15.50
-17.02
-17.52
-16.65
-14.38
-10.99
-7.02
-3.16
0.07
2.37
3.75
4.48
4.83
5.05
5.26
5.47
5.64
5.72
5.68
5.53
5.30
5.04
4.80
4.65
4.65
4.81
5.10
5.46
5.78
5.93
5.81
5.37
4.60
3.58
2.44
1.36
0.43
-0.26
-0.66
-0.82
-0.80
-0.73
-0.75
-1.01
-1.65
-2.77
-4.47
-6.80
-9.72
-13.02
-16.36
-19.20
-20.91
-21.02
-19.28
-15.92
-11.56
-7.04
-3.11
-0.21
1.62
2.71
3.50
4.34
5.35
6.43
7.36
7.98
8.18
8.01
7.57
6.98
6.33
5.67
5.03
4.46
4.07
3.96
4.16
4.65
5.20
5.56
5.51
4.94
3.89
2.47
0.83
-0.93
-2.76
-4.68
-6.63
-8.56
-10.37
-11.97
-13.32
-14.53
-15.73
-17.12
-18.81
-20.68
-22.43
-23.53
-23.40
-21.64
-18.21
-13.47
-8.16
-3.09
1.04
3.88
5.44
6.01
6.03
5.82
5.60
5.37
5.11
4.83
4.62
4.63
4.94
5.46
6.00
6.30
6.21
5.67
4.82
3.84
2.94
2.19
1.60
1.06
0.52
-0.06
-0.65
-1.14
-1.44
-1.48
-1.32
-1.09
-0.93
-0.98
-1.31
-1.91
-2.73
-3.72
-4.83
-6.07
-7.44
-9.01
-10.89
-13.14
-15.74
-18.44
-20.76
-22.03
-21.66
-19.42
-15.55
-10.74
-5.91
-1.83
1.06
2.78
3.62
4.03
4.37
4.84
5.49
6.30
7.19
8.06
8.86
9.51
9.93
10.06
9.89
9.44
8.81
8.10
7.45
6.92
6.47
6.05
5.58
5.02
4.34
3.56
2.72
1.86
1.09
0.52
0.24
0.21
0.23
0.03
-0.61
-1.78
-3.32
-4.90
-6.21
-7.07
-7.52
-7.82
-8.32
-9.31
-10.95
-13.18
-15.75
-18.21
-20.02
-20.70
-19.97
-17.88
-14.80
-11.35
-8.17
-5.79
-4.36
-3.71
-3.41
-2.99
-2.16
-0.82
0.87
2.65
4.30
5.71
6.88
7.95
9.02
10.08
11.03
11.68
11.95
11.84
11.51
11.08
10.65
10.13
9.41
8.40
7.14
5.80
4.58
3.59
2.87
2.32
1.84
1.37
0.90
0.44
0.02
-0.39
-0.88
-1.54
-2.47
-3.74
-5.33
-7.09
-8.85
-10.41
-11.67
-12.72
-13.80
-15.22
-17.21
-19.75
-22.52
-24.92
-26.28
-26.00
-23.86
-20.05
-15.13
-9.89
-5.14
-1.45
0.93
2.08
2.41
2.44
2.74
3.59
5.03
6.82
8.57
9.96
10.86
11.39
11.79
12.26
12.83
13.32
13.51
13.29
12.71
11.95
11.19
10.50
9.84
9.11
8.26
7.31
6.36
5.56
5.02
4.81
4.86
5.10
5.39
5.53
5.34
4.69
3.53
1.94
0.07
-1.90
-3.85
-5.64
-7.27
-8.69
-9.95
-11.14
-12.43
-14.00
-15.99
-18.35
-20.75
-22.65
-23.39
-22.46
-19.73
-15.55
-10.66
-5.95
-2.19
0.22
1.30
1.45
1.12
0.76
0.62
0.78
1.19
1.82
2.61
3.51
4.45
5.37
6.20
6.94
7.62
8.30
9.00
9.72
10.42
11.03
11.50
11.77
11.78
11.50
10.91
10.06
9.05
8.03
7.10
6.28
5.49
4.60
3.46
2.01
0.24
-1.74
-3.85
-5.96
-7.98
-9.82
-11.45
-12.88
-14.15
-15.40
-16.83
-18.64
-20.92
-23.66
-26.52
-28.93
-30.17
-29.67
-27.20
-23.04
-17.94
-12.89
-8.76
-6.01
-4.52
-3.77
-3.09
-1.93
-0.11
2.24
4.82
7.30
9.47
11.34
12.97
14.46
15.87
17.14
18.25
19.11
19.70
20.03
20.14
19.99
19.58
18.88
17.90
16.68
15.32
13.91
12.55
11.28
10.12
8.98
7.82
6.54
5.21
3.95
2.89
2.15
1.74
1.44
0.95
0.02
-1.49
-3.49
-5.77
-8.09
-10.27
-12.33
-14.38
-16.63
-19.32
-22.63
-26.57
-30.88
-34.97
-38.00
-39.18
-38.03
-34.64
-29.67
-24.08
-18.76
-14.29
-10.80
-8.02
-5.62
-3.25
-0.70
2.00
4.78
7.45
9.88
11.92
13.57
14.88
15.99
16.99
17.95
18.85
19.73
20.62
21.53
22.45
23.21
23.58
23.38
22.59
21.42
20.25
19.42
19.03
18.92
18.69
17.95
16.49
14.36
11.89
9.48
7.44
5.90
4.79
3.87
2.87
1.58
-0.14
-2.31
-4.84
-7.57
-10.27
-12.73
-14.91
-16.86
-18.85
-21.19
-24.16
-27.79
-31.74
-35.39
-37.95
-38.74
-37.37
-33.91
-28.87
-22.96
-16.96
-11.49
-6.95
-3.46
-0.94
0.82
2.17
3.49
5.08
7.06
9.30
11.52
13.33
14.55
15.13
15.31
15.36
15.55
16.00
16.72
17.63
18.66
19.66
20.46
20.91
20.86
20.27
19.25
17.98
16.65
15.41
14.23
13.04
11.70
10.15
8.41
6.62
4.94
3.43
2.08
0.66
-1.12
-3.44
-6.26
-9.29
-12.09
-14.26
-15.65
-16.35
-16.71
-17.14
-18.03
-19.58
-21.84
-24.54
-27.19
-29.10
-29.49
-27.82
-24.05
-18.73
-12.81
-7.34
-3.04
-0.08
1.82
3.19
4.56
6.20
8.15
10.28
12.40
14.34
15.98
17.25
18.12
18.62
18.80
18.75
18.56
18.26
17.94
17.69
17.50
17.27
16.80
15.83
14.23
12.05
9.63
7.44
5.88
5.13
4.97
4.92
4.46
3.23
1.20
-1.39
-4.13
-6.67
-8.78
-10.47
-11.83
-13.00
-14.13
-15.39
-17.00
-19.16
-21.94
-25.12
-28.15
-30.25
-30.63
-28.84
-24.93
-19.54
-13.64
-8.17
-3.75
-0.51
1.84
3.74
5.53
7.32
9.00
10.36
11.31
11.90
12.36
12.91
13.66
14.63
15.70
16.73
17.55
18.05
18.16
17.86
17.22
16.33
15.31
14.28
13.27
12.25
11.16
10.00
8.81
7.68
6.62
5.53
4.18
2.34
-0.08
-2.91
-5.79
-8.31
-10.19
-11.45
-12.50
-13.85
-16.03
-19.27
-23.39
-27.84
-31.84
-34.56
-35.34
-33.89
-30.37
-25.39
-19.80
-14.46
-9.96
-6.52
-3.92
-1.74
0.50
3.07
5.96
8.97
11.80
14.25
16.32
18.08
19.67
21.19
22.60
23.82
24.73
25.31
25.62
25.73
25.64
25.29
24.52
23.24
21.42
19.18
16.73
14.30
12.14
10.39
9.08
8.10
7.17
6.00
4.28
1.88
-1.09
-4.37
-7.61
-10.49
-12.85
-14.64
-15.99
-17.21
-18.69
-20.84
-23.88
-27.64
-31.53
-34.62
-35.92
-34.80
-31.27
-25.98
-19.92
-14.08
-9.09
-5.05
-1.69
1.43
4.59
7.91
11.33
14.72
17.94
20.83
23.20
24.83
25.59
25.49
24.78
23.81
22.97
22.44
22.21
22.10
21.93
21.58
21.05
20.44
19.82
19.20
18.46
17.52
16.32
14.92
13.45
12.09
10.93
10.02
9.28
8.61
7.84
6.80
5.37
3.45
1.10
-1.53
-4.18
-6.63
-8.80
-10.78
-12.88
-15.40
-18.62
-22.60
-27.14
-31.76
-35.71
-38.17
-38.48
-36.35
-32.03
-26.25
-19.99
-14.11
-9.13
-5.10
-1.74
1.31
4.33
7.36
10.25
12.79
14.79
16.13
16.84
17.04
16.93
16.78
16.77
17.01
17.53
18.28
19.18
20.17
21.15
22.07
22.78
23.07
22.86
22.14
21.08
19.94
18.97
18.28
17.81
17.38
16.80
15.97
14.85
13.51
11.96
10.15
8.03
5.55
2.83
0.04
-2.58
-4.92
-7.10
-9.33
-11.96
-15.18
-19.04
-23.29
-27.48
-30.96
-33.06
-33.26
-31.25
-27.22
-21.71
-15.59
-9.78
-4.94
-1.31
1.22
3.02
4.49
5.86
7.21
8.45
9.53
10.45
11.27
12.11
13.08
14.22
15.46
16.72
17.86
18.75
19.33
19.53
19.34
18.71
17.61
16.03
14.00
11.71
9.35
7.19
5.42
4.15
3.34
2.86
2.38
1.61
0.29
-1.63
-3.95
-6.34
-8.49
-10.28
-11.84
-13.46
-15.44
-17.93
-20.94
-24.31
-27.85
-31.33
-34.44
-36.66
-37.42
-36.22
-32.87
-27.69
-21.42
-14.95
-9.05
-4.12
-0.09
3.31
6.37
9.26
11.93
14.27
16.15
17.56
18.55
19.18
19.48
19.45
19.08
18.39
17.51
16.58
15.67
14.84
14.00
13.06
11.96
10.68
9.26
7.79
6.35
4.95
3.58
2.26
0.99
-0.11
-0.88
-1.17
-0.84
0.12
1.58
3.27
4.88
6.09
6.74
6.83
6.44
5.73
4.83
3.80
2.63
1.24
-0.49
-2.66
-5.35
-8.45
-11.64
-14.39
-16.02
-15.95
-13.92
-10.12
-5.15
0.15
4.99
8.85
11.55
13.27
14.39
15.31
16.35
17.61
19.02
20.35
21.45
22.16
22.48
22.50
22.31
22.02
21.66
21.29
20.97
20.83
20.93
21.23
21.55
21.60
21.05
19.71
17.57
14.76
11.54
8.21
5.01
2.04
-0.72
-3.43
-6.27
-9.39
-12.80
-16.32
-19.65
-22.48
-24.60
-26.02
-26.97
-27.77
-28.69
-29.86
-31.20
-32.58
-33.81
-34.86
-35.82
-36.92
-38.42
-40.60
-43.63
-47.45
-51.73
-55.85
-58.86
-59.80
-57.89
-52.89
-45.15
-35.50
-25.00
-14.59
-4.81
4.15
12.34
19.83
26.61
32.61
37.71
41.98
45.55
48.61
51.27
53.57
55.39
56.55
56.87
56.26
54.81
52.85
50.92
49.64
49.42
50.40
52.37
54.87
57.42
59.65
61.34
62.37
62.60
61.88
60.06
57.12
53.18
48.47
43.33
38.19
33.59
30.16
28.46
28.83
31.16
34.88
39.07
42.85
45.60
47.13
47.58
47.20
46.16
44.47
42.19
39.50
36.81
34.64
33.33
32.69
32.04
30.28
26.30
19.43
9.69
-2.17
-14.98
-27.48
-38.65
-47.92
-55.18
-60.65
-64.67
-67.60
-69.71
-71.17
-72.10
-72.62
-72.84
-72.90
-72.85
-72.65
-72.18
-71.31
-69.98
-68.29
-66.37
-64.33
-62.18
-59.83
-57.18
-54.17
-50.88
-47.50
-44.28
-41.44
-39.14
-37.40
-36.17
-35.24
-34.37
-33.28
-31.84
-30.10
-28.30
-26.79
-25.89
-25.76
-26.32
-27.26
-28.12
-28.41
-27.70
-25.75
-22.61
-18.56
-14.04
-9.61
-5.67
-2.49
-0.12
1.51
2.57
3.17
3.43
3.37
3.03
2.44
1.63
0.68
-0.34
-1.39
-2.44
-3.48
-4.53
-5.62
-6.71
-7.75
-8.71
-9.57
-10.38
-11.22
-12.24
-13.59
-15.35
-17.45
-19.69
-21.74
-23.25
-23.96
-23.74
-22.57
-20.47
-17.44
-13.43
-8.31
-2.09
5.13
13.05
21.17
28.89
35.63
40.92
44.63
46.96
48.52
50.07
52.30
55.59
59.99
65.22
70.81
76.26
81.14
85.28
88.63
91.34
93.64
95.66
97.28
97.94
96.78
92.81
85.33
74.14
59.73
43.09
25.37
7.58
-9.54
-25.52
-39.99
-52.57
-62.88
-70.64
-75.80
-78.68
-79.79
-79.70
-78.80
-77.21
-74.83
-71.51
-67.19
-62.01
-56.38
-50.79
-45.76
-41.64
-38.61
-36.66
-35.69
-35.58
-36.28
-37.80
-40.07
-42.91
-45.90
-48.43
-49.79
-49.44
-47.18
-43.25
-38.32
-33.25
-28.81
-25.41
-22.92
-20.80
-18.31
-14.88
-10.31
-4.81
1.13
7.07
12.74
18.25
23.94
30.17
37.05
44.39
51.64
58.17
63.43
67.13
69.31
70.17
70.01
69.07
67.50
65.35
62.60
59.04
54.30
47.86
39.24
28.31
15.41
1.48
-12.28
-24.68
-34.96
-42.95
-48.97
-53.57
-57.18
-59.96
-61.86
-62.76
-62.64
-61.68
-60.21
-58.54
-56.88
-55.30
-53.75
-52.13
-50.36
-48.36
-46.13
-43.67
-40.99
-38.06
-34.87
-31.31
-27.25
-22.51
-16.98
-10.65
-3.61
3.93
11.77
19.67
27.45
34.91
41.83
48.00
53.25
57.51
60.80
63.25
64.99
66.08
66.44
65.83
63.87
60.22
54.64
47.19
38.26
28.55
18.89
9.95
2.05
-4.88
-11.21
-17.38
-23.63
-29.93
-35.86
-40.82
-44.18
-45.53
-44.80
-42.27
-38.51
-34.17
-29.85
-25.97
-22.71
-20.04
-17.80
-15.71
-13.51
-10.97
-7.95
-4.42
-0.53
3.50
7.36
10.82
13.69
15.95
17.65
18.90
19.80
20.44
20.83
21.01
20.99
20.79
20.46
19.94
19.17
18.07
16.58
14.83
12.99
11.32
9.99
8.98
8.09
7.06
5.72
4.10
2.48
1.22
0.54
0.44
0.62
0.65
0.11
-1.18
-3.19
-5.60
-7.94
-9.68
-10.32
-9.58
-7.36
-3.93
0.29
4.69
8.69
11.83
13.83
14.61
14.22
12.83
10.67
7.96
4.92
1.74
-1.39
-4.30
-6.78
-8.62
-9.65
-9.88
-9.54
-9.07
-8.96
-9.52
-10.80
-12.53
-14.38
-16.05
-17.49
-18.73
-19.78
-20.42
-20.28
-19.05
-16.65
-13.43
-10.05
-7.19
-5.24
-4.17
-3.62
-3.07
-2.17
-0.79
0.87
2.48
3.65
4.11
3.79
2.86
1.77
1.15
1.63
3.65
7.22
12.00
17.33
22.56
27.27
31.35
34.95
38.27
41.39
44.15
46.22
47.29
47.16
45.85
43.62
40.90
38.08
35.53
33.40
31.69
30.22
28.79
27.26
25.68
24.24
23.21
22.81
23.10
23.97
25.19
26.52
27.78
28.77
29.34
29.27
28.36
26.46
23.51
19.65
15.13
10.32
5.49
0.87
-3.56
-7.93
-12.41
-17.22
-22.34
-27.54
-32.38
-36.39
-39.21
-40.80
-41.40
-41.54
-41.74
-42.43
-43.77
-45.66
-47.80
-49.80
-51.39
-52.45
-53.04
-53.32
-53.53
-53.77
-54.07
-54.24
-54.03
-53.13
-51.28
-48.30
-44.19
-39.04
-33.09
-26.70
-20.24
-14.09
-8.55
-3.85
-0.08
2.72
4.61
5.77
6.50
7.17
8.06
9.27
10.61
11.68
12.06
11.54
10.21
8.47
6.74
5.28
4.10
2.98
1.60
-0.25
-2.70
-5.70
-9.13
-12.65
-15.74
-17.76
-18.15
-16.69
-13.68
-9.90
-6.29
-3.59
-2.08
-1.53
-1.41
-1.22
-0.71
0.09
1.05
2.01
3.00
4.15
5.65
7.55
9.76
12.06
14.27
16.27
18.08
19.74
21.31
22.73
23.83
24.40
24.28
23.44
21.96
20.03
17.83
15.45
12.93
10.21
7.28
4.19
1.09
-1.85
-4.47
-6.71
-8.62
-10.28
-11.80
-13.23
-14.66
-16.15
-17.75
-19.42
-20.98
-22.15
-22.59
-22.19
-21.10
-19.81
-18.87
-18.65
-19.09
-19.66
-19.68
-18.59
-16.33
-13.41
-10.61
-8.71
-8.03
-8.38
-9.20
-9.85
-9.89
-9.24
-8.10
-6.78
-5.53
-4.38
-3.21
-1.87
-0.29
1.51
3.36
5.08
6.57
7.80
8.84
9.75
10.59
11.32
11.88
12.19
12.19
11.86
11.29
10.54
9.75
8.98
8.25
7.49
6.57
5.36
3.76
1.80
-0.41
-2.74
-4.99
-7.00
-8.62
-9.80
-10.59
-11.16
-11.77
-12.66
-14.02
-15.82
-17.93
-20.02
-21.71
-22.64
-22.59
-21.54
-19.71
-17.49
-15.32
-13.62
-12.60
-12.28
-12.51
-13.00
-13.42
-13.47
-12.96
-11.80
-10.05
-7.86
-5.36
-2.63
0.28
3.30
6.36
9.34
12.20
14.98
17.82
20.87
24.15
27.47
30.50
32.97
34.71
35.78
36.35
36.56
36.52
36.15
35.37
34.08
32.30
30.12
27.72
25.32
23.16
21.41
20.16
19.33
18.72
18.08
17.12
15.66
13.65
11.19
8.63
6.45
5.13
5.01
6.07
7.91
9.93
11.53
12.31
12.23
11.57
10.72
10.02
9.58
9.33
9.08
8.64
7.86
6.64
4.98
2.91
0.54
-1.98
-4.39
-6.43
-7.87
-8.67
-9.02
-9.25
-9.77
-10.76
-12.22
-13.91
-15.55
-16.93
-18.01
-18.85
-19.54
-20.17
-20.62
-20.76
-20.49
-19.87
-19.07
-18.37
-17.93
-17.77
-17.72
-17.53
-17.02
-16.18
-15.17
-14.26
-13.73
-13.76
-14.34
-15.34
-16.42
-17.12
-17.06
-15.98
-13.93
-11.24
-8.43
-5.97
-4.18
-3.12
-2.56
-2.23
-1.81
-1.13
-0.08
1.30
2.94
4.70
6.44
7.97
9.09
9.63
9.57
8.96
7.97
6.79
5.58
4.40
3.23
2.07
0.94
0.01
-0.57
-0.66
-0.33
0.27
0.90
1.34
1.52
1.51
1.49
1.59
1.89
2.32
2.69
2.76
2.38
1.50
0.26
-1.03
-2.10
-2.73
-2.89
-2.70
-2.45
-2.37
-2.62
-3.31
-4.35
-5.58
-6.66
-7.13
-6.56
-4.69
-1.58
2.33
6.32
9.67
11.86
12.77
12.63
11.91
11.08
10.44
10.07
9.84
9.62
9.29
8.86
8.39
7.95
7.54
7.15
6.71
6.23
5.78
5.49
5.43
5.56
5.77
5.94
6.01
6.02
6.04
6.11
6.27
6.49
6.77
7.11
7.56
8.07
8.55
8.80
8.64
7.96
6.77
5.24
3.61
2.07
0.68
-0.60
-1.87
-3.31
-5.07
-7.27
-9.98
-13.15
-16.61
-19.93
-22.55
-23.83
-23.39
-21.22
-17.79
-13.88
-10.25
-7.45
-5.61
-4.52
-3.86
-3.29
-2.59
-1.63
-0.32
1.31
3.20
5.15
6.93
8.32
9.18
9.53
9.47
9.13
8.64
8.05
7.44
6.79
6.06
5.20
4.16
2.91
1.54
0.17
-1.04
-1.96
-2.58
-2.98
-3.37
-3.95
-4.83
-6.07
-7.54
-9.07
-10.52
-11.75
-12.72
-13.47
-14.04
-14.60
-15.35
-16.47
-18.04
-19.88
-21.52
-22.37
-21.83
-19.63
-15.97
-11.52
-7.16
-3.76
-1.84
-1.38
-1.96
-2.86
-3.41
-3.19
-2.15
-0.47
1.45
3.29
4.85
6.03
6.87
7.42
7.75
7.90
7.92
7.80
7.56
7.24
6.90
6.60
6.37
6.21
6.04
5.82
5.52
5.18
4.86
4.64
4.50
4.39
4.27
4.06
3.76
3.38
2.92
2.39
1.73
0.91
-0.07
-1.20
-2.39
-3.61
-4.85
-6.19
-7.76
-9.73
-12.02
-14.40
-16.38
-17.40
-17.07
-15.33
-12.52
-9.23
-6.10
-3.61
-1.91
-0.93
-0.40
-0.05
0.38
1.02
1.87
2.80
3.66
4.31
4.67
4.84
4.95
5.12
5.45
5.94
6.58
7.32
8.10
8.84
9.42
9.64
9.32
8.41
6.98
5.35
3.88
2.90
2.55
2.76
3.19
3.50
3.39
2.78
1.80
0.67
-0.39
-1.34
-2.23
-3.26
-4.54
-6.09
-7.89
-9.79
-11.70
-13.45
-14.93
-15.99
-16.54
-16.66
-16.59
-16.72
-17.36
-18.59
-20.08
-21.21
-21.36
-20.18
-17.71
-14.40
-10.85
-7.58
-4.87
-2.75
-1.03
0.43
1.80
3.12
4.44
5.82
7.30
8.85
10.38
11.70
12.59
12.96
12.80
12.26
11.58
10.97
10.62
10.54
10.71
11.04
11.48
12.01
12.66
13.48
14.52
15.84
17.34
18.90
20.34
21.50
22.33
22.88
23.32
23.74
24.19
24.61
24.84
24.79
24.37
23.54
22.33
20.74
18.81
16.69
14.53
12.57
10.91
9.54
8.32
7.00
5.34
3.21
0.65
-2.12
-4.68
-6.52
-7.17
-6.33
-4.03
-0.68
3.03
6.42
8.94
10.43
11.04
11.07
10.90
10.75
10.74
10.86
11.10
11.43
11.81
12.24
12.61
12.92
13.17
13.41
13.75
14.30
15.09
16.08
17.20
18.28
19.22
19.91
20.27
20.27
19.91
19.26
18.36
17.38
16.45
15.76
15.31
15.07
14.85
14.49
13.91
13.19
12.51
12.03
11.81
11.70
11.43
10.77
9.60
8.00
6.13
4.12
1.95
-0.46
-3.19
-6.20
-9.33
-12.42
-15.52
-18.87
-22.82
-27.68
-33.49
-39.88
-46.26
-51.98
-56.59
-60.04
-62.59
-64.68
-66.62
-68.51
-70.02
-70.72
-70.11
-67.85
-63.83
-58.19
-51.24
-43.36
-35.04
-26.81
-19.14
-12.38
-6.59
-1.59
3.00
7.54
12.24
17.04
21.67
25.68
28.69
30.43
30.84
30.09
28.52
26.57
24.66
23.08
21.97
21.33
21.13
21.29
21.67
21.98
21.78
20.57
18.06
14.30
9.78
5.40
2.12
0.66
1.24
3.57
6.86
10.26
12.97
14.61
15.16
14.96
14.47
14.12
14.12
14.47
15.00
15.45
15.65
15.50
15.09
14.61
14.35
14.58
15.47
17.00
18.91
20.85
22.48
23.61
24.21
24.40
24.30
24.03
23.63
23.18
22.85
22.74
22.86
22.98
22.67
21.41
18.84
14.88
9.84
4.29
-1.17
-6.04
-10.05
-13.14
-15.38
-16.88
-17.78
-18.28
-18.62
-19.10
-20.00
-21.49
-23.57
-26.08
-28.76
-31.41
-33.88
-36.12
-38.15
-39.98
-41.69
-43.35
-45.02
-46.73
-48.39
-49.75
-50.45
-50.06
-48.16
-44.53
-39.11
-32.11
-23.89
-15.01
-6.09
2.25
9.45
15.17
19.30
22.00
23.68
24.81
25.82
26.94
28.12
29.15
29.71
29.56
28.56
26.76
24.31
21.49
18.58
15.84
13.44
11.40
9.63
7.96
6.25
4.45
2.57
0.73
-1.10
-2.96
-4.91
-6.94
-9.03
-11.10
-13.18
-15.46
-18.21
-21.65
-25.68
-29.87
-33.42
-35.48
-35.46
-33.30
-29.47
-24.79
-20.17
-16.22
-13.15
-10.78
-8.76
-6.82
-4.83
-2.97
-1.41
-0.33
0.32
0.69
1.01
1.45
2.01
2.58
2.99
3.16
3.12
3.00
2.96
3.10
3.37
3.64
3.72
3.43
2.73
1.67
0.45
-0.73
-1.68
-2.36
-2.87
-3.44
-4.32
-5.62
-7.26
-8.94
-10.25
-10.89
-10.76
-10.12
-9.45
-9.29
-10.08
-11.95
-14.72
-17.91
-20.95
-23.18
-24.09
-23.36
-21.02
-17.38
-13.06
-8.78
-5.18
-2.65
-1.16
-0.44
-0.01
0.49
1.25
2.22
3.27
4.24
5.11
5.94
6.84
7.87
8.99
10.12
11.15
12.03
12.81
13.54
14.26
14.91
15.36
15.47
15.10
14.27
13.10
11.75
10.44
9.29
8.38
7.71
7.23
6.81
6.29
5.47
4.18
2.34
0.04
-2.48
-4.92
-7.02
-8.68
-9.98
-11.16
-12.52
-14.26
-16.40
-18.76
-20.95
-22.46
-22.85
-21.88
-19.53
-16.14
-12.23
-8.46
-5.36
-3.24
-2.10
-1.63
-1.41
-0.96
0.01
1.56
3.51
5.55
7.35
8.75
9.73
10.44
11.03
11.57
11.98
12.06
11.72
11.00
10.12
9.37
9.00
9.04
9.32
9.56
9.51
9.11
8.46
7.79
7.30
7.07
7.07
7.13
7.15
7.04
6.69
6.10
5.20
4.05
2.76
1.48
0.41
-0.39
-1.04
-1.81
-3.06
-5.04
-7.80
-11.00
-14.06
-16.20
-16.79
-15.54
-12.62
-8.59
-4.18
0.01
3.65
6.75
9.47
12.00
14.36
16.46
18.17
19.39
20.13
20.54
20.80
21.10
21.54
22.17
22.93
23.66
24.16
24.23
23.69
22.43
20.37
17.45
13.59
8.75
3.04
-3.28
-9.77
-15.93
-21.35
-25.83
-29.46
-32.44
-35.03
-37.45
-39.76
-41.90
-43.76
-45.18
-45.91
-45.74
-44.53
-42.33
-39.49
-36.60
-34.36
-33.29
-33.54
-34.81
-36.36
-37.29
-36.78
-34.39
-30.17
-24.60
-18.52
-12.82
-8.15
-4.87
-2.85
-1.68
-0.81
0.30
1.92
4.06
6.48
8.82
10.84
12.40
13.56
14.46
15.28
16.16
17.18
18.44
19.98
21.83
23.90
25.98
27.81
29.13
29.77
29.64
28.83
27.47
25.72
23.82
21.93
20.20
18.69
17.35
16.03
14.63
13.05
11.28
9.40
7.53
5.80
4.32
3.12
2.16
1.32
0.38
-0.91
-2.75
-5.24
-8.32
-11.75
-15.07
-17.70
-19.06
-18.77
-16.78
-13.43
-9.36
-5.28
-1.73
1.00
3.02
4.64
6.22
8.08
10.32
12.86
15.44
17.78
19.61
20.80
21.38
21.47
21.30
21.09
21.00
21.12
21.50
22.07
22.72
23.30
23.63
23.57
23.02
21.98
20.53
18.84
17.15
15.61
14.33
13.21
12.10
10.83
9.31
7.58
5.76
4.00
2.37
0.86
-0.57
-1.99
-3.41
-4.80
-6.09
-7.23
-8.26
-9.24
-10.33
-11.72
-13.57
-15.92
-18.53
-20.92
-22.43
-22.45
-20.67
-17.29
-12.91
-8.36
-4.36
-1.28
0.88
2.45
3.83
5.30
6.93
8.61
10.12
11.27
11.95
12.14
11.93
11.48
10.93
10.45
10.16
10.14
10.39
10.86
11.38
11.80
11.89
11.53
10.69
9.46
8.02
6.61
5.44
4.63
4.17
3.96
3.77
3.45
2.85
1.92
0.71
-0.70
-2.25
-3.87
-5.50
-7.04
-8.37
-9.42
-10.22
-10.99
-12.01
-13.57
-15.78
-18.48
-21.23
-23.40
-24.38
-23.74
-21.42
-17.69
-13.16
-8.53
-4.45
-1.29
0.90
2.32
3.33
4.26
5.30
6.49
7.72
8.85
9.79
10.56
11.20
11.85
12.52
13.18
13.74
14.12
14.32
14.37
14.37
14.24
13.91
13.25
12.21
10.92
9.59
8.42
7.49
6.75
6.04
5.20
4.24
3.19
2.22
1.43
0.87
0.50
0.24
-0.02
-0.37
-0.82
-1.36
-1.94
-2.56
-3.31
-4.40
-6.05
-8.45
-11.60
-15.29
-19.23
-22.95
-25.99
-27.82
-27.95
-26.18
-22.66
-17.99
-13.06
-8.80
-5.78
-4.08
-3.35
-2.99
-2.46
-1.42
0.23
2.34
4.69
7.03
9.10
10.77
12.01
12.92
13.65
14.34
15.07
15.88
16.75
17.63
18.43
18.98
19.11
18.69
17.69
16.27
14.73
13.39
12.49
12.06
11.97
12.00
11.86
11.46
10.78
9.99
9.26
8.77
8.48
8.24
7.81
6.98
5.67
3.94
1.99
0.03
-1.80
-3.47
-5.13
-6.91
-9.00
-11.49
-14.37
-17.45
-20.37
-22.64
-23.69
-23.14
-20.91
-17.35
-13.12
-8.97
-5.50
-2.89
-1.01
0.48
1.89
3.39
4.94
6.49
7.97
9.30
10.40
11.11
11.31
11.01
10.43
9.85
9.55
9.64
10.08
10.70
11.29
11.79
12.15
12.41
12.52
12.44
12.14
11.61
10.90
10.03
8.97
7.68
6.17
4.58
3.10
1.95
1.23
0.91
0.75
0.49
-0.10
-1.11
-2.46
-3.94
-5.38
-6.69
-7.83
-8.88
-9.95
-11.19
-12.73
-14.64
-16.82
-18.93
-20.47
-20.90
-19.86
-17.35
-13.80
-9.91
-6.40
-3.78
-2.22
-1.51
-1.25
-1.03
-0.50
0.44
1.70
3.04
4.24
5.14
5.72
6.10
6.37
6.63
6.85
6.99
6.98
6.86
6.70
6.60
6.60
6.65
6.71
6.71
6.66
6.63
6.63
6.67
6.69
6.62
6.38
5.94
5.21
4.11
2.54
0.47
-2.03
-4.71
-7.27
-9.40
-10.97
-12.05
-12.86
-13.68
-14.73
-16.07
-17.63
-19.24
-20.69
-21.70
-22.05
-21.55
-20.10
-17.72
-14.66
-11.22
-7.83
-4.84
-2.47
-0.75
0.45
1.43
2.46
3.71
5.20
6.71
8.00
8.89
9.36
9.59
9.77
10.02
10.28
10.37
10.15
9.63
9.04
8.62
8.51
8.68
8.88
8.88
8.61
8.16
7.70
7.39
7.19
6.91
6.38
5.51
4.37
3.15
1.99
0.90
-0.21
-1.50
-3.02
-4.72
-6.47
-8.14
-9.66
-11.07
-12.44
-13.82
-15.23
-16.64
-18.01
-19.30
-20.43
-21.19
-21.23
-20.19
-17.85
-14.25
-9.82
-5.23
-1.19
1.83
3.72
4.68
5.12
5.45
5.90
6.52
7.22
7.88
8.46
9.01
9.51
9.99
10.36
10.51
10.38
9.94
9.32
8.64
8.05
7.65
7.40
7.29
7.24
7.21
7.23
7.32
7.50
7.80
8.20
8.59
8.81
8.69
8.10
7.05
5.62
3.98
2.29
0.70
-0.73
-1.99
-3.13
-4.25
-5.42
-6.62
-7.83
-8.95
-9.90
-10.65
-11.20
-11.65
-12.12
-12.73
-13.63
-14.96
-16.69
-18.57
-20.08
-20.60
-19.68
-17.19
-13.47
-9.17
-5.03
-1.59
0.95
2.65
3.75
4.48
5.06
5.64
6.41
7.44
8.79
10.27
11.60
12.51
12.80
12.50
11.81
11.03
10.41
10.12
10.21
10.61
11.24
11.92
12.43
12.56
12.19
11.35
10.24
9.12
8.20
7.60
7.27
7.08
6.94
6.76
6.54
6.20
5.63
4.71
3.40
1.67
-0.32
-2.42
-4.49
-6.40
-8.09
-9.57
-10.87
-12.03
-13.11
-14.19
-15.33
-16.54
-17.80
-18.90
-19.61
-19.65
-18.82
-17.10
-14.67
-11.89
-9.18
-6.90
-5.15
-3.87
-2.82
-1.74
-0.48
0.94
2.35
3.55
4.44
5.00
5.29
5.40
5.33
5.08
4.66
4.18
3.80
3.71
4.01
4.68
5.57
6.49
7.24
7.72
7.90
7.78
7.38
6.75
5.96
5.12
4.34
3.61
2.88
1.99
0.82
-0.64
-2.25
-3.76
-4.96
-5.78
-6.34
-6.88
-7.67
-8.86
-10.50
-12.56
-14.93
-17.49
-20.00
-22.08
-23.24
-22.98
-21.05
-17.62
-13.27
-8.84
-5.20
-2.77
-1.54
-1.03
-0.66
0.09
1.38
3.08
4.86
6.38
7.46
8.09
8.37
8.42
8.36
8.23
8.09
8.00
8.01
8.17
8.42
8.66
8.76
8.57
8.03
7.17
6.05
4.83
3.64
2.61
1.80
1.23
0.89
0.71
0.65
0.60
0.48
0.17
-0.38
-1.19
-2.16
-3.09
-3.75
-3.97
-3.79
-3.41
-3.24
-3.68
-4.98
-7.15
-9.86
-12.52
-14.48
-15.27
-14.72
-13.07
-10.85
-8.64
-6.86
-5.64
-4.84
-4.20
-3.49
-2.64
-1.63
-0.50
0.74
2.11
3.57
5.06
6.45
7.62
8.57
9.34
10.00
10.62
11.24
11.83
12.37
12.84
13.17
13.31
13.17
12.70
11.99
11.21
10.52
10.05
9.74
9.37
8.68
7.47
5.71
3.60
1.47
-0.36
-1.66
-2.41
-2.75
-2.91
-3.11
-3.45
-3.96
-4.55
-5.13
-5.66
-6.15
-6.64
-7.18
-7.89
-8.88
-10.23
-11.97
-13.93
-15.75
-16.85
-16.78
-15.31
-12.68
-9.48
-6.45
-4.11
-2.66
-1.93
-1.52
-1.13
-0.55
0.23
1.17
2.23
3.41
4.69
5.93
6.95
7.56
7.74
7.62
7.47
7.51
7.88
8.56
9.45
10.39
11.26
12.02
12.57
12.84
12.78
12.35
11.63
10.80
10.01
9.33
8.71
8.09
7.37
6.62
5.95
5.51
5.40
5.59
5.90
6.09
5.94
5.32
4.27
2.93
1.47
0.07
-1.19
-2.35
-3.50
-4.75
-6.23
-8.01
-10.14
-12.56
-15.12
-17.52
-19.31
-20.05
-19.41
-17.35
-14.23
-10.67
-7.34
-4.77
-3.12
-2.25
-1.76
-1.29
-0.61
0.31
1.33
2.26
2.98
3.45
3.72
3.89
4.03
4.23
4.50
4.84
5.23
5.68
6.24
6.93
7.72
8.51
9.16
9.52
9.55
9.30
8.87
8.38
7.88
7.34
6.75
6.10
5.41
4.68
3.87
2.90
1.73
0.38
-1.01
-2.31
-3.45
-4.44
-5.37
-6.31
-7.30
-8.34
-9.48
-10.74
-12.13
-13.58
-14.85
-15.58
-15.46
-14.32
-12.23
-9.59
-6.89
-4.58
-2.96
-2.09
-1.78
-1.74
-1.65
-1.28
-0.52
0.59
1.90
3.21
4.35
5.25
5.93
6.48
7.00
7.60
8.31
9.08
9.80
10.29
10.39
10.00
9.15
8.05
6.93
6.00
5.35
4.92
4.64
4.40
4.24
4.17
4.23
4.28
4.13
3.60
2.65
1.40
0.10
-1.04
-1.95
-2.74
-3.61
-4.74
-6.18
-7.89
-9.73
-11.62
-13.47
-15.21
-16.68
-17.65
-17.88
-17.19
-15.64
-13.47
-11.06
-8.76
-6.89
-5.53
-4.59
-3.92
-3.31
-2.58
-1.65
-0.49
0.81
2.11
3.30
4.35
5.29
6.17
6.99
7.69
8.18
8.43
8.49
8.55
8.79
9.28
9.91
10.46
10.67
10.39
9.71
8.79
7.89
7.15
6.56
6.02
5.34
4.39
3.23
1.97
0.77
-0.19
-0.86
-1.27
-1.52
-1.69
-1.86
-2.04
-2.23
-2.38
-2.51
-2.67
-2.92
-3.37
-4.13
-5.30
-6.96
-9.11
-11.62
-14.26
-16.65
-18.40
-19.12
-18.60
-16.89
-14.25
-11.15
-8.02
-5.18
-2.72
-0.54
1.52
3.60
5.71
7.77
9.66
11.26
12.48
13.27
13.60
13.47
12.89
11.95
10.77
9.50
8.29
7.22
6.31
5.57
4.92
4.35
3.82
3.33
2.86
2.43
2.08
1.82
1.71
1.78
2.00
2.35
2.78
3.28
3.80
4.33
4.87
5.40
5.86
6.15
6.16
5.82
5.14
4.27
3.41
2.74
2.32
2.04
1.70
1.11
0.18
-1.02
-2.46
-4.11
-6.02
-8.16
-10.35
-12.22
-13.33
-13.34
-12.22
-10.27
-8.04
-6.07
-4.72
-3.98
-3.59
-3.20
-2.44
-1.11
0.75
2.94
5.16
7.10
8.55
9.44
9.80
9.74
9.41
8.94
8.42
7.97
7.68
7.62
7.81
8.16
8.52
8.70
8.59
8.15
7.47
6.68
5.87
5.06
4.24
3.35
2.32
1.19
-0.00
-1.14
-2.15
-2.99
-3.68
-4.30
-4.93
-5.59
-6.30
-7.02
-7.72
-8.42
-9.16
-9.99
-10.89
-11.80
-12.67
-13.55
-14.52
-15.63
-16.76
-17.54
-17.44
-16.04
-13.26
-9.41
-5.14
-1.15
2.06
4.33
5.80
6.77
7.48
8.06
8.49
8.69
8.57
8.07
7.19
5.97
4.57
3.19
2.05
1.33
1.09
1.25
1.74
2.40
3.16
3.92
4.58
5.03
5.17
4.94
4.43
3.79
3.17
2.66
2.23
1.83
1.35
0.78
0.14
-0.56
-1.32
-2.19
-3.24
-4.47
-5.78
-7.04
-8.09
-8.86
-9.41
-9.87
-10.44
-11.34
-12.66
-14.39
-16.36
-18.18
-19.39
-19.56
-18.48
-16.25
-13.31
-10.28
-7.70
-5.92
-4.95
-4.57
-4.47
-4.31
-3.90
-3.15
-2.05
-0.63
0.94
2.56
4.13
5.59
6.96
8.26
9.48
10.53
11.32
11.76
11.87
11.75
11.50
11.20
10.79
10.19
9.36
8.38
7.41
6.57
5.91
5.30
4.60
3.68
2.58
1.50
0.65
0.13
-0.15
-0.41
-0.90
-1.66
-2.60
-3.51
-4.21
-4.66
-5.02
-5.50
-6.32
-7.62
-9.36
-11.43
-13.58
-15.53
-16.87
-17.26
-16.46
-14.54
-11.88
-9.06
-6.61
-4.88
-3.85
-3.26
-2.78
-2.17
-1.30
-0.16
1.23
2.82
4.50
6.08
7.39
8.34
8.99
9.53
10.14
10.83
11.50
11.88
11.83
11.37
10.73
10.12
9.69
9.40
9.03
8.38
7.42
6.22
5.02
4.02
3.28
2.79
2.40
2.03
1.64
1.20
0.66
-0.10
-1.24
-2.85
-4.84
-7.02
-9.10
-10.88
-12.29
-13.39
-14.35
-15.30
-16.32
-17.38
-18.21
-18.49
-17.78
-15.82
-12.58
-8.45
-4.12
-0.32
2.43
4.01
4.69
4.96
5.24
5.78
6.53
7.32
8.00
8.49
8.86
9.20
9.60
10.06
10.46
10.60
10.38
9.84
9.16
8.62
8.43
8.65
9.12
9.58
9.70
9.30
8.35
6.95
5.32
3.63
2.01
0.47
-1.00
-2.45
-3.88
-5.28
-6.63
-7.85
-8.88
-9.70
-10.35
-10.92
-11.46
-12.00
-12.56
-13.15
-13.82
-14.69
-15.79
-17.04
-18.11
-18.56
-17.97
-16.15
-13.31
-9.93
-6.65
-3.97
-2.12
-1.04
-0.51
-0.28
-0.14
0.03
0.34
0.79
1.39
2.07
2.76
3.42
4.02
4.58
5.15
5.77
6.41
7.01
7.45
7.61
7.35
6.63
5.49
4.05
2.45
0.86
-0.60
-1.87
-2.95
-3.92
-4.87
-5.87
-6.93
-7.94
-8.71
-9.13
-9.16
-8.98
-8.89
-9.24
-10.25
-11.98
-14.29
-16.93
-19.52
-21.63
-22.84
-22.79
-21.41
-18.84
-15.55
-12.08
-8.91
-6.31
-4.23
-2.48
-0.83
0.84
2.47
3.94
5.10
5.86
6.28
6.52
6.80
7.29
8.06
9.09
10.22
11.26
12.07
12.56
12.77
12.73
12.48
12.00
11.23
10.10
8.61
6.87
5.03
3.25
1.58
0.02
-1.52
-3.10
-4.67
-6.16
-7.42
-8.45
-9.28
-10.03
-10.82
-11.70
-12.71
-13.87
-15.29
-17.08
-19.30
-21.77
-24.03
-25.48
-25.61
-24.19
-21.43
-17.87
-14.21
-11.04
-8.68
-7.07
-5.94
-4.93
-3.70
-2.06
0.03
2.48
5.12
7.73
10.11
12.15
13.85
15.25
16.41
17.37
18.14
18.78
19.33
19.87
20.42
20.95
21.33
21.42
21.10
20.36
19.27
17.99
16.66
15.40
14.31
13.43
12.76
12.20
11.65
10.99
10.17
9.22
8.27
7.36
6.46
5.45
4.12
2.28
-0.23
-3.44
-7.27
-11.35
-15.11
-17.78
-18.67
-17.43
-14.21
-9.67
-4.79
-0.46
2.79
4.87
6.08
6.90
7.79
9.03
10.68
12.55
14.34
15.69
16.35
16.28
15.63
14.65
13.62
12.69
11.88
11.16
10.48
9.88
9.44
9.20
9.07
8.92
8.56
7.89
6.97
6.05
5.42
5.34
5.89
6.89
7.95
8.60
8.42
7.24
5.24
2.81
0.48
-1.37
-2.67
-3.66
-4.76
-6.33
-8.56
-11.39
-14.55
-17.66
-20.27
-21.94
-22.28
-21.04
-18.21
-14.17
-9.55
-5.13
-1.54
0.95
2.38
3.13
3.61
4.16
4.98
6.06
7.30
8.60
9.88
11.15
12.40
13.57
14.58
15.29
15.63
15.56
15.17
14.58
13.88
13.07
12.07
10.71
8.91
6.71
4.32
2.03
0.13
-1.26
-2.21
-2.93
-3.66
-4.53
-5.48
-6.36
-6.98
-7.25
-7.22
-7.05
-6.97
-7.19
-7.91
-9.26
-11.25
-13.77
-16.45
-18.72
-19.96
-19.70
-17.83
-14.68
-10.83
-6.96
-3.50
-0.63
1.75
3.79
5.67
7.44
9.14
10.78
12.35
13.80
15.01
15.90
16.39
16.51
16.35
15.99
15.49
14.92
14.33
13.85
13.59
13.61
13.77
13.91
13.84
13.52
13.05
12.57
12.22
12.02
11.85
11.52
10.89
9.89
8.56
7.01
5.35
3.73
2.21
0.86
-0.33
-1.43
-2.48
-3.59
-4.75
-6.00
-7.32
-8.71
-10.19
-11.83
-13.72
-15.93
-18.38
-20.80
-22.71
-23.53
-22.82
-20.41
-16.58
-11.97
-7.35
-3.41
-0.48
1.47
2.75
3.71
4.60
5.56
6.54
7.49
8.34
9.06
9.68
10.19
10.61
10.90
11.07
11.12
11.16
11.34
11.79
12.54
13.47
14.33
14.79
14.60
13.73
12.41
10.95
9.64
8.68
8.04
7.67
7.44
7.29
7.14
6.96
6.67
6.18
5.39
4.27
2.89
1.37
-0.13
-1.46
-2.59
-3.53
-4.41
-5.33
-6.34
-7.47
-8.67
-9.96
-11.41
-13.11
-15.10
-17.21
-19.15
-20.46
-20.73
-19.72
-17.51
-14.45
-11.13
-8.12
-5.89
-4.56
-3.94
-3.57
-2.94
-1.67
0.31
2.79
5.36
7.62
9.33
10.48
11.19
11.66
11.94
12.00
11.75
11.19
10.37
9.48
8.68
8.08
7.68
7.39
7.07
6.66
6.16
5.66
5.24
4.88
4.50
3.92
2.98
1.58
-0.25
-2.36
-4.53
-6.58
-8.36
-9.87
-11.14
-12.25
-13.34
-14.51
-15.87
-17.45
-19.19
-20.83
-22.00
-22.22
-21.13
-18.62
-14.90
-10.48
-6.02
-2.11
0.92
2.98
4.28
5.12
5.83
6.62
7.49
8.32
8.91
9.14
8.95
8.49
7.99
7.69
7.70
8.00
8.50
9.08
9.69
10.31
10.95
11.52
11.89
11.88
11.30
10.09
8.39
6.47
4.67
3.26
2.28
1.60
0.90
-0.17
-1.77
-3.87
-6.24
-8.53
-10.43
-11.79
-12.66
-13.21
-13.71
-14.44
-15.55
-17.10
-19.00
-20.97
-22.63
-23.50
-23.15
-21.36
-18.18
-14.01
-9.52
-5.41
-2.21
-0.12
1.04
1.67
2.20
2.91
3.84
4.88
5.83
6.59
7.16
7.63
8.15
8.81
9.60
10.45
11.29
12.07
12.75
13.24
13.45
13.23
12.49
11.21
9.54
7.73
6.06
4.74
3.83
3.26
2.84
2.39
1.78
0.93
-0.17
-1.53
-3.05
-4.62
-6.05
-7.18
-7.97
-8.48
-8.95
-9.63
-10.73
-12.27
-14.16
-16.17
-18.04
-19.47
-20.12
-19.71
-18.12
-15.47
-12.14
-8.66
-5.56
-3.08
-1.24
0.14
1.28
2.36
3.41
4.44
5.41
6.28
7.00
7.50
7.71
7.64
7.38
7.06
6.85
6.85
7.09
7.53
8.06
8.56
8.88
8.92
8.58
7.90
7.00
6.06
5.27
4.73
4.40
4.14
3.64
2.70
1.15
-0.92
-3.30
-5.67
-7.79
-9.57
-11.06
-12.40
-13.73
-15.10
-16.49
-17.82
-18.93
-19.63
-19.69
-18.80
-16.78
-13.67
-9.78
-5.68
-1.98
0.85
2.68
3.70
4.33
4.97
5.84
6.99
8.26
9.42
10.31
10.91
11.28
11.48
11.55
11.44
11.08
10.52
9.92
9.52
9.54
10.01
10.76
11.44
11.71
11.31
10.14
8.28
5.91
3.29
0.66
-1.76
-3.88
-5.68
-7.22
-8.64
-10.07
-11.55
-13.10
-14.67
-16.27
-17.95
-19.83
-21.94
-24.10
-25.94
-26.91
-26.52
-24.58
-21.38
-17.59
-14.06
-11.48
-10.12
-9.85
-10.24
-10.78
-11.03
-10.69
-9.64
-7.84
-5.39
-2.53
0.48
3.31
5.73
7.61
8.91
9.65
9.89
9.73
9.27
8.66
8.05
7.52
7.18
7.06
7.18
7.49
7.87
8.18
8.26
8.08
7.75
7.53
7.70
8.43
9.67
11.17
12.59
13.65
14.16
14.04
13.22
11.69
9.55
7.04
4.60
2.69
1.67
1.62
2.28
3.22
3.98
4.28
4.06
3.44
2.65
1.94
1.52
1.46
1.70
2.00
2.10
1.87
1.32
0.70
0.32
0.42
1.03
1.96
2.89
3.57
3.85
3.75
3.39
2.84
2.16
1.32
0.28
-1.01
-2.50
-4.08
-5.53
-6.70
-7.53
-8.09
-8.59
-9.23
-10.20
-11.57
-13.34
-15.44
-17.71
-19.96
-21.83
-22.95
-22.96
-21.70
-19.24
-15.96
-12.32
-8.82
-5.79
-3.36
-1.52
-0.16
0.86
1.67
2.34
2.94
3.48
4.02
4.61
5.34
6.26
7.33
8.44
9.36
9.86
9.84
9.36
8.56
7.64
6.74
5.87
4.95
3.87
2.58
1.15
-0.32
-1.68
-2.87
-3.87
-4.82
-5.84
-6.99
-8.28
-9.71
-11.27
-13.04
-15.09
-17.31
-19.48
-21.13
-21.74
-20.89
-18.55
-15.07
-11.17
-7.56
-4.80
-3.01
-1.93
-1.02
0.20
1.97
4.16
6.33
8.04
9.01
9.35
9.40
9.51
9.83
10.28
10.65
10.76
10.60
10.39
10.30
10.46
10.80
11.15
11.28
11.06
10.42
9.36
7.92
6.18
4.29
2.41
0.63
-0.97
-2.44
-3.87
-5.39
-7.14
-9.23
-11.70
-14.50
-17.40
-20.03
-21.91
-22.63
-21.94
-19.92
-16.87
-13.26
-9.64
-6.44
-3.91
-2.09
-0.80
0.24
1.27
2.46
3.78
5.07
6.09
6.71
6.89
6.73
6.36
5.92
5.50
5.17
5.02
5.11
5.48
6.08
6.75
7.28
7.45
7.15
6.41
5.40
4.35
3.44
2.67
1.95
1.05
-0.22
-1.94
-3.95
-5.97
-7.62
-8.58
-8.70
-7.99
-6.62
-4.88
-3.10
-1.62
-0.69
-0.32
-0.25
0.07
1.33
4.11
8.64
14.66
21.55
28.50
34.78
39.90
43.73
46.40
48.21
49.52
50.67
51.88
53.21
54.61
55.87
56.68
56.71
55.66
53.39
49.96
45.66
40.88
36.00
31.29
26.76
22.29
17.69
12.88
7.84
2.61
-2.83
-8.58
-14.69
-21.01
-27.09
-32.26
-35.84
-37.44
-37.14
-35.41
-32.99
-30.48
-28.27
-26.44
-24.90
-23.56
-22.38
-21.38
-20.44
-19.37
-17.79
-15.42
-12.09
-7.81
-2.78
2.85
8.95
15.49
22.33
29.24
35.70
41.18
45.20
47.65
48.77
49.08
49.10
49.05
48.66
47.22
43.73
37.36
27.67
14.97
0.19
-15.32
-30.28
-43.79
-55.57
-65.89
-75.21
-83.96
-92.25
-99.93
-106.76
-112.52
-117.12
-120.48
-122.41
-122.61
-120.73
-116.55
-110.24
-102.23
-93.16
-83.56
-73.79
-63.97
-54.10
-44.23
-34.51
-25.19
-16.51
-8.60
-1.46
4.98
10.86
16.24
21.07
25.27
28.77
31.60
33.94
36.09
38.35
40.93
43.82
46.82
49.54
51.62
52.80
53.08
52.63
51.84
51.12
50.84
51.28
52.61
54.84
57.85
61.41
65.33
69.49
73.86
78.43
83.12
87.65
91.59
94.56
96.35
96.98
96.60
95.29
92.94
89.30
84.05
77.04
68.25
57.64
45.21
31.13
16.02
1.15
-11.96
-22.11
-29.15
-34.14
-38.94
-45.23
-53.63
-63.38
-72.73
-79.89
-83.82
-84.50
-82.79
-79.79
-76.45
-73.29
-70.53
-68.15
-66.08
-64.16
-62.14
-59.76
-56.66
-52.49
-46.96
-39.93
-31.42
-21.76
-11.57
-1.68
7.04
13.89
18.54
21.12
22.10
22.11
21.69
21.13
20.41
19.40
17.97
16.11
14.02
11.86
9.79
7.76
5.56
2.97
-0.17
-3.80
-7.75
-11.71
-15.46
-18.92
-22.21
-25.60
-29.38
-33.75
-38.75
-44.23
-49.91
-55.46
-60.53
-64.75
-67.85
-69.63
-70.06
-69.27
-67.42
-64.64
-60.97
-56.44
-51.20
-45.55
-39.95
-34.78
-30.15
-25.80
-21.25
-16.01
-9.80
-2.66
5.11
13.09
20.83
27.95
34.20
39.55
44.33
49.02
54.08
59.53
64.88
69.17
71.46
71.31
68.93
65.14
60.93
57.01
53.64
50.75
48.16
45.83
43.89
42.49
41.67
41.21
40.79
40.05
38.80
37.02
34.83
32.37
29.67
26.63
23.06
18.86
14.15
9.33
4.99
1.73
-0.14
-0.74
-0.53
-0.13
-0.07
-0.50
-1.20
-1.77
-1.79
-1.12
0.11
1.59
3.01
4.23
5.27
6.21
7.04
7.66
7.80
7.29
6.05
4.25
2.16
0.03
-2.03
-4.06
-6.19
-8.52
-11.00
-13.47
-15.66
-17.37
-18.49
-19.07
-19.23
-19.12
-18.82
-18.31
-17.56
-16.49
-15.11
-13.57
-12.09
-10.95
-10.42
-10.64
-11.55
-12.92
-14.32
-15.20
-15.09
-13.65
-10.91
-7.16
-3.01
0.93
4.14
6.43
7.87
8.77
9.42
10.04
10.69
11.29
11.73
11.95
11.96
11.73
11.23
10.37
9.07
7.28
5.12
2.75
0.37
-1.87
-3.93
-5.85
-7.73
-9.67
-11.74
-13.97
-16.33
-18.71
-20.91
-22.76
-24.18
-25.23
-26.11
-27.06
-28.28
-29.73
-31.22
-32.47
-33.23
-33.36
-32.90
-31.92
-30.53
-28.76
-26.63
-24.12
-21.16
-17.62
-13.35
-8.20
-2.02
5.17
13.22
21.89
30.85
39.80
48.49
56.70
64.17
70.64
75.83
79.57
81.81
82.62
82.20
80.76
78.52
75.56
71.91
67.51
62.24
56.00
48.78
40.67
31.93
22.96
14.19
5.92
-1.83
-9.18
-16.42
-23.67
-30.88
-37.69
-43.61
-48.24
-51.36
-53.14
-53.97
-54.34
-54.60
-54.88
-55.08
-55.03
-54.67
-54.20
-54.03
-54.63
-56.37
-59.33
-63.28
-67.73
-72.07
-75.68
-78.11
-79.14
-78.78
-77.34
-75.18
-72.73
-70.31
-68.07
-65.97
-63.82
-61.40
-58.55
-55.33
-52.05
-49.11
-46.79
-44.91
-42.86
-39.75
-34.79
-27.76
-19.14
-9.95
-1.27
6.12
12.08
17.03
21.62
26.29
31.14
35.84
39.93
43.08
45.18
46.35
46.73
46.38
45.28
43.47
41.16
38.71
36.58
35.00
33.97
33.20
32.34
31.17
29.59
27.68
25.50
23.03
20.19
16.83
12.87
8.40
3.70
-0.66
-3.95
-5.44
-4.75
-2.02
1.97
6.06
9.15
10.55
10.20
8.59
6.46
4.45
2.88
1.73
0.82
-0.10
-1.10
-2.14
-3.05
-3.74
-4.24
-4.68
-5.25
-6.08
-7.12
-8.17
-8.97
-9.32
-9.21
-8.84
-8.52
-8.51
-8.91
-9.66
-10.53
-11.27
-11.76
-12.02
-12.22
-12.57
-13.14
-13.91
-14.64
-15.09
-15.07
-14.65
-14.10
-13.92
-14.61
-16.48
-19.44
-22.94
-26.02
-27.62
-26.95
-23.79
-18.65
-12.51
-6.51
-1.54
1.98
4.19
5.59
6.74
8.06
9.75
11.80
14.06
16.28
18.33
20.10
21.67
23.19
24.79
26.52
28.23
29.67
30.56
30.74
30.22
29.17
27.71
25.92
23.79
21.24
18.37
15.39
12.66
10.53
9.15
8.45
8.13
7.87
7.36
6.50
5.39
4.17
3.02
2.01
1.17
0.40
-0.44
-1.57
-3.25
-5.71
-9.04
-13.00
-17.04
-20.31
-21.93
-21.24
-18.15
-13.14
-7.12
-1.23
3.60
6.86
8.54
9.07
9.14
9.33
9.97
11.05
12.21
13.03
13.20
12.67
11.65
10.50
9.59
9.13
9.25
9.92
11.09
12.71
14.67
16.76
18.75
20.37
21.40
21.81
21.67
21.24
20.76
20.36
20.01
19.59
18.94
18.04
17.06
16.21
15.67
15.45
15.33
14.98
14.14
12.69
10.76
8.59
6.46
4.56
2.93
1.49
0.07
-1.57
-3.72
-6.63
-10.36
-14.66
-18.80
-21.81
-22.71
-20.91
-16.52
-10.40
-3.87
1.78
5.67
7.63
8.12
7.89
7.66
7.87
8.56
9.62
10.82
12.05
13.28
14.56
15.92
17.34
18.73
20.01
21.07
21.87
22.42
22.74
22.95
23.10
23.27
23.37
23.31
23.00
22.47
21.89
21.55
21.65
22.22
23.00
23.65
23.85
23.47
22.64
21.61
20.59
19.62
18.53
17.10
15.12
12.51
9.40
5.98
2.54
-0.71
-3.54
-5.82
-7.54
-8.82
-10.02
-11.61
-14.17
-18.10
-23.40
-29.59
-35.69
-40.54
-43.13
-43.05
-40.59
-36.70
-32.59
-29.35
-27.54
-27.13
-27.69
-28.56
-29.23
-29.36
-28.91
-27.89
-26.42
-24.62
-22.59
-20.45
-18.26
-16.05
-13.76
-11.26
-8.45
-5.25
-1.71
2.06
5.91
9.52
12.55
14.68
15.66
15.49
14.44
12.91
11.35
10.10
9.20
8.43
7.43
5.88
3.63
0.87
-1.98
-4.32
-5.73
-6.09
-5.66
-4.97
-4.66
-5.12
-6.41
-8.22
-10.09
-11.63
-12.67
-13.27
-13.69
-14.29
-15.38
-17.16
-19.64
-22.56
-25.41
-27.48
-28.03
-26.54
-22.95
-17.74
-11.82
-6.19
-1.70
1.31
2.97
3.79
4.37
5.15
6.33
7.80
9.35
10.79
12.10
13.37
14.73
16.22
17.74
19.08
20.10
20.81
21.40
22.08
23.01
24.09
25.01
25.38
24.92
23.60
21.64
19.47
17.51
16.05
15.16
14.73
14.47
14.05
13.25
11.90
10.02
7.77
5.38
3.06
0.95
-0.99
-2.92
-5.02
-7.39
-10.03
-12.76
-15.39
-17.73
-19.67
-21.25
-22.61
-23.95
-25.51
-27.51
-30.04
-32.94
-35.84
-38.13
-39.21
-38.62
-36.20
-32.19
-27.04
-21.40
-15.87
-10.89
-6.68
-3.26
-0.45
2.04
4.54
7.32
10.47
13.96
17.55
20.93
23.79
25.95
27.34
28.02
28.21
28.12
27.96
27.83
27.76
27.69
27.48
27.03
26.25
25.16
23.78
22.17
20.41
18.60
16.90
15.43
14.24
13.22
12.16
10.76
8.85
6.46
3.80
1.19
-1.09
-2.95
-4.50
-5.99
-7.68
-9.74
-12.19
-14.91
-17.62
-20.10
-22.16
-23.76
-24.98
-26.03
-27.19
-28.75
-30.93
-33.77
-36.97
-39.91
-41.73
-41.60
-39.01
-34.00
-27.23
-19.75
-12.71
-6.93
-2.76
-0.00
1.84
3.40
5.14
7.32
9.91
12.69
15.43
17.87
19.89
21.42
22.55
23.42
24.26
25.29
26.67
28.48
30.60
32.85
34.92
36.58
37.67
38.14
38.11
37.81
37.57
37.69
38.40
39.73
41.53
43.56
45.61
47.62
49.71
51.99
54.44
56.76
58.37
58.55
56.67
52.35
45.61
36.80
26.53
15.45
4.15
-6.98
-17.81
-28.39
-38.87
-49.28
-59.44
-68.88
-76.92
-82.83
-86.05
-86.36
-83.97
-79.50
-73.83
-67.89
-62.41
-57.81
-54.11
-51.01
-48.01
-44.66
-40.67
-36.03
-30.96
-25.85
-21.03
-16.75
-13.04
-9.84
-7.00
-4.43
-2.02
0.27
2.52
4.80
7.08
9.23
10.95
11.88
11.74
10.44
8.10
5.04
1.64
-1.73
-4.78
-7.28
-9.09
-10.19
-10.67
-10.77
-10.83
-11.10
-11.74
-12.74
-13.92
-15.10
-16.16
-17.14
-18.20
-19.63
-21.68
-24.53
-28.24
-32.59
-37.17
-41.29
-44.08
-44.70
-42.67
-37.99
-31.32
-23.74
-16.47
-10.45
-6.11
-3.27
-1.41
0.17
2.05
4.50
7.45
10.61
13.54
15.86
17.40
18.27
18.78
19.36
20.31
21.80
23.80
26.14
28.63
30.98
32.90
33.91
33.58
31.57
27.86
22.69
16.49
9.64
2.34
-5.40
-13.72
-22.63
-31.96
-41.38
-50.43
-58.70
-65.88
-71.82
-76.47
-79.92
-82.31
-83.76
-84.24
-83.51
-81.04
-76.16
-68.28
-57.14
-42.92
-26.20
-7.92
10.83
29.07
45.98
61.03
74.05
85.21
94.82
103.20
110.41
116.24
120.26
122.11
121.72
119.44
115.91
111.84
107.69
103.51
99.03
93.82
87.55
80.17
72.00
63.53
55.29
47.76
41.15
35.57
31.04
27.50
24.87
22.99
21.58
20.29
18.87
17.19
15.23
13.12
10.98
8.86
6.70
4.44
1.98
-0.60
-3.18
-5.53
-7.45
-8.82
-9.67
-10.17
-10.56
-11.08
-11.82
-12.77
-13.77
-14.68
-15.49
-16.28
-17.31
-18.83
-21.09
-24.16
-27.90
-31.95
-35.73
-38.60
-39.93
-39.29
-36.69
-32.59
-27.82
-23.29
-19.68
-17.19
-15.59
-14.30
-12.75
-10.50
-7.39
-3.43
1.29
6.65
12.54
18.80
25.17
31.40
37.30
42.72
47.66
52.08
55.91
58.99
61.02
61.75
60.97
58.56
54.55
49.10
42.46
34.97
27.03
18.99
11.18
3.74
-3.29
-9.96
-16.22
-21.90
-26.70
-30.25
-32.29
-32.81
-32.09
-30.68
-29.26
-28.54
-29.08
-31.23
-34.95
-39.81
-44.94
-49.12
-51.14
-50.05
-45.52
-37.99
-28.55
-18.55
-9.29
-1.62
4.11
7.85
9.84
10.30
9.56
8.07
6.37
5.05
4.54
4.97
6.10
7.50
8.62
9.09
8.76
7.68
6.07
4.18
2.21
0.27
-1.60
-3.42
-5.22
-7.01
-8.82
-10.68
-12.59
-14.49
-16.22
-17.58
-18.44
-18.84
-19.00
-19.27
-19.98
-21.30
-23.20
-25.52
-28.08
-30.74
-33.42
-36.02
-38.50
-40.85
-43.15
-45.55
-48.11
-50.63
-52.47
-52.73
-50.53
-45.49
-37.96
-29.03
-20.14
-12.58
-7.03
-3.42
-1.09
0.80
2.90
5.44
8.30
11.14
13.72
15.97
17.95
19.76
21.43
22.94
24.26
25.42
26.56
27.80
29.20
30.64
31.85
32.50
32.40
31.52
30.06
28.34
26.61
25.00
23.49
22.01
20.49
18.89
17.25
15.58
13.92
12.26
10.57
8.79
6.84
4.65
2.19
-0.55
-3.50
-6.56
-9.58
-12.40
-14.93
-17.21
-19.39
-21.79
-24.69
-28.24
-32.26
-36.13
-38.92
-39.74
-38.01
-33.82
-27.91
-21.40
-15.42
-10.70
-7.35
-4.99
-3.00
-0.85
1.71
4.66
7.84
11.06
14.22
17.30
20.24
22.93
25.19
26.87
27.88
28.27
28.19
27.79
27.12
26.16
24.80
22.94
20.53
17.68
14.68
11.85
9.54
7.95
7.06
6.69
6.58
6.48
6.30
6.04
5.75
5.39
4.82
3.83
2.20
-0.14
-3.12
-6.46
-9.84
-12.92
-15.49
-17.48
-18.99
-20.30
-21.78
-23.83
-26.74
-30.47
-34.56
-38.06
-39.88
-39.09
-35.33
-28.96
-21.05
-12.92
-5.74
-0.21
3.53
5.85
7.32
8.51
9.88
11.64
13.77
16.05
18.13
19.66
20.44
20.50
20.04
19.31
18.55
17.92
17.52
17.47
17.86
18.75
19.97
21.27
22.28
22.71
22.48
21.74
20.73
19.67
18.64
17.55
16.29
14.76
13.03
11.21
9.42
7.67
5.86
3.80
1.38
-1.38
-4.32
-7.19
-9.78
-11.99
-13.79
-15.33
-16.86
-18.66
-20.99
-23.97
-27.39
-30.67
-33.00
-33.46
-31.46
-26.98
-20.64
-13.56
-6.93
-1.62
2.04
4.23
5.54
6.60
7.86
9.54
11.56
13.67
15.58
17.04
17.97
18.36
18.38
18.22
18.07
18.06
18.21
18.49
18.81
19.10
19.27
19.29
19.13
18.81
18.31
17.63
16.81
15.89
14.96
14.10
13.45
13.11
13.30
14.21
16.03
18.97
23.05
28.17
33.93
39.84
45.27
49.69
52.72
54.17
54.03
52.45
49.69
46.10
42.08
37.97
34.00
30.11
26.04
21.44
16.00
9.57
2.18
-5.98
-14.58
-23.10
-30.87
-37.18
-41.49
-43.68
-44.08
-43.42
-42.49
-41.87
-41.65
-41.53
-41.09
-40.05
-38.51
-36.87
-35.58
-34.92
-34.84
-35.12
-35.36
-35.16
-33.93
-30.92
-25.22
-16.07
-3.44
11.72
27.47
41.58
52.30
59.07
62.43
63.54
63.47
62.68
61.23
59.20
57.21
56.44
58.33
63.81
72.87
84.61
97.51
109.90
120.23
127.07
129.05
124.95
114.01
96.37
73.24
46.62
18.76
-8.64
-34.77
-59.67
-83.59
-106.41
-127.26
-144.56
-156.45
-161.34
-158.35
-147.69
-130.67
-109.53
-87.16
-66.35
-49.33
-37.28
-30.24
-27.39
-27.51
-29.34
-31.90
-34.44
-36.43
-37.47
-37.45
-36.45
-34.80
-32.90
-31.08
-29.40
-27.65
-25.43
-22.41
-18.42
-13.65
-8.57
-3.77
0.29
3.48
6.01
8.28
10.59
12.93
15.00
16.37
16.76
16.22
15.14
13.96
12.94
11.98
10.73
8.76
5.94
2.54
-0.90
-3.68
-5.28
-5.46
-4.33
-2.34
-0.18
1.33
1.32
-0.84
-5.26
-11.30
-17.46
-21.82
-22.71
-19.48
-13.02
-5.63
-0.35
0.28
-4.88
-14.97
-27.52
-39.44
-48.09
-52.08
-51.53
-47.72
-42.48
-37.61
-34.40
-33.47
-34.74
-37.53
-40.68
-42.94
-43.20
-40.96
-36.42
-30.50
-24.51
-19.79
-17.31
-17.55
-20.47
-25.54
-31.91
-38.36
-43.51
-46.08
-45.32
-41.28
-34.99
-28.03
-22.02
-17.96
-15.93
-15.32
-15.26
-15.18
-14.91
-14.61
-14.33
-13.86
-12.78
-10.69
-7.53
-3.58
0.71
4.97
9.07
13.03
16.80
20.19
22.87
24.56
25.23
25.10
24.54
23.82
23.02
22.05
20.86
19.64
18.86
19.10
20.72
23.66
27.35
30.94
33.65
35.11
35.45
35.23
35.04
35.25
35.84
36.54
37.00
37.00
36.59
35.90
35.15
34.48
33.85
33.15
32.28
31.19
29.96
28.61
27.18
25.57
23.70
21.50
19.02
16.47
14.09
12.09
10.55
9.42
8.59
7.95
7.45
7.13
7.01
7.07
7.21
7.24
6.95
6.16
4.81
3.00
1.02
-0.75
-1.94
-2.37
-2.19
-1.78
-1.64
-2.24
-3.83
-6.38
-9.62
-13.11
-16.31
-18.64
-19.63
-18.99
-16.78
-13.38
-9.45
-5.72
-2.81
-0.98
-0.17
-0.09
-0.27
-0.29
0.12
1.02
2.27
3.61
4.77
5.58
5.95
5.97
5.76
5.49
5.29
5.21
5.31
5.53
5.75
5.84
5.63
5.09
4.28
3.45
2.84
2.69
3.01
3.70
4.53
5.30
5.92
6.46
7.11
7.99
9.07
10.11
10.65
10.18
8.26
4.57
-0.98
-8.28
-16.97
-26.44
-35.91
-44.53
-51.60
-56.80
-60.21
-62.21
-63.07
-62.73
-60.73
-56.33
-49.00
-38.74
-26.18
-12.56
0.67
12.29
21.52
28.16
32.53
35.12
36.58
37.42
38.02
38.64
39.49
40.63
42.14
43.86
45.47
46.51
46.52
45.24
42.73
39.34
35.52
31.66
27.95
24.30
20.49
16.28
11.63
6.64
1.64
-3.02
-6.96
-9.91
-11.76
-12.54
-12.39
-11.50
-10.07
-8.29
-6.36
-4.57
-3.26
-2.78
-3.33
-4.91
-7.26
-9.97
-12.69
-15.28
-17.87
-20.69
-23.88
-27.28
-30.38
-32.37
-32.57
-30.63
-26.81
-21.94
-17.15
-13.38
-11.13
-10.28
-10.20
-10.19
-9.70
-8.64
-7.26
-5.93
-4.92
-4.28
-3.85
-3.49
-3.06
-2.56
-1.95
-1.14
0.03
1.70
3.82
6.19
8.45
10.17
11.08
11.04
10.12
8.57
6.75
5.03
3.67
2.81
2.35
2.09
1.80
1.37
0.85
0.41
0.25
0.41
0.75
1.03
1.02
0.59
-0.16
-1.09
-2.02
-2.88
-3.74
-4.76
-6.11
-7.87
-10.07
-12.67
-15.58
-18.61
-21.37
-23.32
-23.79
-22.36
-18.94
-14.05
-8.58
-3.54
0.36
2.90
4.38
5.43
6.62
8.26
10.32
12.52
14.49
15.99
16.90
17.26
17.18
16.76
16.11
15.33
14.49
13.65
12.81
12.00
11.17
10.30
9.36
8.35
7.32
6.33
5.49
4.98
4.92
5.35
6.16
7.10
7.89
8.27
8.12
7.47
6.43
5.13
3.66
2.11
0.49
-1.19
-2.95
-4.77
-6.61
-8.35
-9.84
-10.99
-11.80
-12.41
-13.13
-14.26
-16.00
-18.42
-21.34
-24.45
-27.24
-29.11
-29.50
-28.02
-24.65
-19.81
-14.29
-8.99
-4.63
-1.66
-0.11
0.29
-0.04
-0.68
-1.22
-1.40
-1.09
-0.29
0.81
1.99
2.98
3.67
4.09
4.40
4.77
5.34
6.15
7.14
8.17
9.04
9.58
9.71
9.41
8.77
7.95
7.11
6.39
5.84
5.39
4.94
4.40
3.75
3.02
2.34
1.79
1.41
1.14
0.80
0.21
-0.76
-2.09
-3.65
-5.23
-6.67
-7.90
-8.96
-9.97
-11.04
-12.31
-13.79
-15.44
-16.97
-17.99
-18.02
-16.67
-13.82
-9.79
-5.20
-0.87
2.47
4.47
5.19
4.99
4.44
3.99
3.95
4.31
4.96
5.68
6.33
6.84
7.20
7.41
7.47
7.35
7.09
6.80
6.59
6.52
6.52
6.39
5.89
4.87
3.40
1.66
-0.04
-1.49
-2.58
-3.33
-3.85
-4.26
-4.75
-5.42
-6.23
-6.84
-6.65
-4.89
-0.96
5.25
13.28
22.13
30.63
37.73
42.79
45.60
46.28
45.18
42.76
39.49
35.79
31.88
27.68
22.84
16.92
9.67
1.32
-7.46
-15.60
-22.07
-26.20
-27.93
-27.74
-26.50
-25.17
-24.47
-24.74
-25.85
-27.37
-28.68
-29.25
-28.79
-27.26
-24.91
-22.14
-19.38
-16.91
-14.90
-13.35
-12.14
-11.14
-10.22
-9.23
-8.01
-6.41
-4.37
-1.99
0.47
2.67
4.33
5.31
5.68
5.67
5.49
5.30
5.17
5.04
4.81
4.38
3.63
2.57
1.22
-0.22
-1.53
-2.44
-2.87
-2.88
-2.76
-2.79
-3.20
-4.02
-5.06
-6.06
-6.78
-7.15
-7.25
-7.24
-7.38
-7.86
-8.81
-10.31
-12.32
-14.71
-17.18
-19.27
-20.48
-20.41
-18.87
-16.01
-12.30
-8.34
-4.75
-1.93
0.01
1.21
1.99
2.71
3.61
4.77
6.09
7.41
8.58
9.46
10.04
10.35
10.40
10.24
9.88
9.38
8.81
8.30
7.94
7.68
7.41
6.91
6.01
4.65
2.95
1.13
-0.61
-2.19
-3.65
-5.15
-6.88
-8.88
-11.06
-13.10
-14.46
-14.62
-13.19
-10.13
-5.88
-1.34
2.52
4.90
5.56
4.85
3.46
2.08
1.13
0.54
-0.07
-1.20
-3.19
-6.09
-9.68
-13.57
-17.21
-20.07
-21.64
-21.63
-19.97
-16.99
-13.27
-9.52
-6.36
-4.12
-2.81
-2.20
-1.91
-1.58
-1.00
-0.09
1.12
2.55
4.08
5.59
6.91
7.88
8.42
8.51
8.26
7.90
7.69
7.81
8.32
9.12
9.95
10.54
10.65
10.25
9.45
8.45
7.48
6.66
6.03
5.47
4.82
4.01
3.04
2.01
1.06
0.30
-0.32
-0.93
-1.70
-2.75
-4.03
-5.44
-6.82
-8.06
-9.18
-10.28
-11.57
-13.22
-15.34
-17.95
-20.86
-23.74
-26.08
-27.30
-26.94
-24.81
-21.13
-16.47
-11.65
-7.44
-4.31
-2.32
-1.16
-0.34
0.53
1.63
2.87
4.06
5.08
5.94
6.78
7.74
8.89
10.11
11.18
11.92
12.22
12.18
11.96
11.79
11.81
12.08
12.54
13.08
13.57
13.89
13.97
13.79
13.37
12.80
12.10
11.31
10.37
9.22
7.81
6.12
4.24
2.33
0.57
-0.98
-2.35
-3.69
-5.15
-6.84
-8.76
-10.86
-13.06
-15.35
-17.72
-20.22
-22.82
-25.56
-28.46
-31.58
-34.98
-38.48
-41.73
-44.08
-44.87
-43.63
-40.35
-35.45
-29.66
-23.79
-18.46
-14.10
-10.80
-8.49
-6.96
-5.93
-5.10
-4.20
-3.09
-1.73
-0.25
1.21
2.54
3.70
4.75
5.80
6.94
8.22
9.59
10.95
12.17
13.14
13.78
14.11
14.25
14.35
14.54
14.90
15.41
15.94
16.36
16.56
16.47
16.05
15.30
14.19
12.72
11.00
9.20
7.45
5.79
4.07
2.00
-0.73
-4.17
-8.10
-12.04
-15.51
-18.12
-19.79
-20.74
-21.34
-22.06
-23.33
-25.45
-28.47
-32.13
-35.76
-38.46
-39.32
-37.73
-33.68
-27.78
-21.09
-14.74
-9.61
-6.08
-4.02
-2.93
-2.15
-1.10
0.57
2.96
5.91
9.13
12.26
15.01
17.24
18.96
20.29
21.38
22.31
23.04
23.48
23.54
23.21
22.58
21.82
21.11
20.53
20.08
19.67
19.26
18.81
18.35
17.89
17.37
16.72
15.81
14.63
13.25
11.83
10.51
9.31
8.11
6.64
4.70
2.17
-0.85
-4.13
-7.35
-10.28
-12.84
-15.16
-17.54
-20.34
-23.84
-27.98
-32.34
-36.06
-38.06
-37.39
-33.58
-26.95
-18.48
-9.54
-1.42
5.05
9.68
12.80
15.02
16.94
19.05
21.59
24.56
27.71
30.57
32.57
33.28
32.57
30.71
28.29
25.96
24.22
23.29
23.17
23.65
24.56
25.61
26.55
27.07
26.93
26.02
24.48
22.58
20.68
19.06
17.86
17.10
16.63
16.28
15.84
15.13
14.09
12.68
10.93
8.86
6.47
3.74
0.69
-2.58
-5.97
-9.31
-12.62
-16.06
-19.94
-24.57
-29.98
-35.82
-41.21
-45.02
-46.13
-43.95
-38.70
-31.34
-23.30
-15.91
-10.00
-5.67
-2.49
0.25
3.16
6.57
10.53
14.95
19.67
24.49
29.18
33.42
36.84
39.10
40.06
39.88
38.94
37.74
36.70
36.04
35.67
35.34
34.74
33.58
31.82
29.56
27.08
24.71
22.81
21.52
20.82
20.45
20.03
19.18
17.70
15.63
13.21
10.77
8.57
6.72
5.07
3.37
1.30
-1.33
-4.53
-8.14
-11.87
-15.51
-19.00
-22.57
-26.63
-31.59
-37.66
-44.63
-51.81
-58.17
-62.60
-64.16
-62.40
-57.47
-50.13
-41.56
-33.10
-25.81
-20.31
-16.61
-14.21
-12.36
-10.40
-7.88
-4.78
-1.30
2.25
5.57
8.52
11.10
13.35
15.30
16.99
18.44
19.73
20.95
22.21
23.55
24.90
26.08
26.83
26.94
26.32
25.09
23.56
22.11
21.13
20.79
20.98
21.32
21.34
20.66
19.18
17.10
14.74
12.49
10.52
8.77
7.01
5.00
2.55
-0.38
-3.68
-7.14
-10.52
-13.58
-16.22
-18.43
-20.37
-22.35
-24.76
-27.98
-32.17
-37.16
-42.33
-46.70
-49.15
-48.77
-45.21
-38.78
-30.45
-21.52
-13.27
-6.59
-1.84
1.17
3.03
4.40
5.92
7.92
10.53
13.60
16.85
20.00
22.80
25.07
26.73
27.88
28.72
29.56
30.73
32.48
34.85
37.66
40.51
42.84
44.18
44.21
42.97
40.83
38.31
35.97
34.09
32.62
31.18
29.34
26.79
23.47
19.70
15.88
12.36
9.19
6.23
3.15
-0.28
-4.11
-8.16
-12.11
-15.71
-18.87
-21.71
-24.54
-27.73
-31.66
-36.57
-42.44
-48.85
-54.84
-59.18
-60.62
-58.46
-52.79
-44.54
-35.16
-26.11
-18.36
-12.29
-7.75
-4.29
-1.46
1.06
3.45
5.88
8.44
11.22
14.20
17.30
20.33
23.08
25.39
27.15
28.39
29.20
29.72
30.02
30.12
29.94
29.35
28.30
26.80
25.00
23.10
21.31
19.79
18.55
17.53
16.53
15.35
13.84
11.95
9.72
7.26
4.65
1.86
-1.17
-4.56
-8.29
-12.23
-16.07
-19.50
-22.24
-24.16
-25.37
-26.18
-27.06
-28.47
-30.78
-34.03
-37.89
-41.62
-44.17
-44.59
-42.22
-37.11
-30.02
-22.17
-14.93
-9.25
-5.49
-3.30
-1.99
-0.74
1.05
3.57
6.69
10.06
13.29
16.09
18.31
20.02
21.34
22.38
23.13
23.53
23.50
23.06
22.41
21.79
21.38
21.16
20.90
20.33
19.27
17.80
16.21
14.83
13.88
13.32
12.92
12.39
11.48
10.22
8.72
7.23
5.95
4.92
4.03
2.98
1.50
-0.64
-3.42
-6.65
-10.02
-13.20
-15.95
-18.25
-20.24
-22.20
-24.53
-27.56
-31.45
-36.02
-40.65
-44.34
-45.93
-44.56
-39.97
-32.71
-23.99
-15.32
-8.00
-2.71
0.53
2.35
3.53
4.82
6.63
9.04
11.84
14.74
17.43
19.70
21.46
22.71
23.54
24.05
24.39
24.63
24.82
25.03
25.28
25.59
25.90
26.10
26.02
25.52
24.54
23.24
21.90
20.79
20.12
19.82
19.66
19.27
18.37
16.81
14.62
12.03
9.32
6.77
4.54
2.63
0.83
-1.12
-3.50
-6.37
-9.56
-12.72
-15.51
-17.70
-19.44
-21.08
-23.14
-26.10
-30.14
-35.09
-40.28
-44.72
-47.23
-46.85
-43.10
-36.25
-27.27
-17.60
-8.69
-1.64
3.11
5.73
6.85
7.27
7.74
8.68
10.24
12.21
14.22
15.95
17.23
18.11
18.79
19.50
20.29
21.10
21.69
21.86
21.50
20.65
19.44
18.01
16.44
14.77
13.05
11.35
9.76
8.36
7.15
6.09
5.08
4.06
3.02
2.00
1.01
0.03
-1.02
-2.25
-3.71
-5.37
-7.17
-9.02
-10.86
-12.75
-14.75
-17.04
-19.85
-23.38
-27.69
-32.52
-37.25
-40.85
-42.23
-40.56
-35.66
-28.09
-19.06
-9.96
-2.02
4.04
8.14
10.69
12.32
13.64
15.01
16.61
18.46
20.55
22.89
25.48
28.22
30.94
33.39
35.44
37.14
38.70
40.48
42.67
45.32
48.19
50.82
52.68
53.21
52.13
49.43
45.43
40.65
35.64
30.75
26.07
21.49
16.83
12.07
7.35
2.93
-1.01
-4.43
-7.53
-10.60
-13.86
-17.46
-21.36
-25.41
-29.33
-32.88
-35.81
-38.09
-39.85
-41.42
-43.30
-45.96
-49.63
-54.10
-58.63
-62.09
-63.26
-61.24
-55.85
-47.77
-38.30
-28.96
-20.99
-15.09
-11.23
-8.91
-7.42
-6.05
-4.30
-1.92
1.04
4.29
7.41
10.03
11.91
13.06
13.69
14.10
14.64
15.53
16.83
18.41
20.05
21.47
22.35
22.51
21.90
20.63
18.96
17.24
15.80
14.86
14.46
14.34
14.15
13.43
11.91
9.53
6.55
3.41
0.56
-1.69
-3.31
-4.53
-5.72
-7.28
-9.46
-12.27
-15.44
-18.59
-21.29
-23.29
-24.65
-25.74
-27.14
-29.39
-32.83
-37.36
-42.36
-46.75
-49.30
-48.99
-45.44
-39.06
-30.95
-22.58
-15.21
-9.62
-5.88
-3.56
-1.95
-0.34
1.76
4.59
8.08
11.93
15.78
19.25
22.08
24.22
25.70
26.65
27.18
27.38
27.38
27.40
27.59
27.98
28.37
28.40
27.64
25.90
23.31
20.33
17.56
15.47
14.20
13.59
13.19
12.57
11.46
9.85
7.98
6.17
4.71
3.66
2.89
2.10
0.91
-0.87
-3.27
-6.06
-8.85
-11.31
-13.28
-14.87
-16.44
-18.50
-21.50
-25.69
-30.85
-36.29
-40.87
-43.34
-42.71
-38.71
-31.86
-23.44
-14.95
-7.66
-2.24
1.34
3.57
5.14
6.56
8.11
9.82
11.59
13.29
14.84
16.25
17.57
18.90
20.32
21.80
23.22
24.45
25.30
25.79
25.92
25.80
25.52
25.06
24.37
23.41
22.24
20.94
19.69
18.61
17.76
17.17
16.96
17.36
18.69
21.19
24.80
29.07
33.17
36.04
36.77
34.82
30.25
23.64
15.94
8.09
0.77
-5.73
-11.54
-17.03
-22.62
-28.54
-34.73
-40.72
-45.70
-48.74
-49.04
-46.30
-40.85
-33.69
-26.15
-19.55
-14.77
-12.01
-10.84
-10.50
-10.15
-9.18
-7.36
-4.79
-1.75
1.42
4.42
7.02
9.17
10.79
11.98
12.89
13.75
14.78
16.06
17.56
18.97
19.96
20.20
19.50
17.93
15.75
13.36
11.20
9.56
8.57
8.10
7.85
7.45
6.61
5.30
3.71
2.16
0.98
0.27
-0.15
-0.67
-1.73
-3.65
-6.51
-10.08
-13.99
-17.74
-20.95
-23.44
-25.28
-26.82
-28.54
-30.92
-34.26
-38.48
-42.97
-46.81
-48.91
-48.36
-44.78
-38.42
-30.19
-21.40
-13.34
-6.99
-2.73
-0.35
0.84
1.67
2.83
4.69
7.28
10.36
13.52
16.37
18.64
20.17
20.95
21.09
20.82
20.51
20.46
20.89
21.86
23.24
24.79
26.15
27.00
27.06
26.21
24.51
22.24
19.84
17.82
16.45
15.72
15.34
14.87
13.96
12.45
10.40
8.08
5.80
3.82
2.30
1.24
0.45
-0.36
-1.48
-3.13
-5.34
-7.97
-10.77
-13.54
-16.11
-18.50
-20.87
-23.46
-26.54
-30.32
-34.71
-39.19
-42.82
-44.47
-43.26
-38.94
-32.09
-23.93
-15.92
-9.22
-4.37
-1.31
0.45
1.54
2.49
3.64
5.21
7.19
9.45
11.71
13.64
14.96
15.58
15.65
15.49
15.49
15.87
16.69
17.83
19.03
20.11
20.86
21.16
20.92
20.20
19.10
17.85
16.73
15.92
15.44
15.08
14.55
13.53
11.96
9.93
7.72
5.58
3.59
1.65
-0.46
-2.91
-5.66
-8.52
-11.17
-13.37
-15.05
-16.41
-17.79
-19.59
-22.14
-25.51
-29.48
-33.47
-36.63
-38.00
-36.90
-33.06
-26.90
-19.40
-11.76
-5.10
-0.06
3.25
5.17
6.23
6.98
7.72
8.59
9.58
10.63
11.69
12.73
13.76
14.79
15.80
16.72
17.52
18.17
18.72
19.24
19.79
20.29
20.60
20.49
19.76
18.36
16.41
14.24
12.18
10.51
9.30
8.41
7.54
6.42
4.91
3.07
1.13
-0.70
-2.34
-3.86
-5.45
-7.28
-9.42
-11.78
-14.19
-16.57
-18.90
-21.27
-23.80
-26.65
-29.92
-33.62
-37.57
-41.28
-43.96
-44.65
-42.60
-37.61
-30.24
-21.65
-13.28
-6.29
-1.25
1.96
3.91
5.37
6.90
8.81
11.12
13.62
16.05
18.14
19.74
20.81
21.40
21.58
21.50
21.28
21.04
20.91
20.97
21.24
21.60
21.87
21.78
21.17
20.00
18.43
16.77
15.38
14.48
14.09
14.02
13.93
13.53
12.72
11.67
10.73
10.22
10.23
10.49
10.61
10.08
8.61
6.18
2.99
-0.56
-4.08
-7.26
-9.91
-12.07
-14.01
-16.12
-18.89
-22.60
-27.15
-31.96
-36.01
-38.15
-37.48
-33.73
-27.35
-19.47
-11.49
-4.64
0.37
3.47
5.11
5.95
6.63
7.55
8.86
10.48
12.26
13.96
15.39
16.44
17.03
17.19
17.00
16.55
15.95
15.31
14.73
14.25
13.84
13.35
12.63
11.56
10.16
8.56
6.99
5.64
4.59
3.83
3.21
2.59
1.81
0.84
-0.28
-1.42
-2.45
-3.29
-3.91
-4.35
-4.69
-5.04
-5.47
-6.01
-6.71
-7.53
-8.41
-9.28
-10.10
-10.90
-11.85
-13.23
-15.33
-18.30
-21.98
-25.78
-28.73
-29.81
-28.28
-24.01
-17.64
-10.37
-3.63
1.38
4.05
4.44
3.12
0.96
-1.19
-2.75
-3.41
-3.23
-2.48
-1.58
-0.92
-0.73
-1.00
-1.51
-1.80
-1.37
0.31
3.55
8.36
14.39
21.05
27.55
33.18
37.39
39.88
40.55
39.43
36.63
32.42
27.20
21.53
16.03
11.15
7.06
3.60
0.40
-2.91
-6.52
-10.34
-14.17
-17.75
-20.99
-23.99
-26.92
-29.97
-33.28
-36.95
-41.05
-45.64
-50.61
-55.52
-59.56
-61.65
-60.86
-56.82
-49.93
-41.37
-32.65
-25.11
-19.54
-15.99
-13.94
-12.64
-11.41
-9.81
-7.72
-5.17
-2.32
0.68
3.68
6.63
9.52
12.41
15.32
18.26
21.14
23.88
26.39
28.59
30.39
31.69
32.32
32.14
31.10
29.22
26.74
23.94
21.05
18.26
15.60
13.05
10.57
8.09
5.61
3.15
0.70
-1.69
-4.01
-6.23
-8.29
-10.07
-11.47
-12.36
-12.74
-12.73
-12.63
-12.84
-13.83
-15.96
-19.33
-23.64
-28.13
-31.70
-33.22
-31.91
-27.69
-21.26
-13.91
-7.02
-1.64
1.84
3.63
4.30
4.52
4.80
5.46
6.63
8.26
10.17
12.09
13.71
14.80
15.33
15.41
15.30
15.27
15.56
16.26
17.38
18.82
20.38
21.82
22.80
23.09
22.60
21.41
19.76
17.91
16.05
14.26
12.55
10.89
9.27
7.73
6.31
5.10
4.11
3.32
2.64
1.83
0.65
-1.11
-3.53
-6.49
-9.66
-12.70
-15.32
-17.46
-19.27
-21.07
-23.25
-26.15
-29.88
-34.21
-38.43
-41.51
-42.40
-40.36
-35.43
-28.35
-20.43
-13.01
-7.04
-2.78
0.14
2.37
4.58
7.22
10.53
14.57
19.32
24.63
30.16
35.35
39.56
42.18
42.89
41.73
39.06
35.43
31.37
27.26
23.25
19.39
15.66
12.06
8.68
5.59
2.85
0.48
-1.57
-3.42
-5.20
-6.96
-8.75
-10.48
-12.00
-13.22
-14.10
-14.75
-15.34
-16.09
-17.02
-18.02
-18.90
-19.53
-19.93
-20.30
-20.92
-22.05
-23.84
-26.37
-29.59
-33.23
-36.70
-39.12
-39.50
-37.14
-31.97
-24.67
-16.51
-8.91
-2.91
1.09
3.32
4.44
5.10
5.79
6.73
7.92
9.25
10.63
12.01
13.37
14.68
15.91
16.98
17.83
18.39
18.70
18.87
19.03
19.30
19.68
20.08
20.34
20.29
19.80
18.89
17.59
16.02
14.27
12.44
10.58
8.75
7.00
5.32
3.70
2.03
0.17
-1.98
-4.46
-7.22
-10.12
-13.02
-15.83
-18.53
-21.24
-24.13
-27.40
-31.25
-35.71
-40.50
-45.00
-48.24
-49.19
-47.13
-42.01
-34.56
-26.05
-17.88
-11.16
-6.35
-3.29
-1.36
0.12
1.72
3.71
6.13
8.86
11.63
14.17
16.25
17.81
18.90
19.70
20.44
21.27
22.23
23.29
24.32
25.16
25.63
25.55
24.78
23.33
21.34
19.13
17.06
15.45
14.36
13.67
13.18
12.66
12.04
11.28
10.41
9.43
8.25
6.76
4.82
2.39
-0.51
-3.79
-7.30
-10.89
-14.42
-17.78
-20.93
-23.97
-27.11
-30.63
-34.74
-39.37
-44.02
-47.82
-49.71
-48.84
-44.93
-38.39
-30.30
-22.01
-14.68
-8.96
-4.82
-1.77
0.89
3.66
6.73
9.98
13.14
15.96
18.34
20.32
21.96
23.38
24.61
25.75
26.95
28.46
30.54
33.33
36.76
40.46
43.81
46.20
47.17
46.58
44.65
41.79
38.37
34.58
30.40
25.73
20.62
15.31
10.26
5.94
2.59
0.17
-1.69
-3.46
-5.56
-8.23
-11.51
-15.23
-19.12
-22.78
-25.86
-28.18
-29.79
-31.11
-32.80
-35.60
-40.02
-46.09
-53.15
-59.94
-64.81
-66.18
-63.11
-55.58
-44.68
-32.27
-20.45
-10.83
-4.19
-0.35
1.51
2.40
3.17
4.25
5.80
7.78
10.08
12.65
15.39
18.16
20.81
23.17
25.11
26.58
27.59
28.18
28.38
28.23
27.74
26.90
25.70
24.05
21.91
19.34
16.53
13.83
11.59
10.08
9.28
8.87
8.36
7.32
5.57
3.21
0.55
-2.06
-4.42
-6.44
-8.21
-9.90
-11.77
-14.10
-17.15
-21.09
-25.83
-30.92
-35.57
-38.72
-39.43
-37.20
-32.21
-25.34
-17.93
-11.32
-6.49
-3.80
-2.96
-3.22
-3.73
-3.81
-3.15
-1.75
0.11
2.05
3.81
5.32
6.63
7.94
9.37
10.99
12.78
14.68
16.55
18.25
19.57
20.25
20.13
19.21
17.69
15.95
14.37
13.18
12.41
11.91
11.46
10.92
10.28
9.66
9.16
8.78
8.36
7.60
6.23
4.11
1.33
-1.87
-5.22
-8.47
-11.60
-14.70
-17.99
-21.71
-26.04
-31.02
-36.46
-41.79
-46.09
-48.26
-47.39
-43.07
-35.71
-26.45
-16.80
-8.14
-1.32
3.50
6.65
8.70
10.23
11.68
13.27
15.08
17.07
19.07
20.89
22.36
23.39
24.02
24.39
24.64
24.93
25.37
26.04
26.91
27.85
28.60
28.83
28.24
26.77
24.63
22.24
20.10
18.52
17.57
17.01
16.49
15.71
14.55
13.08
11.53
10.09
8.83
7.64
6.28
4.49
2.13
-0.76
-4.01
-7.33
-10.50
-13.36
-15.91
-18.28
-20.72
-23.46
-26.69
-30.35
-34.13
-37.40
-39.35
-39.23
-36.63
-31.66
-24.99
-17.67
-10.79
-5.19
-1.16
1.55
3.55
5.53
8.00
11.10
14.63
18.17
21.26
23.57
25.01
25.71
25.91
25.88
25.75
25.61
25.46
25.32
25.25
25.31
25.45
25.50
25.20
24.36
22.91
21.05
19.07
17.29
15.87
14.72
13.63
12.39
10.91
9.25
7.57
5.99
4.52
3.03
1.34
-0.67
-2.95
-5.35
-7.67
-9.75
-11.53
-13.07
-14.47
-15.83
-17.25
-18.88
-20.91
-23.49
-26.64
-30.01
-32.90
-34.41
-33.74
-30.51
-24.98
-18.03
-10.80
-4.44
0.36
3.41
5.04
5.85
6.44
7.25
8.39
9.72
10.94
11.80
12.24
12.35
12.35
12.40
12.59
12.88
13.23
13.67
14.25
15.02
15.90
16.70
17.13
16.89
15.88
14.17
12.06
9.89
8.00
6.55
5.50
4.60
3.50
1.88
-0.40
-3.24
-6.31
-9.20
-11.66
-13.64
-15.32
-16.98
-18.88
-21.20
-24.07
-27.62
-31.90
-36.72
-41.53
-45.36
-47.14
-45.99
-41.75
-35.10
-27.38
-20.05
-14.23
-10.31
-7.97
-6.49
-5.11
-3.39
-1.21
1.29
3.90
6.50
9.03
11.47
13.73
15.65
17.00
17.66
17.61
17.01
16.13
15.21
14.47
13.99
13.72
13.49
13.16
12.55
11.59
10.30
8.82
7.36
6.13
5.27
4.80
4.58
4.40
4.02
3.30
2.21
0.81
-0.80
-2.53
-4.26
-5.98
-7.70
-9.59
-11.94
-15.11
-19.33
-24.54
-30.21
-35.41
-39.06
-40.31
-38.83
-34.98
-29.64
-23.90
-18.69
-14.52
-11.43
-9.11
-7.14
-5.13
-2.80
-0.06
3.11
6.58
10.16
13.54
16.45
18.77
20.59
22.13
23.70
25.42
27.20
28.78
29.82
30.14
29.71
28.65
27.14
25.32
23.23
20.94
18.60
16.45
14.75
13.69
13.24
13.21
13.33
13.32
13.01
12.34
11.31
9.92
8.16
5.98
3.41
0.52
-2.56
-5.76
-9.09
-12.66
-16.63
-21.02
-25.57
-29.69
-32.52
-33.16
-31.09
-26.40
-19.85
-12.64
-5.96
-0.64
3.08
5.49
7.17
8.67
10.31
12.11
13.94
15.60
16.86
17.63
17.87
17.63
17.11
16.50
16.01
15.75
15.79
16.08
16.62
17.32
18.06
18.55
18.48
17.57
15.78
13.42
11.04
9.20
8.24
8.10
8.31
8.23
7.27
5.17
2.15
-1.22
-4.15
-5.95
-6.30
-5.40
-3.95
-2.94
-3.32
-5.66
-9.99
-15.79
-22.08
-27.73
-31.65
-33.12
-31.89
-28.30
-23.12
-17.45
-12.32
-8.48
-6.20
-5.25
-5.09
-5.08
-4.74
-3.84
-2.44
-0.72
1.14
3.03
4.87
6.60
8.11
9.22
9.81
9.90
9.67
9.44
9.54
10.11
11.04
12.05
12.75
12.84
12.27
11.20
9.94
8.81
7.97
7.38
6.85
6.06
4.69
2.57
-0.33
-3.83
-7.67
-11.50
-15.02
-18.06
-20.61
-22.80
-24.87
-27.06
-29.58
-32.45
-35.41
-37.89
-39.10
-38.29
-35.06
-29.60
-22.68
-15.49
-9.15
-4.39
-1.34
0.44
1.62
2.83
4.43
6.40
8.50
10.40
11.88
12.89
13.47
13.80
13.96
14.03
14.04
14.01
14.00
14.08
14.29
14.63
15.03
15.35
15.40
15.06
14.30
13.25
12.12
11.12
10.34
9.80
9.40
9.06
8.76
8.53
8.36
8.13
7.60
6.48
4.63
2.07
-0.94
-4.03
-6.93
-9.49
-11.78
-14.01
-16.42
-19.24
-22.58
-26.43
-30.51
-34.28
-36.93
-37.63
-35.81
-31.47
-25.30
-18.44
-12.16
-7.36
-4.27
-2.49
-1.28
0.10
2.14
4.84
7.91
10.90
13.48
15.47
16.94
18.04
18.88
19.54
20.02
20.29
20.39
20.38
20.34
20.27
20.10
19.68
18.88
17.64
16.04
14.26
12.52
11.00
9.82
8.99
8.38
7.82
7.10
6.07
4.72
3.11
1.42
-0.18
-1.56
-2.73
-3.80
-5.04
-6.73
-9.13
-12.33
-16.21
-20.37
-24.13
-26.66
-27.20
-25.27
-20.98
-15.01
-8.47
-2.51
2.03
4.87
6.32
7.04
7.72
8.77
10.32
12.15
14.00
15.64
16.94
17.92
18.62
19.08
19.34
19.48
19.54
19.55
19.47
19.22
18.68
17.79
16.52
14.91
13.07
11.17
9.37
7.89
6.81
6.11
5.64
5.19
4.63
3.84
2.79
1.44
-0.22
-2.25
-4.53
-6.90
-9.06
-10.80
-12.05
-13.00
-13.99
-15.40
-17.49
-20.32
-23.72
-27.28
-30.43
-32.50
-32.91
-31.33
-27.80
-22.81
-17.13
-11.57
-6.81
-3.17
-0.64
1.05
2.24
3.24
4.27
5.47
6.85
8.28
9.61
10.61
11.14
11.16
10.79
10.25
9.75
9.47
9.50
9.80
10.30
10.87
11.34
11.59
11.57
11.25
10.73
10.13
9.56
9.08
8.67
8.16
7.39
6.22
4.65
2.83
0.96
-0.74
-2.19
-3.46
-4.74
-6.25
-8.07
-10.13
-12.21
-14.09
-15.68
-17.02
-18.32
-19.83
-21.76
-24.14
-26.82
-29.35
-31.08
-31.30
-29.48
-25.57
-20.06
-13.93
-8.26
-3.88
-1.08
0.42
1.20
1.80
2.53
3.42
4.35
5.30
6.37
7.78
9.67
11.96
14.37
16.46
17.86
18.45
18.33
17.82
17.24
16.77
16.41
16.00
15.34
14.30
12.88
11.14
9.26
7.40
5.74
4.37
3.31
2.55
1.96
1.38
0.68
-0.21
-1.27
-2.40
-3.48
-4.42
-5.19
-5.86
-6.56
-7.54
-9.02
-11.22
-14.15
-17.60
-21.02
-23.66
-24.78
-23.86
-20.86
-16.24
-10.81
-5.53
-1.22
1.63
2.95
2.98
2.23
1.24
0.51
0.36
0.91
2.03
3.49
5.02
6.48
7.82
9.08
10.30
11.42
12.32
12.88
13.01
12.75
12.20
11.59
11.16
11.17
11.79
13.04
14.72
16.45
17.74
18.18
17.60
16.07
13.79
11.01
7.89
4.52
0.98
-2.53
-5.85
-8.79
-11.35
-13.61
-15.73
-17.86
-20.06
-22.38
-24.88
-27.72
-30.98
-34.46
-37.68
-39.87
-40.22
-38.31
-34.26
-28.78
-22.94
-17.70
-13.65
-10.94
-9.23
-8.08
-7.09
-6.07
-4.96
-3.78
-2.54
-1.21
0.20
1.65
3.06
4.36
5.49
6.46
7.34
8.25
9.26
10.39
11.61
12.77
13.71
14.26
14.33
13.90
13.08
12.06
11.03
10.20
9.65
9.37
9.19
8.89
8.21
6.99
5.24
3.12
0.86
-1.39
-3.51
-5.49
-7.29
-8.89
-10.30
-11.63
-13.13
-15.05
-17.53
-20.32
-22.84
-24.33
-24.12
-21.98
-18.21
-13.56
-8.88
-4.91
-2.00
-0.20
0.65
0.86
0.71
0.49
0.47
0.82
1.64
2.84
4.25
5.67
6.97
8.09
8.98
9.56
9.75
9.52
8.99
8.38
7.96
7.92
8.21
8.66
9.00
9.01
8.65
7.99
7.16
6.24
5.23
4.07
2.68
1.05
-0.81
-2.74
-4.58
-6.20
-7.48
-8.38
-8.94
-9.26
-9.56
-10.13
-11.27
-13.19
-15.80
-18.64
-21.00
-22.04
-21.20
-18.33
-13.84
-8.47
-3.08
1.63
5.24
7.64
8.95
9.41
9.32
8.94
8.50
8.12
7.82
7.59
7.39
7.19
7.01
6.86
6.76
6.73
6.75
6.77
6.70
6.44
5.93
5.18
4.26
3.24
2.19
1.08
-0.12
-1.50
-3.09
-4.91
-6.91
-9.04
-11.20
-13.20
-14.83
-15.93
-16.42
-16.50
-16.63
-17.31
-18.91
-21.46
-24.42
-26.95
-28.08
-27.16
-24.03
-19.14
-13.30
-7.43
-2.32
1.58
4.13
5.47
5.96
5.98
5.93
6.07
6.50
7.15
7.83
8.39
8.79
9.15
9.65
10.46
11.62
13.02
14.45
15.69
16.58
17.00
16.93
16.36
15.36
14.05
12.60
11.17
9.83
8.49
6.96
5.11
2.93
0.63
-1.45
-3.02
-3.93
-4.37
-4.69
-5.33
-6.67
-8.85
-11.72
-14.83
-17.48
-18.90
-18.45
-15.83
-11.26
-5.46
0.61
6.01
10.19
13.02
14.77
15.89
16.81
17.78
18.83
19.90
20.85
21.54
21.81
21.65
21.03
20.06
18.86
17.58
16.33
15.20
14.19
13.33
12.62
12.02
11.44
10.72
9.69
8.31
6.71
5.12
3.83
3.00
2.54
2.19
1.55
0.35
-1.49
-3.78
-6.13
-8.13
-9.53
-10.33
-10.79
-11.44
-12.85
-15.43
-19.17
-23.54
-27.50
-29.81
-29.49
-26.12
-20.17
-12.77
-5.36
0.79
4.97
7.09
7.58
7.07
6.22
5.58
5.48
6.13
7.54
9.49
11.71
13.88
15.75
17.24
18.30
18.97
19.26
19.18
18.75
18.04
17.12
16.03
14.78
13.33
11.63
9.75
7.83
6.02
4.49
3.28
2.39
1.66
0.93
0.01
-1.26
-2.95
-5.03
-7.38
-9.84
-12.25
-14.46
-16.41
-18.08
-19.51
-20.82
-22.22
-23.98
-26.44
-29.78
-33.87
-38.17
-41.84
-43.93
-43.71
-40.98
-36.13
-30.10
-23.95
-18.67
-14.78
-12.26
-10.71
-9.50
-8.14
-6.32
-4.09
-1.64
0.80
3.05
5.12
7.00
8.73
10.27
11.57
12.63
13.48
14.24
14.99
15.73
16.35
16.72
16.72
16.37
15.81
15.22
14.77
14.52
14.45
14.44
14.40
14.24
13.89
13.26
12.24
10.72
8.68
6.19
3.39
0.48
-2.33
-4.90
-7.19
-9.24
-11.16
-13.14
-15.40
-18.13
-21.37
-24.96
-28.46
-31.23
-32.59
-31.98
-29.22
-24.57
-18.67
-12.41
-6.63
-1.90
1.59
3.95
5.53
6.77
8.01
9.47
11.15
12.96
14.70
16.21
17.35
18.09
18.48
18.59
18.55
18.39
18.20
18.01
17.87
17.76
17.67
17.49
17.08
16.30
15.03
13.26
11.11
8.81
6.66
4.96
3.84
3.22
2.88
2.49
1.77
0.64
-0.84
-2.46
-4.04
-5.44
-6.68
-7.89
-9.30
-11.14
-13.64
-16.88
-20.66
-24.46
-27.54
-29.06
-28.41
-25.42
-20.48
-14.36
-8.06
-2.44
1.95
4.95
6.75
7.78
8.51
9.31
10.33
11.55
12.81
13.95
14.90
15.63
16.24
16.77
17.25
17.63
17.86
17.92
17.80
17.51
17.11
16.61
16.00
15.26
14.38
13.39
12.36
11.38
10.56
9.94
9.43
8.90
8.25
7.47
6.69
6.03
5.58
5.28
4.93
4.24
3.04
1.30
-0.83
-3.13
-5.40
-7.54
-9.62
-11.83
-14.36
-17.34
-20.74
-24.30
-27.53
-29.75
-30.29
-28.65
-24.76
-19.03
-12.28
-5.51
0.35
4.78
7.74
9.53
10.65
11.57
12.57
13.73
15.00
16.26
17.44
18.53
19.53
20.37
20.92
21.03
20.59
19.70
18.61
17.59
16.85
16.37
15.89
15.10
13.78
11.99
9.95
8.05
6.59
5.72
5.41
5.53
5.86
6.23
6.58
6.97
7.57
8.55
10.05
11.95
13.97
15.69
16.69
16.75
15.89
14.36
12.50
10.61
8.79
7.00
5.07
2.82
0.15
-2.95
-6.31
-9.60
-12.31
-13.89
-13.82
-11.89
-8.28
-3.63
1.15
5.15
7.74
8.82
8.66
7.83
6.81
5.94
5.40
5.21
5.40
6.00
7.00
8.30
9.67
10.86
11.68
12.12
12.33
12.52
12.84
13.28
13.69
13.82
13.43
12.38
10.62
8.27
5.55
2.79
0.37
-1.43
-2.56
-3.22
-3.85
-4.83
-6.37
-8.30
-10.21
-11.64
-12.30
-12.24
-11.74
-11.23
-11.04
-11.38
-12.29
-13.69
-15.44
-17.35
-19.22
-20.88
-22.30
-23.56
-24.91
-26.63
-28.78
-31.12
-33.03
-33.69
-32.39
-28.86
-23.41
-16.88
-10.35
-4.74
-0.54
2.25
3.98
5.14
6.10
7.02
7.95
8.82
9.58
10.21
10.74
11.20
11.67
12.20
12.83
13.54
14.27
14.93
15.37
15.47
15.14
14.31
13.01
11.28
9.29
7.19
5.15
3.23
1.42
-0.28
-1.91
-3.37
-4.63
-5.70
-6.68
-7.74
-9.07
-10.74
-12.66
-14.68
-16.58
-18.15
-19.26
-19.82
-19.87
-19.56
-19.25
-19.44
-20.60
-22.92
-26.17
-29.63
-32.25
-33.02
-31.29
-27.09
-21.06
-14.29
-7.92
-2.78
0.71
2.65
3.42
3.55
3.55
3.79
4.42
5.48
6.86
8.35
9.79
11.01
11.88
12.35
12.41
12.15
11.72
11.31
11.06
11.03
11.17
11.28
11.20
10.83
10.22
9.53
8.99
8.69
8.59
8.50
8.15
7.34
6.02
4.34
2.57
0.96
-0.35
-1.37
-2.29
-3.34
-4.67
-6.33
-8.22
-10.19
-12.07
-13.70
-14.98
-15.93
-16.67
-17.44
-18.58
-20.37
-22.88
-25.87
-28.81
-30.93
-31.50
-30.00
-26.38
-21.11
-15.01
-9.12
-4.24
-0.81
1.24
2.34
3.09
3.96
5.14
6.61
8.14
9.51
10.59
11.34
11.87
12.36
13.02
13.95
15.14
16.43
17.56
18.33
18.63
18.46
17.88
16.93
15.63
14.03
12.24
10.45
8.85
7.50
6.33
5.14
3.75
2.16
0.51
-0.98
-2.14
-2.94
-3.50
-3.99
-4.54
-5.19
-5.92
-6.77
-7.79
-9.05
-10.62
-12.48
-14.51
-16.58
-18.67
-20.94
-23.67
-27.10
-31.20
-35.49
-39.11
-41.05
-40.61
-37.62
-32.58
-26.39
-20.15
-14.73
-10.60
-7.83
-6.15
-5.12
-4.26
-3.19
-1.70
0.21
2.34
4.41
6.13
7.35
8.03
8.30
8.35
8.40
8.65
9.24
10.22
11.48
12.85
14.13
15.12
15.72
15.95
15.90
15.68
15.38
15.08
14.82
14.57
14.27
13.84
13.20
12.36
11.38
10.38
9.49
8.71
7.94
7.00
5.72
4.01
1.94
-0.28
-2.43
-4.31
-5.89
-7.28
-8.73
-10.52
-12.90
-15.94
-19.44
-22.91
-25.63
-26.81
-25.80
-22.42
-17.06
-10.64
-4.29
1.01
4.75
6.98
8.15
8.83
9.41
10.08
10.80
11.45
11.97
12.35
12.63
12.85
13.03
13.18
13.38
13.77
14.49
15.63
17.16
18.92
20.60
21.94
22.69
22.80
22.37
21.54
20.46
19.16
17.59
15.67
13.41
10.91
8.30
5.69
3.07
0.34
-2.60
-5.74
-8.92
-11.87
-14.34
-16.18
-17.44
-18.34
-19.15
-20.17
-21.62
-23.65
-26.15
-28.80
-31.05
-32.18
-31.59
-29.00
-24.63
-19.11
-13.36
-8.24
-4.29
-1.68
-0.24
0.48
1.01
1.82
3.21
5.20
7.57
9.93
11.95
13.47
14.53
15.38
16.18
16.99
17.74
18.33
18.73
18.96
19.05
18.97
18.64
17.90
16.79
15.41
14.02
12.87
12.05
11.53
11.14
10.69
10.06
9.23
8.29
7.33
6.42
5.51
4.45
3.04
1.11
-1.37
-4.31
-7.48
-10.66
-13.70
-16.59
-19.47
-22.56
-26.02
-29.88
-33.89
-37.50
-39.98
-40.57
-38.84
-34.81
-29.02
-22.38
-15.93
-10.54
-6.63
-4.19
-2.84
-1.98
-1.08
0.25
2.16
4.57
7.20
9.78
12.05
13.88
15.23
16.11
16.53
16.53
16.18
15.60
14.99
14.47
14.14
13.92
13.68
13.27
12.60
11.72
10.78
9.95
9.29
8.75
8.16
7.27
5.88
3.92
1.42
-1.42
-4.35
-7.15
-9.77
-12.28
-14.89
-17.77
-20.95
-24.29
-27.54
-30.45
-32.88
-34.89
-36.68
-38.56
-40.80
-43.64
-47.16
-51.22
-55.37
-58.86
-60.71
-60.07
-56.54
-50.29
-42.12
-33.21
-24.72
-17.44
-11.66
-7.20
-3.56
-0.28
2.99
6.37
9.83
13.29
16.62
19.74
22.52
24.83
26.56
27.66
28.23
28.48
28.66
29.00
29.55
30.19
30.74
30.97
30.75
30.01
28.83
27.38
25.87
24.56
23.60
22.96
22.43
21.65
20.32
18.30
15.71
12.90
10.32
8.25
6.83
5.89
5.17
4.30
2.99
1.12
-1.27
-3.97
-6.65
-9.07
-11.13
-12.95
-14.82
-17.16
-20.26
-24.25
-28.95
-33.88
-38.29
-41.32
-42.18
-40.48
-36.33
-30.43
-23.76
-17.40
-12.08
-8.11
-5.33
-3.35
-1.67
0.07
2.10
4.48
7.14
9.99
12.81
15.34
17.36
18.70
19.40
19.55
19.40
19.15
18.97
18.92
18.97
19.02
18.86
18.35
17.33
15.80
13.87
11.78
9.80
8.14
6.97
6.27
5.95
5.84
5.79
5.69
5.52
5.35
5.25
5.28
5.40
5.52
5.51
5.28
4.79
4.04
3.03
1.64
-0.28
-3.02
-6.78
-11.65
-17.41
-23.53
-29.19
-33.45
-35.56
-35.13
-32.40
-28.04
-23.02
-18.24
-14.24
-11.10
-8.48
-5.92
-2.99
0.54
4.63
9.13
13.80
18.43
22.86
26.97
30.66
33.79
36.26
37.98
39.00
39.43
39.47
39.28
38.92
38.34
37.34
35.75
33.49
30.76
27.95
25.54
23.90
23.07
22.76
22.54
22.03
21.07
19.74
18.25
16.75
15.28
13.71
11.95
9.99
7.92
5.85
3.88
1.99
0.07
-1.98
-4.34
-7.17
-10.69
-15.06
-20.21
-25.79
-31.02
-34.87
-36.40
-35.13
-31.28
-25.71
-19.68
-14.36
-10.47
-8.12
-6.98
-6.42
-5.85
-4.84
-3.14
-0.79
2.04
5.06
7.89
10.25
11.94
12.99
13.57
13.86
14.01
14.06
13.97
13.77
13.45
13.06
12.63
12.16
11.63
11.02
10.37
9.71
9.14
8.66
8.31
8.08
7.93
7.81
7.59
7.10
6.17
4.70
2.69
0.26
-2.43
-5.21
-8.01
-10.76
-13.43
-16.00
-18.45
-20.82
-23.29
-26.10
-29.56
-33.67
-38.10
-42.05
-44.48
-44.50
-41.66
-36.24
-29.15
-21.63
-14.80
-9.35
-5.41
-2.73
-0.90
0.50
1.75
3.06
4.48
6.02
7.58
9.09
10.48
11.75
12.91
13.95
14.81
15.37
15.58
15.54
15.48
15.67
16.35
17.58
19.23
21.01
22.63
23.86
24.62
24.88
24.73
24.26
23.55
22.57
21.30
19.70
17.81
15.73
13.61
11.59
9.70
7.82
5.74
3.20
0.02
-3.94
-8.69
-14.11
-19.87
-25.40
-29.92
-32.63
-32.95
-30.77
-26.57
-21.29
-16.01
-11.63
-8.59
-6.83
-5.92
-5.30
-4.50
-3.32
-1.80
-0.14
1.43
2.82
4.12
5.46
6.91
8.40
9.71
10.65
11.17
11.39
11.49
11.61
11.66
11.45
10.65
9.09
6.84
4.20
1.62
-0.52
-2.06
-3.09
-3.90
-4.80
-5.95
-7.27
-8.48
-9.30
-9.62
-9.61
-9.62
-10.09
-11.36
-13.58
-16.72
-20.55
-24.66
-28.43
-31.08
-31.91
-30.51
-27.01
-22.08
-16.71
-11.88
-8.20
-5.77
-4.26
-3.12
-1.87
-0.25
1.76
3.97
6.16
8.20
10.09
11.95
13.88
15.85
17.67
19.10
19.97
20.29
20.24
20.04
19.83
19.52
18.94
17.87
16.24
14.12
11.77
9.47
7.52
6.12
5.29
4.91
4.69
4.25
3.26
1.60
-0.65
-3.19
-5.65
-7.76
-9.48
-10.95
-12.54
-14.60
-17.42
-21.08
-25.35
-29.61
-32.98
-34.52
-33.53
-29.87
-24.07
-17.15
-10.28
-4.47
-0.18
2.61
4.29
5.38
6.36
7.52
9.01
10.80
12.75
14.69
16.42
17.79
18.77
19.40
19.78
19.99
20.12
20.20
20.24
20.23
20.06
19.64
18.82
17.56
15.97
14.26
12.63
11.20
9.90
8.51
6.87
4.94
2.81
0.68
-1.28
-3.08
-4.85
-6.78
-8.97
-11.38
-13.81
-16.03
-17.88
-19.33
-20.52
-21.64
-22.86
-24.32
-26.10
-28.21
-30.54
-32.77
-34.31
-34.46
-32.63
-28.59
-22.70
-15.79
-8.96
-3.15
1.15
4.03
6.04
7.88
10.13
12.98
16.27
19.63
22.65
25.07
26.83
28.09
29.06
29.88
30.57
31.04
31.20
31.03
30.61
30.07
29.42
28.56
27.28
25.40
22.86
19.87
16.76
13.91
11.50
9.53
7.85
6.32
4.92
3.75
2.95
2.60
2.57
2.63
2.45
1.77
0.54
-1.13
-2.95
-4.65
-6.09
-7.28
-8.37
-9.62
-11.31
-13.64
-16.70
-20.32
-23.99
-27.00
-28.52
-27.93
-25.16
-20.72
-15.53
-10.61
-6.71
-4.03
-2.35
-1.23
-0.24
0.86
2.11
3.49
4.88
6.17
7.24
7.91
8.07
7.68
6.89
5.92
5.06
4.48
4.30
4.52
5.10
5.93
6.86
7.69
8.15
8.08
7.39
6.17
4.66
3.15
1.83
0.78
-0.07
-0.87
-1.76
-2.81
-3.99
-5.22
-6.40
-7.40
-8.18
-8.71
-9.11
-9.54
-10.21
-11.37
-13.19
-15.72
-18.84
-22.25
-25.40
-27.66
-28.40
-27.24
-24.18
-19.66
-14.45
-9.42
-5.23
-2.18
-0.21
1.09
2.20
3.43
4.94
6.64
8.35
9.86
10.99
11.60
11.68
11.28
10.56
9.72
8.98
8.53
8.50
8.93
9.66
10.54
11.31
11.79
11.86
11.53
10.89
10.07
9.15
8.13
6.97
5.60
3.99
2.23
0.45
-1.18
-2.61
-3.78
-4.72
-5.48
-6.13
-6.72
-7.28
-7.84
-8.41
-9.06
-9.88
-11.01
-12.60
-14.76
-17.49
-20.67
-23.99
-26.96
-29.01
-29.59
-28.35
-25.21
-20.45
-14.65
-8.49
-2.59
2.68
7.20
11.08
14.46
17.47
20.15
22.45
24.30
25.57
26.17
26.10
25.43
24.32
22.98
21.63
20.35
19.21
18.12
17.01
15.80
14.41
12.80
10.91
8.72
6.27
3.66
1.13
-1.05
-2.67
-3.64
-4.02
-4.03
-3.94
-3.97
-4.21
-4.53
-4.76
-4.72
-4.40
-3.96
-3.66
-3.74
-4.34
-5.39
-6.66
-7.85
-8.70
-9.07
-9.00
-8.67
-8.38
-8.42
-9.06
-10.39
-12.38
-14.73
-16.95
-18.40
-18.48
-16.79
-13.42
-8.89
-4.04
0.22
3.29
5.02
5.73
5.98
6.26
6.90
7.91
9.12
10.30
11.24
11.88
12.25
12.41
12.45
12.36
12.15
11.85
11.56
11.37
11.36
11.48
11.59
11.46
10.94
9.97
8.66
7.21
5.86
4.72
3.81
2.98
2.03
0.81
-0.75
-2.55
-4.34
-5.86
-6.95
-7.62
-8.03
-8.41
-8.99
-9.84
-10.90
-12.02
-13.01
-13.78
-14.28
-14.62
-14.91
-15.36
-16.20
-17.60
-19.60
-21.99
-24.29
-25.80
-25.90
-24.27
-21.05
-16.79
-12.29
-8.28
-5.25
-3.34
-2.38
-2.09
-2.18
-2.43
-2.77
-3.16
-3.60
-4.01
-4.28
-4.31
-4.10
-3.72
-3.38
-3.28
-3.56
-4.21
-5.01
-5.65
-5.74
-4.99
-3.28
-0.71
2.40
5.63
8.56
10.93
12.68
13.94
14.86
15.63
16.31
16.86
17.15
16.97
16.12
14.53
12.27
9.51
6.55
3.65
0.89
-1.78
-4.48
-7.39
-10.58
-14.04
-17.68
-21.35
-24.74
-27.41
-28.77
-28.30
-25.72
-21.26
-15.62
-9.80
-4.79
-1.23
0.75
1.48
1.53
1.44
1.55
1.92
2.43
2.90
3.21
3.37
3.44
3.52
3.64
3.82
4.07
4.37
4.75
5.19
5.67
6.05
6.23
6.06
5.48
4.50
3.17
1.56
-0.24
-2.09
-3.83
-5.28
-6.33
-6.98
-7.35
-7.57
-7.75
-7.89
-7.85
-7.52
-6.91
-6.18
-5.63
-5.56
-6.21
-7.66
-9.92
-12.87
-16.32
-19.87
-22.97
-24.95
-25.24
-23.63
-20.37
-16.07
-11.53
-7.38
-3.97
-1.35
0.63
2.17
3.36
4.24
4.85
5.22
5.39
5.40
5.31
5.15
5.05
5.12
5.44
6.05
6.83
7.64
8.33
8.87
9.25
9.52
9.61
9.40
8.79
7.76
6.43
5.05
3.84
2.91
2.27
1.78
1.33
0.83
0.21
-0.63
-1.72
-3.16
-4.91
-6.86
-8.80
-10.50
-11.84
-12.84
-13.70
-14.80
-16.51
-19.01
-22.16
-25.45
-28.04
-29.07
-28.00
-24.82
-20.04
-14.54
-9.19
-4.63
-1.11
1.42
3.20
4.47
5.44
6.26
7.02
7.77
8.47
9.04
9.34
9.26
8.85
8.22
7.60
7.19
7.14
7.48
8.20
9.19
10.34
11.47
12.38
12.83
12.65
11.79
10.37
8.64
6.88
5.25
3.78
2.43
1.13
-0.12
-1.26
-2.30
-3.30
-4.42
-5.74
-7.27
-8.83
-10.18
-11.20
-11.94
-12.68
-13.75
-15.43
-17.76
-20.49
-23.12
-25.02
-25.60
-24.47
-21.59
-17.33
-12.39
-7.62
-3.73
-1.13
0.24
0.75
0.95
1.27
1.90
2.72
3.49
4.03
4.34
4.66
5.27
6.41
8.08
10.02
11.84
13.25
14.08
14.39
14.37
14.17
13.83
13.31
12.47
11.21
9.59
7.72
5.81
4.06
2.58
1.37
0.33
-0.64
-1.69
-2.87
-4.16
-5.47
-6.65
-7.66
-8.49
-9.23
-10.06
-11.12
-12.57
-14.51
-16.96
-19.80
-22.70
-25.06
-26.16
-25.37
-22.38
-17.48
-11.41
-5.10
0.65
5.43
9.20
12.20
14.68
16.83
18.66
20.19
21.38
22.24
22.83
23.15
23.18
22.90
22.38
21.70
21.01
20.42
19.97
19.54
19.04
18.32
17.36
16.20
14.94
13.74
12.63
11.58
10.48
9.20
7.67
5.97
4.22
2.61
1.27
0.21
-0.68
-1.60
-2.72
-4.12
-5.78
-7.61
-9.55
-11.53
-13.50
-15.44
-17.32
-19.20
-21.23
-23.64
-26.54
-29.78
-32.81
-34.79
-34.84
-32.45
-27.77
-21.58
-15.06
-9.32
-5.03
-2.21
-0.48
0.75
1.93
3.30
4.87
6.56
8.33
10.15
12.03
13.90
15.66
17.18
18.40
19.30
19.94
20.36
20.57
20.55
20.27
19.78
19.07
18.28
17.46
16.63
15.79
14.91
13.98
13.01
12.02
11.00
9.94
8.87
7.84
6.95
6.25
5.66
5.03
4.14
2.85
1.17
-0.75
-2.75
-4.67
-6.54
-8.50
-10.78
-13.64
-17.22
-21.46
-25.92
-29.95
-32.68
-33.35
-31.59
-27.52
-21.84
-15.56
-9.72
-5.00
-1.71
0.34
1.61
2.61
3.74
5.16
6.88
8.73
10.59
12.40
14.14
15.76
17.25
18.52
19.56
20.45
21.34
22.34
23.51
24.68
25.57
25.85
25.33
23.94
21.82
19.18
16.29
13.43
10.77
8.45
6.52
4.91
3.56
2.37
1.27
0.27
-0.58
-1.31
-1.96
-2.66
-3.56
-4.74
-6.16
-7.69
-9.06
-10.12
-10.83
-11.39
-12.19
-13.68
-16.21
-19.78
-23.99
-28.08
-31.05
-32.05
-30.49
-26.38
-20.27
-13.09
-5.95
0.24
4.96
8.07
9.82
10.61
10.81
10.81
10.82
11.01
11.47
12.20
13.09
13.98
14.73
15.22
15.49
15.66
15.84
16.09
16.38
16.62
16.65
16.34
15.60
14.40
12.81
10.87
8.71
6.47
4.33
2.52
1.26
0.68
0.79
1.45
2.36
3.19
3.62
3.50
2.75
1.47
-0.25
-2.22
-4.31
-6.40
-8.43
-10.45
-12.56
-14.95
-17.76
-21.01
-24.50
-27.77
-30.15
-30.90
-29.50
-25.81
-20.24
-13.64
-7.07
-1.46
2.66
5.25
6.64
7.28
7.57
7.76
7.97
8.31
8.81
9.51
10.37
11.27
12.11
12.88
13.64
14.51
15.55
16.64
17.59
18.21
18.32
17.89
16.93
15.57
13.90
12.05
10.19
8.51
7.13
6.09
5.29
4.50
3.54
2.30
0.85
-0.63
-1.99
-3.22
-4.47
-5.94
-7.80
-10.04
-12.46
-14.80
-16.90
-18.79
-20.73
-23.00
-25.73
-28.80
-31.75
-33.92
-34.60
-33.33
-30.02
-25.00
-18.91
-12.60
-6.87
-2.29
0.95
2.96
4.12
4.91
5.68
6.61
7.65
8.62
9.38
9.85
10.10
10.25
10.44
10.69
11.00
11.32
11.65
11.99
12.38
12.76
13.04
13.12
12.93
12.53
11.98
11.42
10.88
10.34
9.74
9.01
8.18
7.32
6.52
5.86
5.30
4.71
3.85
2.50
0.58
-1.85
-4.52
-7.13
-9.43
-11.37
-13.06
-14.72
-16.58
-18.82
-21.50
-24.57
-27.76
-30.65
-32.55
-32.81
-30.97
-27.06
-21.62
-15.60
-10.03
-5.64
-2.71
-0.97
0.12
1.19
2.62
4.49
6.67
8.89
10.89
12.56
13.88
14.91
15.72
16.35
16.82
17.16
17.40
17.56
17.66
17.65
17.46
16.94
16.00
14.55
12.67
10.60
8.70
7.31
6.64
6.57
6.75
6.69
6.05
4.72
2.91
0.99
-0.71
-2.03
-3.09
-4.11
-5.37
-6.95
-8.76
-10.56
-12.11
-13.31
-14.25
-15.23
-16.58
-18.61
-21.41
-24.86
-28.56
-31.91
-34.15
-34.57
-32.75
-28.73
-23.14
-16.97
-11.28
-6.88
-4.03
-2.47
-1.58
-0.67
0.71
2.72
5.18
7.77
10.15
12.10
13.54
14.52
15.16
15.54
15.74
15.89
16.13
16.59
17.33
18.19
18.88
19.04
18.46
17.09
15.18
13.05
11.03
9.33
7.97
6.89
6.04
5.39
4.93
4.65
4.43
4.10
3.43
2.26
0.56
-1.57
-3.93
-6.31
-8.56
-10.65
-12.59
-14.52
-16.58
-18.91
-21.56
-24.33
-26.74
-28.15
-27.94
-25.80
-21.86
-16.65
-11.00
-5.73
-1.42
1.65
3.52
4.38
4.56
4.35
4.10
4.03
4.28
4.90
5.88
7.13
8.54
10.04
11.56
13.03
14.38
15.58
16.57
17.34
17.85
18.10
18.13
17.88
17.32
16.40
15.09
13.36
11.36
9.28
7.38
5.85
4.72
3.82
2.86
1.52
-0.36
-2.73
-5.38
-7.98
-10.25
-12.07
-13.44
-14.60
-15.91
-17.79
-20.54
-24.23
-28.53
-32.68
-35.71
-36.70
-35.11
-31.02
-25.06
-18.28
-11.79
-6.41
-2.55
-0.18
1.09
1.75
2.33
3.22
4.59
6.45
8.67
11.04
13.37
15.55
17.47
19.14
20.56
21.69
22.54
23.13
23.54
23.85
24.03
23.99
23.53
22.53
21.03
19.24
17.46
15.89
14.55
13.31
12.03
10.59
9.07
7.59
6.24
4.90
3.33
1.27
-1.40
-4.64
-8.19
-11.70
-14.94
-17.75
-20.21
-22.52
-24.99
-27.91
-31.45
-35.58
-39.93
-43.81
-46.34
-46.67
-44.29
-39.28
-32.33
-24.64
-17.46
-11.73
-7.81
-5.41
-3.81
-2.22
-0.12
2.60
5.72
8.88
11.78
14.26
16.33
18.06
19.54
20.80
21.89
22.85
23.75
24.64
25.48
26.20
26.69
26.94
26.96
26.87
26.72
26.47
26.01
25.16
23.85
22.11
20.16
18.28
16.68
15.38
14.21
12.89
11.11
8.74
5.81
2.52
-0.88
-4.19
-7.34
-10.37
-13.39
-16.53
-19.98
-23.92
-28.49
-33.57
-38.71
-43.04
-45.44
-44.99
-41.30
-34.79
-26.63
-18.31
-11.14
-5.87
-2.53
-0.58
0.73
2.03
3.68
5.66
7.80
9.90
11.85
13.63
15.28
16.81
18.17
19.30
20.15
20.81
21.48
22.34
23.44
24.59
25.39
25.41
24.41
22.47
19.98
17.41
15.13
13.27
11.66
10.02
8.08
5.76
3.06
0.15
-2.81
-5.67
-8.30
-10.60
-12.56
-14.22
-15.78
-17.56
-19.85
-22.76
-26.14
-29.42
-31.78
-32.39
-30.71
-26.77
-21.15
-14.88
-9.00
-4.28
-1.03
0.97
2.23
3.31
4.57
6.19
8.16
10.43
12.94
15.69
18.67
21.78
24.92
27.87
30.42
32.35
33.51
33.85
33.41
32.33
30.74
28.73
26.27
23.30
19.73
15.61
11.15
6.67
2.51
-1.13
-4.20
-6.81
-9.19
-11.58
-14.21
-17.30
-21.02
-25.51
-30.68
-36.14
-41.09
-44.53
-45.45
-43.29
-38.16
-30.91
-22.88
-15.41
-9.47
-5.41
-2.96
-1.51
-0.42
0.79
2.30
4.01
5.70
7.11
8.08
8.66
8.99
9.34
9.95
10.91
12.21
13.72
15.29
16.82
18.25
19.54
20.62
21.37
21.76
21.74
21.38
20.68
19.63
18.14
16.13
13.57
10.53
7.15
3.64
0.06
-3.61
-7.57
-12.10
-17.41
-23.52
-30.10
-36.43
-41.51
-44.29
-44.04
-40.61
-34.59
-27.10
-19.53
-13.04
-8.24
-5.17
-3.29
-1.92
-0.44
1.50
3.90
6.60
9.33
11.85
14.01
15.79
17.18
18.27
19.19
20.09
21.06
22.06
22.98
23.58
23.67
23.15
22.08
20.66
19.10
17.58
16.10
14.56
12.83
10.84
8.60
6.15
3.61
1.00
-1.66
-4.39
-7.27
-10.40
-13.99
-18.19
-23.11
-28.51
-33.79
-37.93
-39.79
-38.52
-33.93
-26.68
-18.04
-9.56
-2.48
2.62
5.84
7.84
9.41
11.21
13.56
16.35
19.20
21.58
23.05
23.41
22.85
21.82
20.85
20.33
20.35
20.81
21.50
22.27
23.06
23.77
24.20
24.06
23.13
21.39
19.04
16.49
14.03
11.74
9.48
7.00
4.14
0.96
-2.24
-5.16
-7.54
-9.31
-10.62
-11.76
-13.12
-15.07
-17.90
-21.64
-26.04
-30.44
-33.91
-35.45
-34.38
-30.61
-24.69
-17.71
-10.91
-5.26
-1.22
1.29
2.78
3.86
5.00
6.47
8.25
10.25
12.32
14.38
16.50
18.82
21.44
24.46
27.89
31.66
35.67
39.74
43.63
47.06
49.71
51.27
51.58
50.62
48.55
45.71
42.50
39.25
36.14
33.14
30.05
26.62
22.67
18.11
13.03
7.60
2.03
-3.56
-9.17
-14.88
-20.75
-26.70
-32.33
-36.88
-39.44
-39.20
-35.91
-29.97
-22.46
-14.64
-7.63
-1.98
2.35
5.77
8.78
11.67
14.45
16.92
18.86
20.17
20.92
21.26
21.35
21.35
21.27
21.14
20.92
20.63
20.31
20.04
19.89
19.92
20.05
20.08
19.76
18.83
17.17
14.86
12.19
9.50
7.02
4.82
2.77
0.68
-1.61
-4.11
-6.71
-9.30
-11.73
-13.96
-15.98
-17.84
-19.62
-21.48
-23.61
-26.21
-29.33
-32.83
-36.28
-39.00
-40.21
-39.30
-36.03
-30.66
-23.94
-16.96
-10.77
-6.10
-3.13
-1.55
-0.72
0.06
1.20
2.79
4.59
6.30
7.70
8.75
9.58
10.37
11.18
11.95
12.55
12.86
12.91
12.83
12.75
12.75
12.74
12.58
12.04
11.06
9.67
8.08
6.50
5.09
3.90
2.87
1.89
0.85
-0.34
-1.69
-3.21
-4.80
-6.36
-7.76
-8.91
-9.79
-10.46
-11.09
-11.91
-13.13
-14.91
-17.30
-20.11
-23.00
-25.42
-26.80
-26.65
-24.74
-21.23
-16.60
-11.55
-6.81
-2.88
0.04
2.08
3.57
4.91
6.35
7.97
9.62
11.11
12.24
12.93
13.21
13.16
12.88
12.43
11.85
11.19
10.57
10.14
10.03
10.28
10.74
11.20
11.42
11.31
10.85
10.13
9.26
8.32
7.41
6.62
6.05
5.72
5.55
5.33
4.75
3.59
1.84
-0.30
-2.49
-4.44
-6.04
-7.40
-8.74
-10.29
-12.19
-14.49
-17.15
-20.10
-23.12
-25.84
-27.66
-27.95
-26.24
-22.48
-17.14
-11.06
-5.17
-0.21
3.48
5.94
7.52
8.68
9.80
11.16
12.85
14.78
16.72
18.41
19.63
20.27
20.36
20.05
19.53
18.92
18.34
17.86
17.49
17.22
16.93
16.36
15.24
13.38
10.81
7.82
4.94
2.61
1.08
0.18
-0.49
-1.45
-3.00
-5.12
-7.53
-9.80
-11.67
-13.12
-14.40
-15.81
-17.62
-19.93
-22.70
-25.72
-28.69
-31.20
-32.78
-32.96
-31.35
-27.89
-22.91
-17.09
-11.32
-6.40
-2.88
-0.85
-0.09
-0.13
-0.44
-0.66
-0.59
-0.22
0.34
0.94
1.49
1.99
2.45
2.85
3.16
3.36
3.46
3.53
3.68
3.96
4.35
4.75
5.02
5.10
5.02
4.84
4.63
4.33
3.87
3.12
2.01
0.56
-1.17
-3.08
-5.06
-7.03
-8.91
-10.69
-12.43
-14.28
-16.43
-18.99
-21.88
-24.72
-26.89
-27.70
-26.67
-23.73
-19.26
-13.98
-8.76
-4.27
-0.89
1.37
2.77
3.64
4.33
5.01
5.75
6.48
7.10
7.44
7.42
6.99
6.25
5.31
4.39
3.68
3.29
3.27
3.56
4.05
4.51
4.70
4.42
3.58
2.28
0.74
-0.75
-2.00
-2.94
-3.73
-4.59
-5.76
-7.30
-9.08
-10.88
-12.51
-13.87
-15.01
-16.08
-17.27
-18.74
-20.62
-22.81
-25.06
-26.86
-27.56
-26.58
-23.69
-19.09
-13.45
-7.71
-2.67
1.13
3.59
4.97
5.69
6.12
6.59
7.19
7.89
8.56
9.04
9.23
9.12
8.87
8.70
8.84
9.38
10.30
11.47
12.68
13.83
14.86
15.71
16.31
16.48
16.07
15.01
13.42
11.64
9.97
8.63
7.54
6.39
4.78
2.41
-0.67
-4.12
-7.41
-10.13
-12.08
-13.37
-14.32
-15.31
-16.66
-18.52
-20.85
-23.35
-25.55
-26.84
-26.62
-24.58
-20.83
-15.96
-10.90
-6.54
-3.43
-1.66
-0.87
-0.49
-0.11
0.50
1.23
1.95
2.49
2.88
3.24
3.70
4.32
5.04
5.73
6.29
6.60
6.70
6.61
6.39
6.01
5.44
4.60
3.44
2.00
0.41
-1.09
-2.32
-3.11
-3.43
-3.38
-3.17
-3.06
-3.26
-3.83
-4.66
-5.55
-6.26
-6.63
-6.71
-6.66
-6.85
-7.67
-9.40
-12.12
-15.54
-19.09
-21.96
-23.41
-22.98
-20.66
-16.93
-12.59
-8.47
-5.13
-2.70
-0.97
0.51
2.14
4.08
6.18
8.12
9.62
10.53
10.96
11.18
11.44
11.87
12.39
12.82
12.99
12.82
12.41
11.86
11.27
10.58
9.65
8.35
6.58
4.45
2.16
-0.03
-1.94
-3.47
-4.64
-5.52
-6.24
-6.91
-7.59
-8.27
-8.88
-9.37
-9.68
-9.95
-10.39
-11.29
-12.88
-15.10
-17.63
-19.79
-20.91
-20.47
-18.36
-14.89
-10.74
-6.58
-2.99
-0.19
1.86
3.36
4.56
5.61
6.58
7.45
8.16
8.64
8.88
8.96
9.08
9.40
10.00
10.84
11.70
12.30
12.49
12.30
11.90
11.47
11.04
10.49
9.65
8.42
6.92
5.45
4.31
3.64
3.38
3.29
3.09
2.61
1.79
0.63
-0.82
-2.53
-4.42
-6.35
-8.18
-9.86
-11.40
-12.97
-14.79
-16.99
-19.59
-22.41
-25.15
-27.42
-28.80
-28.90
-27.46
-24.44
-20.15
-15.22
-10.43
-6.46
-3.64
-1.85
-0.64
0.54
2.06
4.01
6.13
8.03
9.37
10.02
10.11
9.88
9.62
9.50
9.56
9.71
9.88
10.09
10.41
10.97
11.83
12.85
13.74
14.19
14.04
13.33
12.32
11.36
10.62
10.03
9.31
8.16
6.48
4.52
2.75
1.63
1.30
1.52
1.75
1.47
0.40
-1.39
-3.55
-5.66
-7.47
-8.95
-10.31
-11.83
-13.79
-16.34
-19.46
-22.90
-26.19
-28.73
-29.94
-29.39
-27.05
-23.25
-18.64
-13.96
-9.83
-6.55
-4.16
-2.44
-1.10
0.14
1.51
3.13
5.00
6.98
8.83
10.29
11.26
11.83
12.20
12.64
13.25
13.96
14.57
14.92
14.94
14.72
14.38
13.97
13.47
12.79
11.92
10.94
10.04
9.39
9.02
8.78
8.43
7.74
6.62
5.17
3.64
2.25
1.13
0.27
-0.43
-1.12
-1.82
-2.54
-3.26
-4.01
-4.90
-6.06
-7.65
-9.72
-12.31
-15.32
-18.55
-21.69
-24.31
-25.92
-26.10
-24.73
-21.97
-18.37
-14.64
-11.42
-9.05
-7.50
-6.40
-5.24
-3.67
-1.58
0.80
3.07
4.83
5.83
6.13
5.97
5.72
5.67
5.94
6.43
6.96
7.36
7.62
7.80
8.05
8.45
8.98
9.46
9.73
9.70
9.44
9.12
8.95
8.98
9.06
8.90
8.17
6.71
4.55
1.95
-0.70
-3.03
-4.82
-6.07
-6.96
-7.75
-8.76
-10.29
-12.56
-15.63
-19.32
-23.17
-26.50
-28.56
-28.80
-27.12
-23.82
-19.61
-15.24
-11.33
-8.16
-5.71
-3.75
-1.99
-0.18
1.85
4.07
6.43
8.74
10.82
12.56
13.89
14.84
15.47
15.92
16.23
16.50
16.68
16.70
16.48
15.92
14.98
13.69
12.16
10.58
9.16
8.07
7.44
7.26
7.45
7.83
8.16
8.24
7.91
7.09
5.83
4.25
2.54
0.92
-0.48
-1.60
-2.53
-3.50
-4.77
-6.66
-9.38
-12.97
-17.28
-21.85
-26.00
-28.98
-30.13
-29.17
-26.34
-22.34
-18.09
-14.44
-11.81
-10.20
-9.16
-8.13
-6.58
-4.27
-1.24
2.23
5.69
8.78
11.24
13.03
14.25
15.13
15.88
16.65
17.54
18.53
19.61
20.69
21.60
22.14
22.10
21.33
19.89
17.99
15.94
14.05
12.44
11.12
9.96
8.80
7.59
6.33
5.13
4.09
3.31
2.73
2.22
1.52
0.36
-1.46
-3.94
-6.87
-10.01
-13.09
-15.93
-18.54
-21.04
-23.65
-26.48
-29.58
-32.73
-35.49
-37.26
-37.50
-35.90
-32.56
-28.02
-23.06
-18.48
-14.79
-12.14
-10.32
-8.88
-7.40
-5.55
-3.22
-0.41
2.66
5.74
8.62
11.17
13.29
15.01
16.42
17.63
18.75
19.84
20.89
21.82
22.53
23.00
23.21
23.15
22.79
22.10
21.00
19.54
17.85
16.08
14.40
12.87
11.44
10.04
8.71
7.51
6.52
5.69
4.79
3.55
1.79
-0.41
-2.79
-4.98
-6.78
-8.23
-9.61
-11.32
-13.67
-16.81
-20.72
-25.20
-29.89
-34.27
-37.66
-39.43
-39.12
-36.69
-32.56
-27.56
-22.58
-18.33
-15.12
-12.84
-11.13
-9.61
-7.96
-6.04
-3.80
-1.29
1.42
4.24
7.09
9.93
12.72
15.48
18.17
20.68
22.88
24.57
25.66
26.16
26.18
25.81
25.09
23.99
22.52
20.66
18.57
16.42
14.39
12.62
11.11
9.81
8.61
7.40
6.12
4.73
3.19
1.53
-0.21
-1.96
-3.64
-5.29
-7.07
-9.24
-12.10
-15.84
-20.36
-25.23
-29.69
-32.86
-34.02
-32.83
-29.50
-24.72
-19.50
-14.72
-10.96
-8.33
-6.46
-4.80
-2.82
-0.24
2.86
6.06
8.91
11.01
12.27
12.90
13.25
13.74
14.63
15.96
17.56
19.18
20.58
21.56
22.04
21.95
21.33
20.22
18.72
16.95
15.03
13.11
11.26
9.61
8.20
7.08
6.21
5.51
4.89
4.23
3.45
2.47
1.31
-0.02
-1.50
-3.11
-4.90
-6.94
-9.32
-12.17
-15.49
-19.22
-23.15
-26.97
-30.26
-32.58
-33.50
-32.81
-30.48
-26.89
-22.67
-18.57
-15.20
-12.80
-11.19
-9.86
-8.24
-5.89
-2.68
1.19
5.35
9.35
12.83
15.57
17.51
18.74
19.44
19.85
20.18
20.58
21.11
21.72
22.24
22.47
22.22
21.45
20.26
18.93
17.73
16.85
16.31
15.97
15.67
15.27
14.75
14.12
13.33
12.31
10.90
9.05
6.75
4.20
1.58
-0.90
-3.18
-5.33
-7.49
-9.88
-12.73
-16.18
-20.32
-25.09
-30.19
-35.09
-39.05
-41.30
-41.36
-39.17
-35.19
-30.23
-25.14
-20.55
-16.62
-13.15
-9.75
-6.07
-2.03
2.25
6.48
10.33
13.59
16.23
18.26
19.84
21.08
22.08
22.88
23.47
23.87
24.16
24.43
24.74
25.09
25.32
25.22
24.57
23.27
21.44
19.36
17.42
15.88
14.84
14.12
13.39
12.25
10.41
7.84
4.68
1.26
-2.05
-4.93
-7.25
-9.06
-10.55
-12.01
-13.76
-16.03
-19.01
-22.66
-26.71
-30.60
-33.52
-34.68
-33.57
-30.24
-25.31
-19.81
-14.77
-10.86
-8.22
-6.47
-4.98
-3.16
-0.66
2.54
6.20
9.94
13.42
16.35
18.66
20.42
21.81
23.03
24.22
25.40
26.50
27.43
28.06
28.32
28.21
27.81
27.18
26.34
25.32
24.12
22.78
21.41
20.19
19.20
18.52
18.05
17.62
17.00
15.94
14.25
11.86
8.87
5.57
2.33
-0.41
-2.40
-3.66
-4.52
-5.49
-7.14
-9.87
-13.80
-18.77
-24.24
-29.42
-33.41
-35.44
-35.08
-32.41
-28.03
-22.84
-17.72
-13.28
-9.68
-6.68
-3.88
-0.95
2.23
5.53
8.71
11.50
13.81
15.62
17.03
18.20
19.22
20.18
21.08
21.92
22.61
23.05
23.06
22.55
21.50
20.05
18.37
16.65
15.01
13.41
11.83
10.23
8.62
7.14
5.88
4.93
4.25
3.72
3.14
2.32
1.15
-0.32
-1.95
-3.57
-5.06
-6.46
-7.92
-9.68
-11.94
-14.82
-18.33
-22.31
-26.44
-30.16
-32.83
-33.83
-32.78
-29.73
-25.21
-20.05
-15.12
-11.03
-7.96
-5.65
-3.61
-1.39
1.24
4.14
6.98
9.43
11.27
12.55
13.52
14.47
15.60
16.94
18.32
19.55
20.49
21.10
21.46
21.67
21.73
21.56
20.99
19.87
18.17
16.01
13.67
11.47
9.64
8.22
7.04
5.80
4.25
2.28
-0.08
-2.60
-5.11
-7.46
-9.59
-11.51
-13.25
-14.92
-16.65
-18.69
-21.25
-24.39
-27.86
-31.01
-32.98
-33.03
-30.82
-26.59
-21.16
-15.55
-10.72
-7.18
-4.95
-3.57
-2.37
-0.78
1.50
4.39
7.55
10.58
13.22
15.42
17.27
18.93
20.50
21.99
23.36
24.59
25.66
26.54
27.14
27.32
26.96
26.05
24.67
23.01
21.23
19.46
17.70
15.95
14.15
12.33
10.54
8.76
6.98
5.09
3.02
0.72
-1.75
-4.27
-6.69
-8.88
-10.80
-12.52
-14.13
-15.81
-17.73
-20.08
-23.03
-26.64
-30.69
-34.68
-37.81
-39.27
-38.52
-35.53
-30.82
-25.28
-19.86
-15.26
-11.74
-9.11
-6.95
-4.73
-2.10
1.07
4.66
8.39
11.87
14.83
17.14
18.94
20.47
22.00
23.68
25.47
27.17
28.58
29.55
30.06
30.16
29.96
29.52
28.90
28.12
27.24
26.25
25.14
23.81
22.19
20.24
17.97
15.50
12.96
10.47
8.07
5.73
3.34
0.80
-1.95
-4.89
-7.92
-10.90
-13.70
-16.23
-18.56
-20.83
-23.30
-26.20
-29.61
-33.31
-36.74
-39.11
-39.63
-37.82
-33.78
-28.15
-21.95
-16.22
-11.60
-8.25
-5.85
-3.84
-1.72
0.79
3.65
6.65
9.48
11.91
13.82
15.23
16.25
17.04
17.72
18.31
18.69
18.74
18.38
17.67
16.82
16.03
15.40
14.84
14.05
12.75
10.80
8.35
5.73
3.36
1.53
0.24
-0.68
-1.53
-2.53
-3.84
-5.45
-7.30
-9.28
-11.24
-13.08
-14.71
-16.13
-17.43
-18.82
-20.55
-22.88
-25.94
-29.54
-33.21
-36.18
-37.58
-36.71
-33.33
-27.79
-20.93
-13.85
-7.51
-2.51
1.10
3.64
5.65
7.54
9.47
11.35
12.99
14.26
15.22
16.11
17.11
18.31
19.60
20.77
21.64
22.22
22.63
23.02
23.42
23.59
23.19
21.87
19.51
16.29
12.60
8.93
5.63
2.87
0.50
-1.77
-4.22
-7.02
-10.12
-13.33
-16.39
-19.12
-21.47
-23.49
-25.34
-27.27
-29.61
-32.60
-36.41
-40.81
-45.20
-48.66
-50.22
-49.26
-45.78
-40.44
-34.24
-28.18
-22.89
-18.49
-14.70
-11.07
-7.21
-2.93
1.76
6.65
11.40
15.73
19.48
22.65
25.41
27.98
30.53
33.09
35.45
37.32
38.40
38.54
37.79
36.33
34.33
31.89
29.11
26.02
22.79
19.69
17.02
14.95
13.45
12.26
10.95
9.14
6.63
3.48
-0.02
-3.54
-6.73
-9.47
-11.79
-13.95
-16.33
-19.28
-23.08
-27.83
-33.36
-39.21
-44.58
-48.49
-50.00
-48.52
-44.06
-37.33
-29.56
-22.08
-15.94
-11.53
-8.65
-6.67
-4.86
-2.68
0.05
3.21
6.53
9.68
12.46
14.79
16.66
18.13
19.27
20.13
20.76
21.26
21.70
22.17
22.68
23.13
23.33
23.03
22.05
20.38
18.19
15.83
13.64
11.83
10.47
9.45
8.59
7.65
6.44
4.80
2.65
0.03
-2.92
-5.93
-8.77
-11.24
-13.31
-15.12
-16.94
-19.11
-21.97
-25.74
-30.38
-35.46
-40.20
-43.58
-44.67
-42.99
-38.68
-32.47
-25.45
-18.69
-12.95
-8.48
-5.10
-2.30
0.44
3.43
6.70
10.02
13.04
15.54
17.46
18.92
20.11
21.22
22.25
23.10
23.66
23.88
23.79
23.50
23.07
22.49
21.69
20.57
19.09
17.22
15.04
12.72
10.47
8.53
7.06
6.17
5.81
5.81
5.90
5.72
4.97
3.48
1.31
-1.27
-3.89
-6.22
-8.10
-9.66
-11.28
-13.39
-16.36
-20.33
-25.11
-30.18
-34.68
-37.67
-38.33
-36.33
-31.91
-25.88
-19.36
-13.39
-8.65
-5.25
-2.88
-0.99
0.91
3.16
5.77
8.51
11.01
12.99
14.38
15.37
16.29
17.43
18.84
20.33
21.59
22.42
22.80
22.89
22.88
22.80
22.49
21.76
20.41
18.48
16.18
13.81
11.66
9.88
8.55
7.58
6.80
5.95
4.71
2.80
0.10
-3.25
-6.91
-10.49
-13.68
-16.42
-18.89
-21.46
-24.54
-28.43
-33.20
-38.58
-43.90
-48.15
-50.14
-48.90
-44.08
-36.20
-26.61
-17.05
-9.08
-3.59
-0.62
0.47
0.55
0.39
0.41
0.73
1.26
1.93
2.67
3.38
3.90
4.04
3.66
2.81
1.77
1.00
1.03
2.27
4.90
8.71
13.21
17.69
21.40
23.77
24.49
23.62
21.40
18.15
14.14
9.46
4.15
-1.76
-8.04
-14.30
-19.97
-24.43
-27.13
-27.66
-25.87
-21.91
-16.18
-9.37
-2.30
4.29
9.74
13.64
15.79
16.15
14.90
12.51
9.76
7.67
7.33
9.53
14.50
21.78
30.36
38.99
46.59
52.45
56.27
58.01
57.83
55.92
52.54
47.98
42.61
36.82
31.00
25.50
20.63
16.61
13.55
11.34
9.77
8.56
7.42
6.25
5.07
3.96
2.90
1.80
0.52
-1.05
-2.87
-4.82
-6.69
-8.33
-9.66
-10.66
-11.38
-11.93
-12.40
-12.92
-13.65
