1680087916.00
64.000000
-0.00
-0.00
-0.00
-0.00
-0.00
-0.00
-0.00
-0.00
-0.00
-0.00
0.00
0.01
0.01
-0.00
-0.03
-0.05
-0.05
0.00
0.13
0.36
0.66
1.01
1.37
1.72
2.06
2.40
2.79
3.24
3.80
4.42
5.07
5.68
6.24
6.75
7.27
7.88
8.63
9.63
10.79
12.00
13.15
14.19
15.15
16.21
17.57
19.39
21.89
24.88
28.09
31.22
34.10
36.81
39.68
43.14
47.52
53.22
59.88
66.99
73.96
80.45
86.53
92.71
99.72
108.12
118.47
130.28
142.76
155.01
166.45
177.14
187.74
199.63
211.57
225.86
243.13
263.46
285.62
306.67
322.27
327.83
320.03
298.06
264.38
222.83
177.72
132.21
87.76
44.60
2.60
-37.94
-76.14
-110.58
-140.55
-165.75
-186.22
-202.32
-214.09
-221.31
-223.58
-220.84
-213.34
-202.23
-189.01
-175.20
-162.01
-150.10
-139.57
-130.22
-121.86
-113.98
-106.64
-100.12
-94.82
-91.00
-88.60
-87.23
-86.33
-85.31
-83.68
-81.38
-78.59
-75.71
-73.21
-71.45
-70.60
-70.63
-71.32
-72.37
-73.70
-75.23
-77.13
-79.67
-83.10
-87.67
-93.36
-100.22
-107.95
-116.37
-125.20
-134.32
-143.65
-153.48
-164.30
-176.69
-191.18
-207.34
-224.08
-239.07
-249.34
-252.25
-246.04
-231.21
-209.78
-184.86
-159.14
-134.23
-110.71
-88.74
-68.95
-52.12
-38.77
-28.11
-18.56
-8.29
3.09
14.11
22.22
24.93
22.17
15.72
8.93
4.40
3.20
4.69
7.18
9.51
10.87
11.69
12.46
13.84
16.14
19.18
22.87
26.79
31.15
35.64
39.82
42.50
42.10
37.80
29.84
20.67
13.85
13.29
20.87
35.97
54.90
72.62
84.83
88.76
84.79
74.60
61.16
46.86
33.00
20.29
8.46
-2.19
-11.15
-17.28
-19.85
-18.72
-15.13
-10.89
-7.70
-6.76
-7.31
-8.29
-7.94
-5.69
-2.47
-0.22
-1.54
-7.77
-18.70
-32.08
-44.92
-54.18
-58.51
-58.12
-54.58
-50.38
-46.96
-45.07
-43.50
-40.21
-32.92
-20.17
-2.54
17.16
33.77
41.47
35.24
13.68
-20.19
-58.73
-91.55
-108.88
-103.81
-75.08
-26.46
33.64
94.85
147.33
183.62
200.04
196.45
175.96
143.34
104.61
65.70
32.39
9.70
0.72
6.24
23.43
46.60
68.26
81.82
83.74
74.72
59.14
43.01
31.89
28.55
32.95
42.40
53.17
61.68
65.40
63.50
56.65
47.48
39.64
37.21
42.85
56.93
77.26
99.66
119.74
134.32
142.27
144.27
142.09
137.33
131.39
125.85
122.51
123.73
131.76
148.28
172.60
202.82
235.60
267.29
294.90
316.02
329.23
333.56
328.48
313.65
291.53
262.85
227.92
187.58
143.29
97.04
50.91
6.53
-35.06
-73.39
-108.00
-138.07
-162.49
-180.19
-190.54
-193.63
-190.51
-182.86
-172.71
-162.10
-152.47
-144.47
-138.02
-132.93
-128.85
-125.93
-124.53
-125.79
-131.15
-142.00
-158.63
-179.51
-201.29
-219.02
-228.11
-225.42
-210.75
-186.88
-158.40
-130.49
-107.02
-90.31
-80.65
-77.36
-78.98
-83.90
-90.45
-96.72
-101.21
-102.56
-100.70
-96.21
-90.44
-84.52
-78.42
-71.40
-61.88
-49.38
-34.49
-19.71
-7.98
-1.83
-2.31
-8.65
-19.22
-31.61
-44.19
-55.62
-65.32
-72.92
-77.69
-78.79
-74.99
-65.72
-51.09
-32.76
-13.33
4.63
19.71
32.88
46.11
61.68
79.63
97.94
112.70
120.28
118.83
108.77
92.82
73.87
54.88
38.50
28.58
30.26
48.18
83.92
133.00
185.40
226.78
243.48
226.52
175.11
96.42
2.78
-92.31
-178.07
-247.84
-300.49
-336.52
-358.85
-371.26
-376.48
-376.07
-369.87
-360.88
-349.17
-333.70
-312.55
-284.22
-248.22
-204.36
-155.24
-104.45
-55.39
-9.23
34.86
79.49
127.97
182.80
244.55
309.96
372.63
423.99
456.43
465.18
450.24
416.42
372.03
326.64
287.89
259.90
242.38
231.66
222.60
210.73
194.19
173.26
149.30
122.77
93.13
59.92
24.90
-6.64
-27.69
-32.33
-19.99
3.77
28.86
45.32
47.92
37.36
19.14
-0.86
-19.15
-36.10
-53.99
-74.64
-97.08
-117.19
-129.51
-129.05
-113.90
-85.69
-49.22
-11.20
21.65
43.39
50.53
41.96
20.32
-8.76
-37.16
-56.90
-62.96
-55.14
-38.35
-19.44
-4.59
4.24
8.75
12.59
18.34
25.27
30.43
30.21
23.53
12.06
-0.27
-9.84
-15.17
-17.09
-18.20
-20.59
-25.16
-30.74
-35.15
-36.05
-31.92
-23.16
-11.47
-0.18
7.73
10.11
6.93
0.06
-7.32
-11.86
-11.37
-4.76
7.51
24.57
45.05
67.43
89.81
109.76
124.96
133.37
134.66
129.59
120.13
108.37
95.51
81.71
65.75
46.44
23.10
-3.04
-29.41
-52.71
-70.23
-81.27
-86.71
-88.99
-89.84
-90.05
-88.85
-85.30
-79.45
-72.71
-67.70
-66.22
-68.62
-72.96
-76.44
-76.67
-72.96
-66.49
-59.15
-52.97
-48.30
-44.60
-40.42
-34.77
-27.66
-19.89
-12.99
-7.96
-5.52
-5.54
-7.74
-11.34
-15.10
-17.44
-16.32
-10.95
-1.78
8.38
16.00
18.07
13.74
5.09
-4.36
-10.96
-13.25
-11.76
-8.75
-6.06
-4.21
-2.39
0.94
5.99
11.94
16.39
17.37
14.00
7.33
-0.07
-5.60
-7.41
-5.77
-2.10
1.33
2.98
2.64
0.98
-0.49
-1.24
-1.15
-1.27
-2.36
-4.80
-8.10
-11.17
-13.21
-13.66
-13.05
-11.93
-11.17
-11.05
-11.44
-12.19
-12.92
-14.03
-15.62
-18.09
-21.00
-23.46
-24.28
-22.51
-18.16
-11.97
-5.64
-0.39
2.93
4.67
5.84
7.25
9.34
11.08
11.38
8.92
3.90
-2.28
-7.14
-8.17
-4.17
4.41
15.11
25.00
31.34
33.07
30.86
26.31
21.49
17.22
13.76
10.33
6.52
2.35
-1.42
-3.85
-4.48
-3.43
-1.91
-1.00
-1.62
-3.76
-6.56
-8.99
-9.97
-9.52
-7.91
-6.27
-5.28
-5.35
-6.25
-7.36
-8.16
-8.21
-7.80
-7.16
-6.82
-6.96
-7.43
-8.05
-8.23
-7.94
-6.93
-5.61
-4.14
-2.94
-2.00
-1.18
-0.39
0.70
1.80
2.82
3.42
3.53
3.45
3.34
3.60
4.00
4.48
4.45
3.93
2.95
1.92
1.26
0.98
1.10
0.99
0.48
-0.59
-1.95
-3.05
-3.57
-3.18
-2.29
-1.07
-0.20
0.34
0.41
0.26
0.07
-0.26
-0.58
-1.05
-1.31
-1.09
-0.11
1.67
3.75
5.67
6.73
6.97
6.36
5.49
4.48
3.39
2.19
0.71
-0.65
-1.76
-2.22
-2.15
-1.79
-1.38
-1.04
-0.34
0.78
2.64
4.61
6.38
7.33
7.52
7.33
7.12
7.25
7.40
7.42
7.05
6.50
6.21
6.48
7.46
8.47
9.08
8.48
6.83
4.36
1.77
-0.27
-1.53
-1.84
-1.53
-0.75
0.12
0.90
1.31
1.05
0.15
-1.57
-3.55
-5.52
-6.69
-6.76
-5.54
-3.17
-0.28
2.61
4.72
5.83
5.84
5.09
4.03
2.99
2.32
1.80
1.57
1.29
1.23
1.35
1.73
2.25
2.52
2.38
1.65
0.75
-0.00
-0.14
0.37
1.11
1.69
1.39
0.29
-1.60
-3.51
-4.93
-5.39
-4.78
-3.47
-1.86
-0.68
-0.25
-0.90
-2.38
-4.28
-6.11
-7.19
-7.45
-6.72
-5.55
-4.14
-2.92
-2.02
-1.36
-0.93
-0.53
-0.33
-0.15
-0.13
-0.04
0.24
0.62
1.05
0.95
0.23
-1.39
-3.42
-5.34
-6.53
-6.65
-5.87
-4.52
-3.26
-2.27
-1.77
-1.52
-1.35
-1.21
-0.97
-0.90
-0.75
-0.74
-0.61
-0.42
-0.13
0.23
0.50
0.70
0.62
0.40
-0.06
-0.50
-0.74
-0.69
-0.22
0.22
0.54
0.14
-0.84
-2.26
-3.54
-4.11
-3.78
-2.62
-1.33
-0.38
-0.28
-0.88
-1.79
-2.50
-2.51
-2.03
-1.13
-0.55
-0.38
-0.74
-1.18
-1.23
-0.63
0.71
2.36
4.04
5.31
6.09
6.35
6.16
5.67
4.73
3.66
2.26
0.90
-0.43
-1.52
-2.24
-2.60
-2.43
-1.93
-1.10
-0.35
0.12
0.15
-0.09
-0.09
0.37
1.68
3.32
4.95
5.71
5.31
3.77
1.50
-0.75
-2.60
-3.54
-3.64
-2.88
-1.46
0.34
2.29
3.75
4.52
4.07
2.72
0.76
-1.01
-1.94
-1.67
-0.18
1.82
3.77
4.84
4.82
3.86
2.47
1.47
1.15
1.80
2.88
4.12
5.00
5.55
5.90
6.21
6.62
6.66
6.21
4.91
3.11
1.41
0.39
0.53
1.43
2.57
2.88
2.10
0.20
-2.02
-3.68
-4.11
-2.97
-0.79
1.93
4.41
6.37
7.75
8.68
9.39
9.60
9.24
7.82
5.51
2.49
-0.50
-2.89
-4.36
-4.90
-5.18
-5.63
-6.78
-8.51
-10.40
-11.89
-12.45
-12.24
-11.59
-11.49
-12.26
-14.18
-16.72
-19.28
-21.57
-23.61
-26.20
-29.89
-35.05
-41.13
-47.05
-51.79
-55.06
-57.76
-61.48
-68.15
-78.61
-92.58
-108.09
-122.23
-131.81
-134.22
-128.52
-115.36
-97.29
-77.52
-59.24
-44.42
-33.36
-24.94
-16.92
-6.79
8.53
31.83
65.26
108.69
158.49
207.62
246.84
268.16
267.15
244.87
206.70
159.89
110.79
63.34
19.95
-17.25
-45.15
-60.90
-63.48
-55.81
-44.37
-36.91
-39.21
-52.10
-71.68
-90.65
-102.30
-103.04
-93.54
-78.05
-61.79
-49.24
-42.58
-41.67
-44.52
-48.40
-50.79
-49.95
-45.36
-37.26
-26.83
-15.55
-5.15
2.58
6.41
5.86
2.09
-2.56
-4.62
-0.87
10.31
28.84
52.82
79.14
104.26
125.49
141.07
150.61
154.43
153.41
148.87
141.87
133.41
124.16
114.47
104.46
94.15
83.56
72.76
62.08
51.88
42.60
34.56
27.91
22.60
18.37
14.85
11.70
8.77
6.10
3.84
2.22
1.41
1.44
2.18
3.39
4.80
6.26
7.79
9.51
11.54
14.07
17.10
20.52
24.04
27.21
29.69
31.10
31.24
29.97
27.20
22.83
16.72
8.97
-0.81
-12.63
-26.06
-40.26
-54.05
-66.28
-76.00
-82.81
-86.77
-88.46
-88.46
-87.10
-84.43
-80.16
-74.12
-66.50
-58.15
-50.41
-44.87
-42.67
-44.13
-48.60
-54.79
-61.41
-67.48
-72.90
-78.08
-83.83
-90.92
-100.03
-111.85
-126.35
-142.27
-156.03
-162.38
-155.38
-131.28
-90.53
-38.17
17.66
68.85
109.90
139.21
158.24
169.58
175.02
174.70
168.34
156.18
140.08
123.11
108.60
97.60
90.27
85.48
81.21
76.15
69.86
62.94
55.94
48.59
39.76
28.20
13.86
-1.68
-15.01
-22.73
-23.01
-16.66
-7.13
1.10
4.04
-0.01
-10.56
-24.93
-39.71
-51.87
-59.47
-62.40
-61.63
-58.50
-53.73
-47.22
-38.57
-27.77
-16.32
-6.53
-1.20
-2.07
-8.87
-18.91
-28.44
-34.39
-35.70
-33.43
-29.12
-23.52
-16.90
-8.61
1.29
10.91
16.15
12.94
-0.78
-23.08
-49.17
-75.22
-99.69
-123.35
-147.67
-173.15
-198.14
-219.94
-236.59
-243.00
-239.45
-230.12
-220.28
-212.26
-204.85
-194.76
-179.73
-161.93
-141.02
-117.72
-92.58
-65.80
-36.74
-4.14
34.11
79.19
130.87
186.95
240.78
284.07
310.00
316.11
304.62
281.00
251.70
222.01
195.80
174.86
160.27
152.22
149.40
147.21
138.58
117.49
82.36
38.34
-4.43
-33.73
-40.81
-22.60
16.21
64.57
110.21
142.14
153.83
143.98
116.71
79.36
41.24
10.97
-5.45
-3.68
17.33
54.82
102.34
151.24
192.05
218.87
230.25
220.77
192.03
151.26
108.26
70.52
46.13
29.95
14.86
-4.70
-32.45
-70.02
-116.21
-167.32
-217.48
-258.82
-283.88
-287.06
-268.17
-233.21
-190.38
-146.82
-106.14
-67.95
-30.72
4.77
35.19
55.03
59.58
48.34
25.35
-2.42
-27.88
-46.00
-54.96
-55.52
-50.11
-42.40
-35.73
-31.88
-30.75
-30.37
-28.70
-25.13
-21.01
-19.03
-22.17
-32.48
-50.95
-78.03
-113.29
-154.58
-196.69
-231.28
-248.88
-241.99
-208.98
-155.40
-93.15
-37.09
-0.27
10.06
-5.55
-38.61
-75.22
-101.09
-106.41
-89.74
-58.18
-24.02
1.12
11.75
10.25
4.63
3.02
9.07
19.82
27.54
23.75
3.52
-31.72
-74.35
-112.71
-135.04
-133.76
-108.54
-67.72
-25.81
2.15
7.20
-9.61
-37.92
-63.59
-75.68
-70.18
-51.68
-29.05
-10.08
2.48
10.82
18.62
27.34
34.70
38.64
37.73
33.07
28.28
28.50
38.12
58.70
88.13
121.46
157.04
194.00
232.19
271.70
312.80
355.82
400.40
444.94
486.72
527.57
568.80
610.00
648.58
681.09
704.86
718.27
720.38
680.94
584.79
436.46
259.89
84.60
-68.38
-190.45
-282.08
-348.06
-394.32
-421.54
-430.79
-425.18
-410.29
-392.41
-376.13
-363.78
-355.80
-351.64
-346.75
-337.65
-323.55
-306.48
-289.64
-275.36
-264.57
-256.83
-251.17
-244.08
-232.90
-216.85
-197.11
-176.55
-156.51
-137.71
-120.35
-104.40
-88.78
-72.64
-56.14
-40.21
-26.15
-14.74
-6.34
-0.79
2.29
3.69
4.28
4.38
3.94
2.67
0.58
-2.22
-5.44
-8.72
-11.93
-14.63
-16.86
-18.60
-19.91
-20.47
-19.71
-16.77
-10.44
-2.08
7.95
19.08
30.87
42.82
54.66
66.48
78.76
92.64
109.35
130.54
156.35
185.44
214.41
238.97
254.89
259.15
250.95
231.41
203.94
172.79
142.38
116.45
96.98
84.24
76.44
71.24
66.21
60.45
53.97
47.63
42.15
37.70
34.23
31.19
28.34
24.78
19.25
10.27
-3.11
-19.90
-37.44
-51.45
-58.66
-57.34
-48.91
-36.41
-23.57
-13.49
-7.74
-7.24
-11.85
-21.11
-33.56
-46.69
-57.53
-63.26
-62.95
-57.37
-49.37
-41.79
-37.17
-36.38
-38.83
-42.95
-46.56
-48.30
-47.16
-43.77
-39.64
-37.02
-37.92
-42.85
-51.03
-60.33
-68.77
-74.75
-78.03
-78.97
-78.29
-76.86
-74.80
-72.52
-70.14
-67.78
-65.05
-61.18
-55.24
-46.53
-35.15
-21.05
-4.48
14.56
35.93
59.19
83.08
105.61
124.89
136.63
138.47
130.26
114.58
95.65
77.22
61.16
47.48
35.21
23.03
10.61
-1.09
-12.83
-25.47
-39.31
-52.93
-63.42
-67.17
-62.21
-48.87
-30.33
-11.34
3.74
12.72
15.55
14.92
14.61
16.86
21.59
26.60
29.34
28.75
25.57
21.39
17.43
14.70
11.90
7.61
1.02
-7.76
-17.88
-28.41
-38.60
-47.67
-55.02
-60.30
-62.30
-60.19
-53.78
-44.00
-32.49
-21.14
-11.26
-3.52
1.57
3.27
0.21
-8.59
-22.69
-38.92
-51.63
-54.37
-43.20
-19.27
10.99
38.17
53.63
52.18
33.15
-0.40
-42.50
-85.29
-119.68
-136.14
-127.25
-90.43
-31.31
36.92
97.59
137.73
152.84
147.38
131.56
112.43
96.39
86.15
80.14
74.38
67.27
60.56
57.14
58.41
62.67
66.73
67.49
62.13
48.58
26.99
-1.28
-34.19
-69.20
-103.21
-132.35
-153.66
-157.86
-142.94
-114.42
-82.47
-56.43
-40.69
-34.46
-33.90
-35.56
-37.85
-41.73
-47.70
-54.61
-60.05
-61.91
-59.75
-54.80
-49.42
-46.04
-46.64
-51.18
-57.64
-63.08
-65.10
-62.83
-56.84
-48.76
-40.38
-33.24
-27.59
-22.76
-16.58
-7.44
4.97
19.70
34.97
49.03
60.60
69.34
75.99
81.54
86.90
92.67
99.37
107.53
117.05
126.66
133.30
133.10
122.78
101.73
72.49
40.11
9.77
-15.47
-35.04
-50.11
-61.39
-68.16
-68.62
-61.37
-46.70
-27.47
-8.00
8.71
21.96
33.65
46.03
60.08
74.41
85.97
91.84
90.44
82.55
70.45
57.07
44.92
35.18
27.88
21.99
16.93
13.01
11.96
15.18
22.42
30.72
35.55
33.36
23.74
10.30
-1.70
-8.41
-9.91
-10.11
-13.64
-23.12
-36.97
-51.68
-64.07
-74.27
-84.68
-97.74
-113.20
-127.64
-136.78
-137.71
-131.03
-119.80
-108.06
-98.84
-92.99
-90.33
-90.03
-91.65
-94.49
-97.75
-99.97
-99.58
-94.80
-83.44
-63.59
-34.25
3.08
44.22
82.76
112.66
130.85
136.88
134.54
129.78
128.43
132.48
140.09
147.10
150.37
148.66
142.42
133.21
121.81
108.83
94.10
78.40
61.09
41.62
19.92
-4.43
-31.40
-61.23
-92.74
-123.11
-147.70
-161.40
-160.37
-144.16
-116.60
-81.83
-47.91
-22.36
-9.45
-9.05
-17.79
-31.10
-45.32
-58.49
-69.59
-78.03
-82.17
-79.90
-69.70
-51.89
-28.96
-4.92
15.94
30.55
37.34
36.67
29.43
16.93
1.23
-15.52
-31.84
-46.98
-60.68
-73.01
-83.54
-91.36
-95.32
-95.35
-90.93
-82.50
-71.07
-57.99
-44.71
-32.41
-21.19
-10.27
2.00
18.28
39.86
67.84
102.12
140.04
176.16
203.59
216.13
210.66
188.52
154.88
117.96
86.54
67.17
62.19
69.28
82.70
95.67
103.18
103.50
98.75
93.11
89.70
88.97
88.84
86.44
80.38
72.05
64.55
58.16
52.40
45.45
35.79
23.05
8.34
-6.95
-20.67
-33.75
-47.71
-63.07
-78.59
-90.83
-95.48
-88.53
-69.89
-44.23
-19.51
-3.26
0.83
-5.81
-17.65
-28.27
-32.55
-29.82
-24.68
-21.40
-21.51
-24.29
-30.11
-41.16
-60.55
-89.38
-125.18
-161.27
-188.89
-201.41
-197.28
-180.13
-155.91
-129.83
-104.36
-80.51
-59.17
-42.26
-32.38
-30.71
-35.13
-40.11
-39.53
-29.59
-11.21
10.94
31.87
48.90
63.00
76.52
90.49
102.07
105.98
98.06
79.58
58.46
45.68
49.57
69.87
97.45
118.57
122.26
105.88
75.62
42.65
16.69
2.50
-0.89
2.81
10.24
19.70
30.40
41.05
49.24
51.78
46.91
35.57
21.49
9.80
4.34
6.08
12.43
18.91
20.57
14.34
-0.36
-21.24
-43.54
-61.82
-71.49
-70.84
-61.13
-46.36
-31.69
-21.30
-17.29
-18.48
-22.20
-26.42
-31.51
-39.63
-52.91
-71.32
-91.54
-107.64
-112.58
-101.48
-73.94
-34.80
7.88
45.97
73.94
90.57
95.94
92.87
86.57
82.17
81.48
83.30
86.04
89.44
94.64
102.42
111.88
120.50
125.15
123.30
115.02
103.30
91.93
83.52
78.93
74.97
67.95
54.95
33.77
4.97
-27.73
-58.76
-82.43
-94.72
-95.48
-88.17
-79.77
-79.93
-95.66
-128.00
-171.89
-219.03
-255.98
-274.21
-271.35
-243.09
-196.19
-144.09
-99.78
-69.79
-53.43
-46.17
-44.10
-44.51
-45.67
-47.41
-49.23
-50.04
-48.75
-45.06
-38.97
-31.11
-21.23
-8.48
9.27
34.18
67.42
107.68
149.64
184.67
203.28
199.91
177.00
143.85
113.16
95.78
95.97
109.94
128.57
142.14
140.26
120.04
85.54
44.28
3.09
-34.58
-68.26
-98.18
-123.86
-143.94
-156.36
-160.50
-158.04
-152.10
-145.80
-141.08
-137.95
-134.91
-129.82
-121.09
-107.10
-88.35
-66.69
-44.59
-24.22
-6.68
8.08
20.87
33.04
45.49
58.04
70.09
81.16
91.62
103.01
117.21
135.08
155.81
176.83
191.39
194.86
185.88
165.61
136.58
100.97
60.20
16.58
-25.43
-58.88
-76.23
-73.01
-50.48
-15.55
22.35
54.47
75.74
84.40
80.95
67.07
45.39
19.78
-4.40
-21.31
-27.36
-22.42
-10.40
2.97
12.72
16.32
13.97
7.55
-0.20
-7.39
-12.55
-15.49
-16.69
-17.28
-18.59
-21.58
-26.66
-32.93
-39.31
-44.37
-47.09
-47.14
-44.21
-38.84
-31.68
-24.36
-18.47
-15.62
-16.06
-18.89
-22.16
-23.97
-23.61
-21.42
-18.99
-17.53
-17.57
-18.46
-18.78
-17.54
-14.01
-8.85
-2.89
2.56
6.70
8.94
9.35
8.38
6.45
4.33
2.09
-0.14
-2.42
-4.77
-6.73
-7.99
-8.02
-7.14
-5.73
-4.66
-4.28
-4.67
-5.37
-5.83
-5.97
-5.93
-6.55
-8.39
-11.95
-17.21
-23.52
-30.11
-35.53
-38.57
-37.78
-32.52
-22.70
-9.34
5.66
19.90
30.65
36.21
35.60
29.76
20.76
11.66
5.30
3.20
5.50
10.53
16.12
19.95
20.50
17.13
10.24
1.31
-7.57
-13.46
-14.28
-8.75
1.94
15.00
26.71
33.94
35.58
32.37
26.74
20.99
16.70
14.21
12.93
12.25
11.69
11.66
12.35
14.25
16.84
19.42
20.75
19.86
16.54
11.16
5.04
-0.58
-4.59
-6.65
-7.15
-6.75
-6.39
-6.32
-6.77
-7.15
-7.26
-6.71
-5.68
-4.48
-3.42
-2.85
-2.59
-2.57
-2.32
-1.69
-0.65
0.58
1.32
1.26
-0.10
-2.33
-5.03
-7.16
-8.08
-7.46
-5.53
-3.19
-1.27
-0.72
-1.62
-3.70
-6.15
-8.05
-9.08
-9.11
-8.91
-8.91
-9.72
-11.06
-12.46
-13.18
-12.70
-11.10
-8.65
-6.16
-3.92
-2.35
-1.37
-0.89
-1.00
-1.62
-3.03
-4.80
-6.64
-7.62
-7.03
-4.37
0.37
6.45
13.03
18.71
22.62
23.86
22.33
18.29
12.49
6.15
0.16
-4.37
-7.16
-8.02
-7.31
-5.52
-3.09
-0.57
1.84
3.61
4.74
4.77
3.89
2.15
-0.05
-2.12
-3.86
-4.87
-5.36
-5.45
-5.43
-5.45
-5.46
-5.45
-5.07
-4.39
-3.11
-1.63
-0.00
1.24
1.76
1.47
0.22
-1.42
-3.19
-4.52
-5.18
-5.07
-4.24
-2.94
-1.38
-0.11
0.70
0.56
-0.33
-1.77
-3.25
-4.19
-4.54
-4.15
-3.46
-2.53
-1.50
-0.24
1.32
3.09
4.93
6.31
7.10
6.84
5.73
3.89
1.70
-0.32
-1.94
-2.72
-2.81
-2.18
-1.25
-0.34
0.24
0.29
-0.14
-1.05
-2.03
-3.04
-3.65
-3.86
-3.56
-2.75
-1.76
-0.60
0.27
0.88
1.10
1.14
1.23
1.43
1.79
1.89
1.63
0.67
-0.65
-2.08
-3.11
-3.43
-3.12
-2.27
-1.43
-0.72
-0.43
-0.49
-0.73
-1.04
-1.09
-0.95
-0.34
0.43
1.42
2.23
2.69
2.67
2.15
1.51
0.89
0.73
0.91
1.40
1.91
2.13
2.00
1.22
-0.01
-1.76
-3.43
-4.62
-4.63
-3.15
-0.41
3.08
6.21
8.35
8.83
7.88
5.92
3.67
1.81
0.58
0.26
0.46
1.06
1.65
2.07
2.26
2.18
2.01
1.61
1.21
0.63
0.16
-0.29
-0.68
-1.09
-1.88
-2.99
-4.63
-6.22
-7.39
-7.56
-6.47
-4.25
-1.21
1.90
4.65
6.37
6.95
6.25
4.52
2.14
-0.59
-3.04
-5.11
-6.30
-6.69
-6.15
-4.93
-3.35
-1.74
-0.60
0.08
0.21
0.30
0.56
1.10
1.74
1.85
1.25
-0.41
-2.50
-4.56
-5.66
-5.47
-3.96
-1.55
0.99
3.12
4.26
4.49
3.93
2.93
1.85
0.75
-0.08
-0.84
-1.26
-1.54
-1.46
-1.24
-0.91
-0.51
-0.24
0.07
0.15
0.09
-0.28
-0.95
-1.72
-2.46
-2.82
-2.90
-2.55
-2.14
-1.49
-0.75
0.29
1.55
2.63
3.31
3.14
2.38
1.38
0.72
0.74
1.34
2.23
2.87
3.27
3.16
2.90
2.36
1.61
0.64
-0.56
-1.47
-1.87
-1.33
-0.03
1.65
3.11
3.76
3.49
2.26
0.63
-1.12
-2.35
-2.93
-2.65
-1.60
-0.15
1.46
2.57
3.05
2.62
1.53
0.05
-1.42
-2.45
-2.93
-2.68
-2.01
-0.99
-0.07
0.53
0.61
0.01
-1.03
-2.48
-3.79
-4.83
-5.23
-5.02
-4.41
-3.66
-3.32
-3.53
-4.45
-5.63
-6.69
-7.15
-6.82
-5.93
-4.54
-3.16
-1.76
-0.66
0.26
0.79
0.92
0.71
0.23
-0.09
-0.18
0.19
0.77
1.30
1.47
1.12
0.58
0.11
0.50
1.87
4.33
7.22
9.68
10.88
10.14
7.71
4.04
0.35
-2.41
-3.44
-2.55
-0.22
2.90
5.70
7.56
7.80
6.55
4.00
0.81
-2.27
-4.78
-6.05
-6.22
-5.26
-3.69
-1.89
-0.27
0.98
1.93
2.60
3.24
3.61
3.83
3.77
3.55
3.40
3.23
3.17
2.67
1.69
0.05
-1.82
-3.32
-3.87
-3.11
-1.44
0.64
2.07
2.54
1.83
0.52
-0.68
-1.34
-1.05
-0.24
0.89
1.82
2.49
2.90
3.18
3.42
3.40
3.18
2.46
1.60
0.73
0.21
0.14
0.20
0.19
-0.41
-1.50
-3.06
-4.53
-5.52
-5.60
-4.61
-2.83
-0.47
1.68
3.36
4.09
3.98
3.34
2.50
1.93
1.57
1.40
1.03
0.42
-0.49
-1.47
-2.28
-2.94
-3.22
-3.43
-3.28
-2.85
-1.89
-0.39
1.31
2.86
3.54
3.16
1.46
-0.99
-3.71
-5.92
-7.13
-7.22
-6.13
-4.43
-2.40
-0.60
0.72
1.50
1.76
1.81
1.69
1.72
1.67
1.70
1.60
1.45
1.26
0.93
0.62
0.07
-0.45
-0.92
-1.05
-0.68
0.02
0.90
1.40
1.43
0.63
-0.60
-2.16
-3.51
-4.27
-4.25
-3.25
-1.69
0.11
1.49
2.11
1.94
1.20
0.52
0.14
0.48
1.10
1.94
2.48
2.72
2.62
2.17
1.53
0.45
-0.86
-2.39
-3.75
-4.67
-5.01
-4.69
-4.04
-3.04
-2.13
-1.12
-0.31
0.38
0.80
0.84
0.71
0.34
0.06
-0.14
-0.19
-0.16
-0.16
0.00
0.30
1.12
2.20
3.71
5.10
6.27
6.87
6.72
5.94
4.39
2.42
0.04
-2.40
-4.65
-6.47
-7.52
-7.81
-7.14
-6.00
-4.51
-3.35
-2.61
-2.42
-2.49
-2.36
-1.95
-1.11
-0.24
0.43
0.74
0.67
0.50
0.30
0.42
0.63
1.14
1.57
1.95
2.00
1.69
1.18
0.56
0.32
0.45
1.04
1.74
2.21
2.36
2.02
1.64
1.16
0.95
0.77
0.79
0.87
1.09
1.50
1.97
2.55
2.93
3.21
3.27
3.14
3.00
2.83
2.95
3.16
3.63
3.88
3.79
2.94
1.40
-0.56
-2.54
-3.86
-4.40
-4.01
-3.13
-2.17
-1.40
-1.14
-1.17
-1.65
-2.21
-2.97
-3.55
-3.89
-3.68
-2.85
-1.53
0.15
1.64
2.82
3.32
3.23
2.74
1.96
1.37
0.84
0.62
0.36
0.04
-0.67
-1.74
-3.08
-4.41
-5.24
-5.34
-4.34
-2.55
-0.37
1.48
2.20
1.66
-0.30
-2.83
-5.46
-7.40
-8.52
-8.78
-8.43
-7.74
-6.75
-5.78
-4.84
-4.34
-4.35
-4.80
-5.46
-5.70
-5.35
-4.01
-2.05
0.48
3.13
5.78
8.29
10.52
12.42
13.69
14.25
13.85
12.50
10.26
7.34
4.35
1.63
-0.09
-0.87
-0.59
0.25
1.32
2.30
2.94
3.27
3.00
2.15
0.54
-1.62
-3.95
-5.85
-6.67
-6.37
-4.92
-3.25
-1.87
-1.49
-2.13
-3.37
-4.65
-5.25
-5.01
-3.94
-2.60
-1.40
-0.75
-0.63
-0.75
-0.95
-0.88
-0.83
-0.75
-0.96
-1.30
-1.52
-1.38
-0.56
0.66
2.16
3.32
3.95
3.84
3.15
2.18
1.13
0.41
-0.10
-0.19
-0.14
0.00
0.25
0.52
1.01
1.37
1.59
1.14
0.06
-1.59
-3.23
-4.26
-4.27
-3.09
-1.19
1.05
2.92
4.14
4.55
4.15
3.36
2.20
1.21
0.35
-0.06
-0.14
0.11
0.59
1.10
1.64
1.99
2.32
2.59
2.99
3.58
4.22
4.82
4.88
4.34
2.94
1.11
-0.82
-2.27
-2.85
-2.49
-1.17
0.56
2.48
4.00
4.93
5.02
4.18
2.62
0.44
-1.73
-3.65
-4.77
-5.15
-4.89
-4.24
-3.57
-2.82
-2.06
-0.99
0.24
1.58
2.64
3.14
2.95
1.96
0.55
-1.19
-2.69
-3.70
-3.94
-3.26
-1.96
-0.08
1.80
3.64
4.96
5.66
5.48
4.42
2.68
0.57
-1.24
-2.55
-3.01
-2.90
-2.48
-1.91
-1.39
-0.64
0.26
1.47
2.57
3.40
3.52
2.93
1.70
0.03
-1.61
-3.06
-3.95
-4.28
-4.05
-3.26
-2.19
-0.72
0.72
2.11
2.86
2.90
1.99
0.51
-1.05
-2.21
-2.50
-2.21
-1.59
-1.32
-1.70
-2.60
-3.77
-4.48
-4.62
-3.94
-2.92
-1.81
-1.19
-1.22
-1.97
-3.31
-4.72
-5.95
-6.37
-5.94
-4.60
-2.59
-0.40
1.82
3.55
4.83
5.27
4.91
3.61
1.65
-0.53
-2.44
-3.42
-3.46
-2.43
-0.90
0.81
2.32
3.32
3.95
3.99
3.68
2.82
1.63
0.09
-1.53
-3.02
-4.19
-4.73
-4.81
-4.21
-3.35
-2.31
-1.28
-0.45
0.39
1.14
2.06
2.92
3.72
4.12
4.09
3.65
2.94
2.32
1.73
1.44
1.09
0.72
0.23
-0.30
-0.55
-0.52
-0.03
0.56
1.07
1.04
0.37
-0.85
-2.36
-3.64
-4.58
-4.77
-4.49
-3.70
-2.62
-1.33
0.22
1.76
3.28
4.33
4.88
4.74
4.07
3.10
1.98
1.08
0.32
0.02
-0.03
0.27
0.65
0.94
1.04
0.78
0.40
-0.11
-0.38
-0.41
-0.20
0.04
-0.04
-0.48
-1.53
-2.76
-4.11
-5.12
-5.75
-5.88
-5.54
-4.85
-3.70
-2.44
-1.05
-0.01
0.48
0.34
-0.33
-1.00
-1.49
-1.43
-1.11
-0.67
-0.60
-0.95
-1.71
-2.79
-3.70
-4.42
-4.52
-4.12
-3.24
-2.13
-1.23
-0.71
-0.95
-1.84
-3.49
-5.60
-8.12
-10.62
-12.68
-13.95
-13.93
-12.90
-10.88
-8.44
-5.75
-2.93
0.06
3.31
6.45
9.15
10.73
11.03
10.07
8.53
7.21
6.64
7.17
8.21
9.26
9.38
8.38
6.63
5.05
4.71
6.03
8.78
11.64
13.35
12.84
10.27
6.64
3.24
1.27
0.59
0.67
0.05
-2.07
-5.77
-10.02
-13.15
-13.86
-11.67
-7.69
-3.47
-1.06
-1.75
-5.69
-11.71
-17.61
-21.14
-20.49
-15.34
-6.43
4.19
14.06
21.48
26.19
29.51
33.17
38.44
44.81
50.70
53.07
48.35
33.56
7.14
-29.74
-72.71
-113.62
-142.19
-148.69
-128.89
-86.91
-34.25
14.46
47.63
60.89
57.99
45.27
31.45
23.40
22.91
26.79
30.63
32.71
34.52
38.52
45.54
54.16
60.91
62.33
57.04
46.60
34.85
25.96
22.62
25.06
31.45
38.43
42.61
42.06
37.17
30.22
24.38
22.01
23.79
28.72
34.28
37.65
36.67
30.45
18.94
3.10
-16.31
-37.45
-57.02
-70.87
-75.32
-68.96
-52.83
-32.69
-15.13
-4.94
-3.26
-7.76
-14.59
-20.53
-24.39
-26.72
-28.77
-30.89
-32.42
-32.25
-29.85
-25.78
-21.42
-18.35
-17.59
-19.12
-21.84
-24.28
-25.27
-24.45
-22.40
-20.22
-19.07
-19.58
-21.72
-24.71
-27.57
-29.54
-30.44
-30.66
-30.89
-31.82
-33.77
-36.77
-40.19
-43.32
-45.63
-46.90
-47.29
-46.96
-46.07
-44.43
-41.58
-36.96
-30.27
-21.46
-10.99
0.17
11.00
20.67
28.88
35.85
42.00
47.73
53.00
57.24
59.55
59.16
55.84
50.23
43.75
38.08
34.51
33.36
33.90
34.61
34.16
31.79
27.99
24.29
22.48
24.33
30.74
41.84
56.43
71.97
84.51
89.49
83.64
66.05
39.92
11.31
-12.41
-25.93
-27.94
-21.32
-11.65
-3.86
-0.75
-1.80
-4.53
-6.40
-6.40
-5.56
-5.60
-7.78
-11.16
-13.29
-10.93
-1.84
14.01
34.12
53.95
68.70
74.45
69.41
53.83
30.24
2.48
-24.08
-43.78
-52.89
-50.14
-37.66
-19.89
-1.64
12.08
18.18
16.61
10.07
1.93
-5.13
-10.11
-13.25
-15.33
-16.88
-17.71
-17.50
-16.06
-14.17
-13.04
-13.61
-16.00
-19.26
-21.93
-22.61
-20.69
-16.59
-11.72
-7.61
-5.32
-5.07
-6.18
-7.63
-8.41
-7.98
-6.47
-4.59
-3.24
-3.04
-4.16
-6.29
-8.91
-11.46
-13.63
-15.41
-17.14
-19.26
-22.09
-25.80
-30.32
-35.46
-41.01
-46.83
-52.86
-59.24
-66.12
-73.66
-81.98
-91.10
-100.96
-111.39
-122.18
-133.00
-143.43
-153.04
-161.28
-167.57
-171.22
-171.76
-168.45
-160.71
-148.05
-130.20
-107.57
-80.98
-51.87
-21.88
7.40
34.70
59.26
80.72
99.06
114.32
126.47
135.43
141.17
143.90
144.22
143.15
141.81
141.21
141.73
143.24
145.02
146.21
146.32
145.27
143.76
142.50
142.47
144.30
148.44
154.78
162.40
169.52
173.07
170.16
158.41
137.45
109.04
76.25
42.41
9.65
-21.06
-49.29
-73.93
-92.93
-104.03
-106.40
-102.18
-96.31
-95.50
-105.47
-129.50
-166.93
-213.32
-261.24
-301.33
-324.44
-323.28
-294.99
-242.14
-172.86
-98.64
-31.43
19.50
49.88
60.41
56.07
43.61
29.71
19.78
17.29
23.73
38.72
60.53
86.36
112.96
136.94
155.58
167.29
171.89
170.56
165.08
157.39
148.67
139.29
128.88
116.83
102.90
87.41
71.30
55.82
42.07
30.63
21.48
14.05
7.57
1.41
-4.67
-10.54
-15.81
-20.06
-23.06
-24.85
-25.74
-26.14
-26.40
-26.72
-27.10
-27.40
-27.44
-27.07
-26.24
-25.00
-23.47
-21.79
-20.08
-18.40
-16.78
-15.22
-13.69
-12.15
-10.58
-8.95
-7.27
-5.58
-3.94
-2.43
-1.20
-0.45
-0.41
-1.34
-3.53
-7.12
-12.26
-19.05
-27.36
-36.85
-46.89
-56.67
-65.29
-71.86
-75.62
-76.09
-73.08
-66.44
-56.93
-45.47
-33.12
