1657611254.00
64.000000
-0.00
-0.00
-0.00
-0.00
-0.00
-0.00
-0.00
-0.00
-0.00
-0.00
0.00
0.01
0.01
-0.00
-0.03
-0.05
-0.05
0.00
0.13
0.36
0.66
1.01
1.37
1.72
2.06
2.40
2.79
3.24
3.80
4.42
5.06
5.66
6.20
6.68
7.15
7.68
8.31
9.14
10.09
11.04
11.88
12.56
13.14
13.76
14.65
15.96
17.91
20.32
22.90
25.38
27.58
29.57
31.68
34.32
37.81
42.54
48.15
54.10
59.83
64.97
69.58
74.14
79.34
85.71
93.76
103.00
112.62
121.73
129.77
136.75
143.30
150.75
157.77
166.64
177.95
191.79
206.97
220.57
228.25
225.36
208.53
176.87
132.76
80.05
23.07
-34.94
-92.44
-149.16
-205.23
-260.37
-313.74
-363.87
-409.83
-450.91
-486.50
-515.74
-537.23
-549.22
-549.96
-538.37
-514.20
-478.67
-433.87
-382.44
-327.01
-269.82
-212.61
-156.62
-102.90
-52.30
-5.80
35.72
71.61
101.60
125.81
144.77
159.17
169.72
177.04
181.54
183.48
183.10
180.67
176.53
171.08
164.73
157.83
150.61
143.22
135.73
128.18
120.62
113.10
105.71
98.53
91.61
85.00
78.71
72.77
67.18
61.96
57.11
52.64
48.56
44.88
41.59
38.68
36.13
33.93
32.07
30.52
29.29
28.40
27.85
27.61
27.62
27.82
28.16
28.64
29.19
29.87
30.77
31.89
33.20
34.59
35.91
37.01
37.75
37.88
37.34
36.13
34.13
31.18
27.03
21.40
14.12
5.19
-5.34
-17.11
-29.56
-42.24
-54.85
-67.19
-79.11
-90.29
-99.36
-105.79
-109.64
-109.74
-105.22
-95.92
-82.36
-65.58
-46.76
-26.95
-6.98
13.31
33.24
51.88
67.89
79.59
85.31
83.99
75.60
61.23
42.98
23.12
3.47
-15.05
-32.50
-49.39
-66.31
-83.66
-101.65
-119.62
-135.70
-146.36
-147.22
-134.60
-107.62
-69.45
-26.75
12.38
41.27
56.78
59.80
54.20
44.86
35.96
30.02
27.86
29.08
32.61
37.17
41.52
44.68
46.04
45.41
42.77
38.59
33.89
30.31
29.51
32.61
39.40
48.34
57.11
63.66
66.93
67.08
65.13
62.24
59.18
56.29
53.71
51.75
50.79
51.25
53.03
55.39
56.94
56.59
54.34
51.51
49.98
50.70
52.54
52.35
46.51
32.51
10.12
-18.81
-51.72
-86.39
-120.55
-150.20
-168.39
-166.50
-138.27
-84.19
-13.16
60.14
120.98
160.59
178.96
182.99
182.89
186.41
195.11
205.32
211.87
212.94
210.13
206.48
203.86
201.86
198.81
192.66
182.61
169.75
156.71
146.09
139.27
135.77
133.56
129.65
121.16
106.56
86.18
61.84
35.79
9.95
-14.56
-37.44
-58.88
-79.16
-98.06
-114.78
-128.06
-136.82
-140.40
-138.70
-132.05
-121.10
-106.66
-89.56
-70.56
-50.35
-29.62
-8.87
11.74
32.38
53.26
74.28
94.74
113.28
128.25
138.29
142.90
142.73
139.41
134.84
130.22
125.46
119.14
109.12
93.75
72.80
47.73
21.75
-2.11
-22.00
-38.05
-51.96
-66.07
-82.17
-101.13
-123.43
-148.91
-176.69
-203.88
-224.59
-230.97
-216.65
-180.82
-130.51
-79.24
-39.84
-20.02
-18.66
-27.66
-37.75
-43.85
-47.33
-53.63
-68.98
-92.33
-120.31
-149.26
-178.43
-210.80
-249.88
-295.41
-340.73
-376.97
-387.97
-365.35
-308.83
-226.34
-131.73
-40.95
32.07
78.22
89.85
75.64
43.31
2.09
-40.15
-78.91
-113.72
-147.15
-183.10
-231.23
-286.05
-346.37
-408.21
-465.46
-511.59
-541.87
-555.27
-515.02
-478.04
-443.12
-414.28
-392.29
-375.59
-361.91
-349.50
-337.38
-324.96
-317.60
-307.09
-292.36
-273.34
-251.22
-228.05
-205.98
-186.27
-168.94
-157.71
-145.50
-130.85
-113.33
-93.75
-73.84
-55.59
-40.51
-29.12
-23.92
-20.28
-16.75
-12.19
-6.09
1.53
10.37
20.16
30.81
41.10
52.95
66.50
81.52
97.35
112.99
127.35
139.46
148.53
153.64
155.24
153.41
148.47
140.94
131.50
121.06
110.65
101.31
93.94
89.09
86.88
86.86
88.28
90.06
91.25
90.99
88.64
83.83
76.39
66.29
53.86
39.83
25.61
13.41
5.83
5.54
14.62
33.89
62.48
97.97
136.92
175.63
211.04
240.84
263.54
278.35
284.80
282.92
273.72
259.61
244.12
231.09
223.27
221.71
226.24
236.15
251.17
271.11
294.89
319.82
341.95
357.50
364.85
365.53
363.63
363.92
369.34
379.49
390.49
396.65
392.54
375.12
344.65
304.31
258.96
213.25
169.96
129.74
91.76
55.13
19.82
-13.45
-44.67
-75.64
-109.82
-150.42
-197.44
-245.95
-286.73
-309.70
-308.27
-282.37
-238.60
-186.96
-136.36
-91.05
-50.20
-10.89
28.41
65.69
96.24
115.80
123.52
122.62
118.35
114.63
112.01
108.47
101.80
92.21
82.63
76.65
75.56
77.15
76.99
71.43
59.90
45.43
32.20
22.47
15.19
7.22
-3.08
-12.85
-14.75
-0.13
35.75
89.95
151.98
207.35
243.39
254.24
242.49
216.97
188.19
163.71
145.72
131.63
116.31
95.17
65.72
27.60
-18.38
-70.96
-128.87
-189.29
-246.56
-292.15
-317.37
-317.29
-294.23
-257.99
-221.67
-196.00
-184.27
-181.27
-176.67
-160.66
-129.03
-85.02
-36.80
7.36
43.12
71.36
95.81
119.16
140.04
153.02
151.29
130.78
92.83
44.02
-7.00
-53.79
-94.65
-131.42
-166.11
-197.11
-218.36
-222.37
-205.05
-169.54
-125.74
-86.53
-61.58
-53.30
-56.54
-62.37
-63.47
-57.46
-46.99
-36.85
-30.65
-28.88
-29.63
-30.54
-30.83
-31.71
-35.27
-42.72
-53.15
-63.90
-72.01
-75.84
-76.15
-75.69
-77.85
-84.83
-96.57
-110.45
-122.40
-128.58
-126.82
-117.43
-102.63
-85.49
-68.43
-52.40
-36.72
-19.79
-0.25
21.94
44.76
64.92
78.98
85.01
83.46
76.82
68.33
60.56
54.71
50.71
48.05
46.30
45.02
43.45
40.47
35.07
27.35
19.34
14.49
16.39
27.00
45.51
68.62
91.77
110.93
123.64
129.32
128.66
123.16
114.52
104.54
94.88
86.68
80.22
74.77
69.05
61.93
53.14
43.44
34.23
26.72
21.38
17.80
15.00
12.10
8.55
4.25
-0.65
-5.93
-11.21
-15.79
-18.72
-19.14
-16.77
-12.43
-7.83
-4.78
-4.41
-6.39
-9.26
-11.32
-11.55
-10.08
-8.03
-6.62
-6.46
-7.33
-8.44
-9.17
-9.49
-9.91
-11.03
-12.96
-15.20
-16.90
-17.49
-17.16
-16.74
-17.42
-19.89
-24.04
-28.92
-33.28
-36.19
-37.51
-37.80
-37.75
-37.78
-37.70
-37.06
-35.59
-33.45
-31.40
-30.42
-31.28
-34.09
-38.44
-43.55
-48.76
-53.66
-58.11
-62.11
-65.48
-67.88
-68.99
-68.78
-67.66
-66.34
-65.43
-64.82
-63.67
-60.70
-55.09
-47.30
-39.40
-34.47
-35.18
-42.48
-54.79
-68.63
-80.00
-86.15
-86.47
-82.21
-75.49
-67.97
-60.56
-53.44
-47.01
-42.10
-39.69
-39.83
-40.87
-39.84
-33.72
-21.26
-3.92
14.52
30.12
40.80
47.55
53.54
61.71
72.26
81.70
84.32
75.50
54.94
28.04
4.12
-7.27
-0.15
26.12
67.28
116.90
168.56
216.82
256.98
284.45
295.35
287.91
264.37
230.74
194.90
163.40
139.01
120.56
104.54
87.94
69.80
51.47
35.27
22.99
15.17
11.33
10.96
14.32
22.65
36.83
55.77
75.42
89.24
90.75
76.58
48.81
14.53
-16.66
-36.52
-41.33
-32.87
-17.15
-1.82
6.20
2.67
-13.10
-38.24
-66.96
-92.20
-107.64
-109.91
-99.24
-78.74
-52.64
-24.78
1.68
23.69
37.86
40.95
31.26
10.15
-17.59
-45.18
-65.96
-75.79
-74.23
-64.22
-50.28
-36.33
-24.01
-12.33
1.16
18.06
36.98
52.95
59.28
50.76
26.83
-7.42
-43.10
-71.48
-87.27
-89.88
-81.94
-66.41
-44.56
-16.44
16.63
49.76
74.30
81.11
65.24
29.21
-17.20
-60.82
-90.61
-101.53
-95.02
-76.38
-50.87
-21.74
9.24
39.59
64.63
78.44
76.76
59.86
33.28
5.57
-15.48
-26.05
-27.03
-22.22
-15.65
-9.28
-2.59
6.14
17.75
30.59
40.39
41.95
31.81
10.23
-18.24
-46.50
-67.87
-78.54
-78.48
-70.13
-56.19
-38.11
-16.39
7.76
31.04
48.48
55.75
51.82
40.05
26.65
17.39
14.65
16.82
19.96
20.61
17.94
13.85
11.49
13.11
19.06
27.94
37.88
47.55
56.35
64.01
70.06
73.80
74.39
71.38
64.40
52.88
36.08
13.66
-13.20
-41.48
-66.84
-85.17
-94.24
-94.48
-88.42
-79.05
-68.33
-56.65
-43.52
-28.94
-14.08
-0.99
8.45
13.67
15.71
16.48
17.69
19.88
22.31
23.59
22.57
18.90
13.19
6.62
0.34
-4.79
-8.32
-10.21
-10.65
-10.06
-8.88
-7.53
-6.30
-5.21
-4.02
-2.43
-0.26
2.38
5.07
7.35
8.94
9.82
10.14
10.18
9.98
9.40
8.16
6.00
3.00
-0.33
-3.17
-4.74
-4.64
-3.12
-0.87
1.18
2.27
2.04
0.71
-1.03
-2.30
-2.36
-0.78
2.36
6.46
10.67
14.21
16.64
17.96
18.43
18.44
18.28
18.01
17.52
16.65
15.39
13.77
11.85
9.59
6.91
3.72
-0.08
-4.40
-9.02
-13.51
-17.38
-20.22
-21.86
-22.50
-22.57
-22.70
-23.29
-24.40
-25.72
-26.64
-26.61
-25.39
-23.14
-20.21
-17.14
-14.32
-12.18
-11.11
-11.42
-13.23
-16.16
-19.27
-21.23
-20.90
-17.74
-12.39
-6.27
-1.08
1.98
2.58
1.34
-0.60
-2.21
-2.92
-2.76
-2.22
-1.88
-2.13
-2.96
-4.07
-5.00
-5.37
-5.12
-4.50
-3.96
-3.82
-4.09
-4.37
-4.11
-2.99
-1.08
1.10
2.83
3.48
2.84
1.16
-0.92
-2.76
-3.93
-4.36
-4.32
-4.21
-4.45
-5.21
-6.42
-7.82
-9.03
-9.69
-9.52
-8.45
-6.52
-4.01
-1.33
1.08
2.88
4.01
4.60
4.92
5.02
4.84
4.15
2.88
1.26
-0.28
-1.19
-1.19
-0.32
0.97
2.22
3.12
3.61
3.90
4.16
4.43
4.59
4.48
4.04
3.36
2.56
1.66
0.68
-0.51
-1.95
-3.56
-5.03
-5.99
-6.13
-5.41
-4.05
-2.43
-0.95
0.21
1.03
1.71
2.36
2.97
3.34
3.26
2.71
1.81
0.84
-0.07
-0.99
-2.08
-3.38
-4.57
-5.06
-4.21
-1.84
1.67
5.38
8.24
9.63
9.64
9.01
8.66
9.23
10.81
13.02
15.16
16.69
17.47
17.67
17.57
17.34
16.95
16.22
15.19
14.08
13.37
13.46
14.31
15.41
16.07
16.04
15.73
16.15
18.22
22.21
27.33
32.06
35.03
35.75
35.02
34.45
35.62
39.41
45.62
53.42
61.77
69.93
77.38
83.69
88.23
90.27
89.20
85.05
78.67
71.44
64.52
57.85
50.02
38.37
20.09
-6.59
-41.32
-81.39
-122.53
-160.44
-192.14
-216.18
-232.07
-239.37
-237.43
-226.46
-208.71
-189.20
-174.48
-170.09
-178.00
-195.39
-215.84
-232.08
-239.04
-235.36
-223.24
-206.64
-189.28
-173.56
-160.07
-147.74
-134.41
-117.76
-95.97
-68.49
-36.11
-0.71
35.30
69.44
99.59
124.07
141.78
152.65
157.97
160.40
163.70
171.82
187.93
212.97
244.78
277.82
304.61
318.29
315.35
297.44
270.86
244.05
224.01
213.40
209.89
207.84
201.34
186.92
164.80
138.02
110.61
85.48
63.42
43.19
22.70
0.29
-24.29
-49.79
-74.33
-96.74
-117.77
-139.98
-166.45
-198.43
-233.35
-264.58
-283.19
-281.41
-255.71
-208.14
-145.25
-75.61
-7.47
52.24
97.91
125.17
131.34
117.16
87.53
50.88
16.58
-8.27
-20.80
-22.71
-18.62
-14.42
-15.55
-25.74
-45.90
-73.38
-102.38
-125.52
-136.99
-134.87
-121.83
-103.30
-84.33
-67.28
-51.50
-35.27
-18.13
-2.11
9.10
12.41
7.33
-3.47
-15.20
-22.82
-23.04
-15.01
-0.30
18.10
37.14
54.62
69.63
82.19
92.51
100.20
104.46
104.58
100.79
94.79
89.18
86.51
87.84
92.24
97.14
99.59
97.91
92.48
85.67
80.65
79.96
84.26
91.92
99.27
101.47
93.82
73.38
40.56
-0.34
-41.64
-74.73
-93.13
-95.21
-84.81
-69.45
-56.80
-51.34
-53.43
-60.57
-70.32
-82.10
-97.02
-115.77
-136.94
-157.19
-173.24
-184.12
-191.75
-198.76
-205.59
-208.73
-202.71
-184.39
-156.69
-128.12
-108.28
-101.81
-104.93
-107.73
-100.68
-81.07
-55.28
-35.23
-31.10
-45.54
-72.06
-98.80
-114.56
-113.72
-97.45
-71.31
-41.51
-11.92
16.42
44.65
74.28
105.95
139.02
171.78
201.85
226.74
244.18
252.70
252.14
243.66
229.26
211.05
190.69
168.85
145.70
121.35
96.10
70.49
44.90
19.52
-5.34
-28.71
-48.76
-63.06
-69.52
-67.36
-57.43
-41.96
-23.78
-5.52
10.62
23.02
30.66
33.41
32.09
28.55
24.97
23.13
23.69
26.18
29.45
32.40
34.42
35.30
35.01
33.42
30.42
26.25
21.51
17.03
13.43
10.77
8.60
6.39
3.85
1.01
-1.94
-5.17
-9.23
-14.70
-21.88
-30.35
-39.01
-46.49
-51.47
-53.08
-51.04
-45.81
-38.54
-30.81
-24.30
-20.10
-18.48
-18.81
-19.92
-20.76
-20.78
-20.07
-19.18
-18.66
-18.83
-19.66
-20.81
-22.05
-23.28
-24.44
-25.28
-25.15
-22.93
-17.65
-8.90
2.66
15.42
27.30
36.60
42.44
44.78
43.94
39.88
32.14
20.25
4.62
-13.01
-29.78
-42.71
-49.86
-51.05
-47.69
-41.99
-35.87
-30.24
-25.08
-19.89
-14.39
-8.83
-3.83
0.06
2.71
4.44
5.82
7.33
9.11
10.88
12.12
12.36
11.46
9.71
7.77
6.30
5.70
5.93
6.66
7.48
8.15
8.74
9.38
10.10
10.73
10.93
10.45
9.27
7.62
5.90
4.42
3.29
2.45
1.69
0.84
-0.18
-1.41
-2.81
-4.25
-5.53
-6.34
-6.36
-5.43
-3.66
-1.47
0.61
2.13
3.00
3.40
3.65
3.95
4.25
4.30
3.83
2.91
1.88
1.20
1.18
1.90
3.13
4.59
6.04
7.34
8.41
9.11
9.25
8.60
7.14
5.00
2.55
0.23
-1.65
-2.94
-3.73
-4.20
-4.50
-4.73
-4.90
-4.98
-4.93
-4.75
-4.53
-4.35
-4.35
-4.60
-5.14
-5.98
-7.00
-8.05
-8.91
-9.37
-9.29
-8.67
-7.60
-6.29
-4.88
-3.42
-1.82
-0.03
1.97
3.97
5.76
7.09
7.87
8.17
8.21
8.22
8.31
8.49
8.65
8.62
8.28
7.59
6.64
5.65
4.85
4.36
4.10
3.81
3.24
2.22
0.86
-0.58
-1.85
-2.81
-3.51
-4.14
-4.83
-5.63
-6.48
-7.24
-7.88
-8.44
-8.96
-9.54
-10.26
-11.15
-12.18
-13.15
-13.74
-13.64
-12.61
-10.69
-8.16
-5.43
-2.81
-0.41
1.87
4.19
6.55
8.76
10.51
11.53
11.75
11.36
10.66
9.94
9.37
8.96
8.63
8.32
7.99
7.64
7.23
6.70
5.98
5.12
4.13
3.10
2.08
1.11
0.12
-0.98
-2.26
-3.74
-5.30
-6.74
-7.80
-8.23
-7.95
-7.03
-5.74
-4.45
-3.57
-3.41
-4.04
-5.28
-6.67
-7.67
-7.84
-6.99
-5.30
-3.28
-1.49
-0.29
0.27
0.45
0.53
0.74
0.97
1.01
0.60
-0.23
-1.18
-1.85
-1.88
-1.21
-0.07
1.14
2.05
2.58
2.93
3.42
4.37
5.83
7.58
9.22
10.34
10.74
10.52
10.02
9.75
10.36
12.45
16.43
22.37
29.92
38.40
47.07
55.32
62.96
70.06
76.88
83.58
90.06
95.87
100.17
101.90
99.86
93.19
81.84
67.02
50.97
36.12
23.92
14.33
6.17
-1.86
-10.40
-19.47
-29.08
-39.66
-51.66
-64.64
-76.70
-85.30
-88.78
-87.79
-85.21
-84.34
-86.68
-90.81
-93.28
-90.96
-83.16
-72.03
-60.97
-52.46
-46.71
-42.02
-36.39
-29.07
-21.13
-14.67
-11.39
-11.66
-14.44
-18.12
-21.77
-25.67
-31.03
-38.67
-47.76
-55.44
-57.92
-52.49
-39.25
-21.24
-2.82
12.39
22.87
28.93
31.54
31.30
28.29
22.99
16.78
11.77
9.62
10.29
11.90
11.98
9.18
4.50
0.86
1.14
6.49
15.59
25.47
33.06
36.47
35.35
30.56
23.66
16.39
10.35
6.69
5.85
7.23
9.24
9.86
7.49
1.66
-6.72
-15.81
-23.72
-29.38
-32.67
-34.06
-34.00
-32.60
-29.65
-25.19
-19.70
-14.16
-9.51
-6.20
-4.12
-2.86
-2.39
-3.21
-5.81
-9.63
-12.50
-11.25
-3.67
9.55
24.29
34.95
37.30
30.47
16.87
0.21
-16.57
-32.08
-45.71
-56.42
-62.45
-62.07
-55.00
-42.67
-27.31
-10.45
7.53
25.88
41.79
50.37
47.02
30.76
5.99
-19.13
-36.69
-42.78
-38.41
-27.52
-13.98
-0.01
13.16
23.51
27.45
21.31
3.73
-22.36
-50.23
-71.97
-81.42
-76.32
-58.57
-33.18
-6.74
14.49
26.33
28.00
21.94
12.60
4.21
-1.02
-3.36
-4.59
-6.18
-8.23
-9.54
-8.78
-5.76
-2.06
-0.51
-3.94
-13.91
-29.79
-48.72
-66.66
-79.91
-86.44
-86.49
-81.83
-74.52
-65.76
-55.44
-42.86
-27.97
-12.11
2.19
12.35
17.09
16.99
13.99
10.47
8.13
7.49
8.18
9.52
11.05
12.68
14.47
16.24
17.68
18.38
18.25
17.71
17.45
17.79
18.56
19.21
19.10
17.78
15.05
10.57
3.60
-6.73
-20.45
-35.85
-49.56
-57.78
-57.99
-49.98
-35.70
-17.99
0.77
19.60
38.44
56.95
73.57
85.89
92.02
92.06
88.56
85.37
85.80
90.86
98.86
106.52
111.00
111.48
109.90
110.27
116.75
131.20
151.91
173.84
190.83
198.46
195.91
186.08
174.08
164.60
159.69
158.24
157.14
153.22
144.70
131.47
114.47
94.91
73.87
52.51
32.19
14.03
-1.83
-16.73
-33.39
-54.59
-81.76
-113.98
-147.88
-178.72
-201.82
-214.10
-214.59
-204.49
-186.73
-165.61
-146.33
-133.90
-131.60
-139.30
-152.78
-164.46
-165.97
-151.23
-118.61
-71.58
-17.34
35.62
79.90
110.61
125.96
126.92
116.96
101.28
85.74
75.22
72.20
76.17
84.13
91.89
95.30
90.83
75.78
48.34
8.18
-42.70
-99.58
-155.92
-205.52
-245.29
-276.56
-303.89
-331.84
-361.29
-387.88
-403.46
-400.22
-374.49
-328.75
-270.34
-208.07
-148.76
-95.37
-48.14
-6.79
27.39
52.02
65.74
70.95
74.56
85.32
108.94
143.51
178.94
200.99
198.76
170.82
126.47
81.33
49.71
38.45
45.54
63.34
84.14
104.12
123.92
146.42
173.97
206.53
242.31
278.85
313.68
344.13
366.58
376.75
370.98
348.08
310.07
261.76
208.68
154.98
102.49
51.24
1.17
-46.43
-88.67
-122.34
-145.82
-160.20
-168.82
-175.31
-181.49
-186.38
-187.00
-180.49
-166.09
-145.94
-124.21
-105.11
-91.18
-82.40
-76.73
-71.33
-64.18
-54.71
-43.86
-33.25
-24.21
-17.23
-11.82
-6.93
-1.51
4.82
11.64
17.91
22.32
23.97
22.51
18.11
11.21
2.38
-7.70
-18.04
-27.41
-34.60
-38.82
-40.01
-38.84
-36.32
-33.29
-30.15
-26.88
-23.34
-19.58
-15.92
-12.85
-10.75
-9.66
-9.31
-9.10
-8.36
-6.52
-3.47
0.49
4.62
8.23
11.04
13.26
15.48
18.19
21.34
24.36
26.43
26.93
25.86
23.88
21.86
20.47
19.91
19.90
19.96
19.68
18.83
17.43
15.61
13.55
11.43
9.40
7.52
5.78
4.17
2.69
1.39
0.32
-0.52
-1.18
-1.80
-2.50
-3.26
-3.92
-4.25
-4.09
-3.49
-2.62
-1.73
-0.98
-0.35
0.25
0.86
1.37
1.63
1.55
1.22
0.88
0.80
1.05
1.49
1.83
1.78
1.28
0.49
-0.37
-1.10
-1.70
-2.31
-3.08
-4.13
-5.37
-6.59
-7.52
-7.99
-8.03
-7.77
-7.47
-7.32
-7.32
-7.31
-7.10
-6.53
-5.57
-4.40
-3.19
-2.10
-1.11
-0.07
1.16
2.58
4.00
5.16
5.74
5.64
4.96
3.98
3.04
2.44
2.29
2.54
3.06
3.66
4.16
4.42
4.34
3.86
2.93
1.65
0.16
-1.30
-2.53
-3.43
-4.07
-4.63
-5.32
-6.28
-7.51
-8.86
-10.06
-10.90
-11.15
-10.71
-9.58
-7.83
-5.63
-3.28
-1.07
0.72
1.85
2.27
2.12
1.62
1.10
0.79
0.75
0.91
1.17
1.39
1.49
1.47
1.36
1.17
0.98
0.83
0.75
0.81
1.02
1.31
1.62
1.83
1.76
1.36
0.60
-0.52
-1.87
-3.28
-4.54
-5.40
-5.81
-5.73
-5.25
-4.46
-3.48
-2.40
-1.32
-0.30
0.59
1.25
1.67
1.88
1.93
1.93
1.93
1.96
2.03
2.21
2.57
3.16
3.94
4.72
5.34
5.68
5.76
5.67
5.52
5.26
4.81
4.02
2.85
1.48
0.25
-0.62
-1.02
-1.13
-1.28
-1.69
-2.50
-3.64
-4.92
-6.18
-7.26
-8.02
-8.36
-8.16
-7.37
-6.01
-4.23
-2.24
-0.27
1.52
3.02
4.12
4.75
4.90
4.63
4.13
3.64
3.37
3.45
3.82
4.29
4.58
4.55
4.19
3.64
3.15
2.82
2.66
2.53
2.23
1.73
1.10
0.53
0.17
0.03
-0.00
-0.05
-0.22
-0.54
-0.94
-1.44
-2.09
-2.95
-4.04
-5.32
-6.56
-7.47
-7.76
-7.24
-5.93
-4.04
-1.89
0.16
1.82
2.97
3.61
3.75
3.47
2.77
1.67
0.29
-1.17
-2.48
-3.41
-3.84
-3.87
-3.64
-3.39
-3.27
-3.24
-3.25
-3.18
-3.05
-2.99
-3.15
-3.59
-4.24
-4.89
-5.24
-5.15
-4.60
-3.74
-2.91
-2.32
-2.14
-2.29
-2.47
-2.29
-1.44
0.13
2.22
4.31
5.89
6.67
6.70
6.38
6.11
6.15
6.42
6.55
6.11
4.87
2.92
0.60
-1.62
-3.41
-4.52
-4.71
-3.79
-1.66
1.50
4.90
7.38
7.72
5.15
-0.15
-7.07
-14.07
-19.74
-23.37
-25.09
-25.53
-25.26
-24.55
-23.24
-21.06
-18.01
-14.41
-10.94
-8.28
-6.74
-6.10
-5.81
-5.14
-3.61
-1.18
1.85
4.89
7.35
8.98
9.87
10.42
11.15
12.43
14.22
16.25
17.96
18.90
18.91
18.11
16.83
15.43
14.05
12.58
10.88
8.87
6.65
4.44
2.37
0.48
-1.35
-3.26
-5.22
-6.98
-8.19
-8.54
-7.97
-6.67
-5.00
-3.36
-2.05
-1.22
-0.88
-0.97
-1.43
-2.17
-3.08
-4.03
-4.89
-5.57
-6.03
-6.34
-6.62
-7.00
-7.57
-8.28
-9.00
-9.58
-9.89
-9.85
-9.54
-9.00
-8.34
-7.66
-7.06
-6.63
-6.43
-6.43
-6.53
-6.57
-6.29
-5.56
-4.37
-2.92
-1.49
-0.34
0.43
0.80
0.85
0.72
0.43
0.03
-0.43
-0.78
-0.84
-0.47
0.30
1.27
2.17
2.70
2.81
2.61
2.31
2.09
1.95
1.77
1.43
0.89
0.11
-0.86
-2.02
-3.36
-4.78
-6.11
-7.03
-7.34
-6.98
-6.13
-5.05
-3.95
-2.98
-2.07
-1.14
-0.14
0.86
1.82
2.68
3.45
4.21
4.94
5.62
6.09
6.29
6.25
6.11
6.11
6.40
7.00
7.70
8.20
8.24
7.74
6.75
5.46
4.01
2.43
0.79
-0.90
-2.44
-3.64
-4.31
-4.40
-4.00
-3.30
-2.51
-1.69
-0.88
-0.00
0.93
1.79
2.44
2.72
2.64
2.37
2.12
2.00
1.93
1.68
1.02
-0.01
-1.15
-1.95
-2.07
-1.47
-0.44
0.55
1.15
1.20
0.75
-0.18
-1.64
-3.81
-6.77
-10.31
-14.06
-17.56
-20.55
-23.06
-25.30
-27.40
-29.29
-30.66
-31.14
-30.59
-29.20
-27.45
-25.83
-24.68
-23.97
-23.48
-22.89
-21.83
-20.11
-17.58
-14.15
-9.74
-4.40
1.69
8.08
14.21
19.62
24.03
27.55
30.49
33.15
35.59
37.62
38.96
39.37
38.90
37.79
36.42
35.01
33.56
31.95
30.00
27.77
25.41
23.22
21.41
20.02
18.92
17.86
16.59
14.94
12.79
10.08
6.80
2.95
-1.33
-5.75
-9.90
-13.34
-15.69
-16.78
-16.69
-15.73
-14.30
-12.80
-11.42
-10.18
-8.92
-7.51
-5.93
-4.30
-2.84
-1.71
-0.97
-0.51
-0.16
0.24
0.70
1.16
1.46
1.47
1.17
0.55
-0.37
-1.55
-2.92
-4.49
-6.18
-7.92
-9.61
-11.10
-12.19
-12.78
-12.78
-12.26
-11.46
-10.70
-10.31
-10.49
-11.12
-11.93
-12.55
-12.65
-12.10
-10.97
-9.39
-7.57
-5.68
-3.81
-2.09
-0.58
0.75
1.99
3.27
4.67
6.07
7.24
7.97
8.14
7.82
7.27
6.71
6.26
5.97
5.71
5.36
4.98
4.66
4.52
4.64
4.89
5.11
5.10
4.74
3.95
2.82
1.43
-0.09
-1.56
-2.96
-4.26
-5.49
-6.71
-8.04
-9.47
-10.92
-12.11
-12.63
-12.11
-10.37
-7.44
-3.70
0.30
4.07
7.19
9.48
11.01
11.96
12.50
12.84
13.03
13.08
12.97
12.65
12.14
11.51
10.83
10.14
9.48
8.77
8.00
7.13
6.11
4.92
3.54
1.98
0.23
-1.61
-3.54
-5.49
-7.39
-9.27
-11.14
-13.08
-15.17
-17.42
-19.74
-21.92
-23.78
-25.21
-26.45
-28.02
-30.53
-34.36
-39.32
-44.57
-48.77
-50.61
-49.17
-44.38
-36.92
-27.97
-18.66
-9.82
-1.72
5.85
13.23
20.82
28.79
37.12
45.55
53.69
60.98
66.81
70.63
72.04
71.15
68.55
65.24
62.24
60.05
58.43
56.43
52.90
46.99
38.69
28.80
18.69
9.79
3.06
-1.13
-2.97
-3.01
-2.08
-0.92
-0.20
-0.38
-1.66
-4.03
-7.22
-10.84
-14.36
-17.35
-19.41
-20.50
-20.95
-21.41
-22.57
-24.73
-27.63
-30.43
-32.17
-32.09
-30.04
-26.51
-22.32
-18.31
-14.87
-11.99
-9.30
-6.52
-3.53
-0.48
2.36
4.85
6.96
8.75
10.29
11.57
12.50
12.98
13.03
12.78
12.50
12.38
12.50
12.84
13.23
13.51
13.48
13.05
12.23
11.16
9.99
8.83
7.78
6.75
5.68
4.48
3.19
1.90
0.73
-0.28
-1.20
-2.12
-3.16
-4.38
-5.78
-7.42
-9.34
-11.63
-14.24
-16.88
-19.12
-20.48
-20.58
-19.31
-16.86
-13.68
-10.26
-7.05
-4.32
-2.13
-0.45
0.92
2.14
3.27
4.31
5.17
5.79
6.18
6.41
6.65
6.97
7.40
7.81
8.12
8.29
8.36
8.38
8.27
7.99
7.40
6.41
5.00
3.32
1.55
-0.10
-1.49
-2.54
-3.27
-3.75
-4.11
-4.52
-5.14
-6.09
-7.50
-9.36
-11.59
-13.94
-16.05
-17.51
-18.01
-17.36
-15.60
-12.93
-9.63
-6.07
-2.64
0.31
2.55
4.06
4.99
5.65
6.31
7.15
8.05
8.82
9.23
9.24
9.00
8.77
8.75
9.03
9.49
9.88
10.03
9.89
9.54
9.12
8.65
8.04
7.13
5.79
4.01
2.01
0.05
-1.50
-2.53
-3.05
-3.27
-3.49
-3.99
-5.02
-6.66
-8.82
-11.19
-13.33
-14.81
-15.35
-14.91
-13.61
-11.76
-9.61
-7.36
-5.12
-2.91
-0.72
1.47
3.67
5.88
8.04
10.03
11.66
12.76
13.30
13.36
13.19
13.03
13.10
13.42
13.86
14.22
14.30
14.09
13.64
13.08
12.39
11.54
10.32
8.69
6.76
4.75
3.11
2.08
1.69
1.71
1.83
1.72
1.31
0.69
-0.08
-0.93
-1.91
-3.04
-4.32
-5.67
-7.04
-8.44
-9.89
-11.43
-12.95
-14.19
-14.81
-14.51
-13.25
-11.19
-8.65
-5.87
-3.00
-0.03
3.04
6.18
9.27
12.14
14.67
16.83
18.75
20.50
22.17
23.67
24.86
25.66
26.08
26.21
26.23
26.36
26.64
26.97
27.10
26.60
25.07
22.13
17.63
11.58
4.43
-3.15
-10.26
-15.92
-19.39
-20.36
-19.08
-16.35
-13.27
-10.82
-9.61
-9.77
-10.99
-12.89
-15.08
-17.29
-19.26
-20.76
-21.61
-21.74
-21.26
-20.47
-19.74
-19.18
-18.68
-17.90
-16.48
-14.35
-11.68
-8.84
-6.18
-3.94
-2.09
-0.51
0.87
2.03
2.90
3.43
3.68
3.84
4.06
4.51
5.20
6.03
6.88
7.66
8.29
8.71
8.84
8.62
8.11
7.38
6.54
5.68
4.72
3.58
2.18
0.53
-1.16
-2.66
-3.72
-4.29
-4.44
-4.38
-4.36
-4.57
-5.14
-6.02
-7.09
-8.13
-8.99
-9.53
-9.79
-9.88
-9.99
-10.35
-11.08
-12.18
-13.50
-14.69
-15.42
-15.46
-14.72
-13.30
-11.47
-9.41
-7.30
-5.16
-2.89
-0.41
2.29
5.07
7.70
9.85
11.34
12.06
12.14
11.80
11.28
10.76
10.32
9.93
9.57
9.19
8.76
8.26
7.77
7.34
7.00
6.85
6.89
7.09
7.34
7.50
7.47
7.25
6.80
6.09
5.12
3.85
2.33
0.65
-1.00
-2.45
-3.59
-4.41
-4.98
-5.41
-5.86
-6.44
-7.30
-8.51
-10.01
-11.57
-12.77
-13.15
-12.35
-10.41
-7.72
-4.81
-2.26
-0.33
1.00
1.97
2.86
3.84
4.80
5.53
5.83
5.59
4.82
3.74
2.66
1.89
1.76
2.38
3.65
5.29
6.92
8.21
8.96
9.18
8.92
8.26
7.22
5.81
4.08
2.07
-0.07
-2.22
-4.26
-6.13
-7.76
-9.08
-9.98
-10.33
-10.09
-9.29
-8.15
-7.03
-6.32
-6.26
-6.93
-8.07
-9.19
-9.79
-9.55
-8.43
-6.63
-4.49
-2.35
-0.38
1.32
2.78
4.01
4.98
5.61
5.85
5.65
5.02
4.12
3.13
2.28
1.72
1.50
1.52
1.63
1.68
1.59
1.40
1.21
1.12
1.19
1.42
1.71
1.92
1.87
1.52
0.88
0.01
-0.96
-1.93
-2.90
-3.86
-4.85
-5.87
-6.87
-7.76
-8.53
-9.16
-9.63
-9.84
-9.66
-8.94
-7.63
-5.84
-3.80
-1.85
-0.18
1.11
2.15
3.06
3.98
4.91
5.80
6.57
7.14
7.48
7.53
7.29
6.80
6.19
5.67
5.44
5.62
6.17
6.86
7.35
7.32
6.64
5.27
3.38
1.25
-0.79
-2.43
-3.47
-3.81
-3.53
-2.76
-1.73
-0.69
0.12
0.57
0.56
0.12
-0.70
-1.86
-3.28
-4.89
-6.61
-8.42
-10.27
-12.10
-13.69
-14.75
-14.96
-14.04
-11.93
-8.82
-5.15
-1.45
1.83
4.43
6.30
7.46
8.00
8.01
7.66
7.15
6.62
6.21
5.92
5.65
5.29
4.85
4.34
3.88
3.55
3.35
3.24
3.16
3.04
2.89
2.66
2.28
1.69
0.88
-0.05
-0.89
-1.46
-1.65
-1.45
-0.99
-0.49
-0.19
-0.27
-0.83
-1.82
-3.20
-4.80
-6.35
-7.74
-8.86
-9.76
-10.58
-11.49
-12.53
-13.66
-14.62
-14.98
-14.52
-13.08
-10.76
-7.87
-4.80
-1.90
0.58
2.45
3.67
4.18
4.15
3.77
3.30
2.98
2.87
2.93
3.00
3.04
3.03
3.17
3.58
4.24
5.09
5.93
6.65
7.20
7.64
7.94
8.08
7.98
7.55
6.94
6.29
5.75
5.35
4.94
4.31
3.30
1.94
0.39
-1.03
-2.11
-2.73
-2.94
-2.91
-2.81
-2.84
-3.08
-3.67
-4.56
-5.65
-6.70
-7.45
-7.63
-7.11
-5.94
-4.36
-2.71
-1.24
-0.10
0.71
1.27
1.67
1.95
2.10
2.07
1.82
1.36
0.78
0.21
-0.16
-0.27
-0.18
0.00
0.06
-0.09
-0.41
-0.72
-0.88
-0.81
-0.60
-0.43
-0.43
-0.62
-0.87
-1.01
-1.01
-0.91
-0.87
-1.02
-1.42
-2.08
-3.00
-4.18
-5.56
-7.04
-8.38
-9.32
-9.63
-9.26
-8.27
-6.90
-5.36
-3.85
-2.52
-1.51
-0.93
-0.83
-1.17
-1.73
-2.23
-2.40
-2.10
-1.42
-0.58
0.16
0.63
0.83
0.87
0.90
1.00
1.09
1.02
0.61
-0.25
-1.53
-3.11
-4.80
-6.46
-7.97
-9.34
-10.55
-11.54
-12.11
-11.99
-11.07
-9.33
-7.03
-4.61
-2.49
-0.89
0.18
0.93
1.53
2.01
2.32
2.33
2.07
1.69
1.46
1.63
2.30
3.35
4.57
5.72
6.59
7.11
7.19
6.84
6.11
5.07
3.82
2.43
0.97
-0.53
-2.03
-3.57
-5.21
-6.99
-8.86
-10.65
-12.03
-12.65
-12.29
-10.95
-8.90
-6.57
-4.33
-2.36
-0.63
0.99
2.60
4.11
5.45
6.44
6.99
7.09
6.78
6.16
5.38
4.54
3.73
3.06
2.59
2.31
2.16
1.99
1.70
1.31
0.83
0.42
0.12
-0.06
-0.30
-0.78
-1.71
-3.14
-4.95
-6.95
-8.89
-10.56
-11.75
-12.30
-12.04
-10.90
-9.01
-6.56
-3.89
-1.27
1.17
3.38
5.45
7.43
9.26
10.74
11.75
12.21
12.21
11.92
11.50
11.07
10.70
10.35
9.97
9.58
9.12
8.58
8.00
7.45
6.98
6.71
6.59
6.51
6.35
5.99
5.31
4.38
3.26
2.01
0.74
-0.47
-1.54
-2.39
-3.09
-3.78
-4.66
-5.90
-7.60
-9.61
-11.68
-13.45
-14.55
-14.77
-14.07
-12.53
-10.38
-7.88
-5.19
-2.50
0.07
2.41
4.35
5.83
6.82
7.37
7.55
7.56
7.47
7.29
7.06
6.77
6.49
6.31
6.25
6.28
6.34
6.36
6.25
6.06
5.83
5.57
5.25
4.79
4.13
3.29
2.40
1.57
0.91
0.37
-0.23
-1.04
-2.07
-3.20
-4.22
-4.96
-5.44
-5.85
-6.48
-7.59
-9.20
-11.07
-12.82
-14.05
-14.40
-13.73
-12.11
-9.72
-6.88
-3.93
-1.16
1.23
3.23
4.91
6.39
7.70
8.79
9.54
9.85
9.74
9.33
8.84
8.40
8.11
7.93
7.80
7.67
7.57
7.60
7.76
8.01
8.18
8.09
7.60
6.73
5.52
4.03
2.34
0.46
-1.49
-3.32
-4.80
-5.83
-6.41
-6.79
-7.22
-7.85
-8.75
-9.71
-10.58
-11.24
-11.66
-11.74
-11.36
-10.35
-8.58
-6.15
-3.37
-0.64
1.61
3.19
4.20
4.89
5.48
6.15
6.77
7.12
7.06
6.53
5.74
5.00
4.61
4.61
4.86
4.99
4.78
4.16
3.30
2.42
1.68
0.99
0.16
-0.94
-2.33
-3.72
-4.76
-5.20
-4.98
-4.31
-3.57
-3.13
-3.20
-3.91
-5.22
-6.98
-8.96
-10.77
-11.96
-12.13
-11.03
-8.70
-5.48
-1.90
1.54
4.44
6.68
8.30
9.38
9.99
10.15
9.81
9.02
7.94
6.76
5.69
4.84
4.26
3.98
3.96
4.24
4.81
5.63
6.54
7.33
7.75
7.60
6.79
5.34
3.43
1.29
-0.80
-2.67
-4.24
-5.50
-6.55
-7.51
-8.49
-9.51
-10.47
-11.15
-11.30
-10.74
-9.39
-7.40
-5.05
-2.65
-0.45
1.44
3.00
4.17
4.92
5.22
5.11
4.71
4.19
3.70
3.31
3.04
2.91
2.94
3.16
3.51
3.88
4.09
4.05
3.68
3.12
2.53
1.99
1.50
0.88
-0.02
-1.30
-2.80
-4.23
-5.25
-5.61
-5.31
-4.57
-3.81
-3.39
-3.62
-4.56
-5.99
-7.56
-8.81
-9.41
-9.15
-8.03
-6.23
-3.99
-1.60
0.74
2.92
4.94
6.73
8.28
9.49
10.27
10.57
10.45
10.03
9.41
8.75
8.03
7.21
6.22
5.04
3.75
2.49
1.43
0.63
0.13
-0.17
-0.32
-0.44
-0.60
-0.88
-1.27
-1.80
-2.35
-2.77
-2.99
-2.98
-2.90
-2.98
-3.48
-4.55
-6.16
-8.08
-9.89
-11.12
-11.46
-10.74
-9.05
-6.70
-4.03
-1.41
0.98
3.08
4.95
6.60
8.04
9.20
9.99
10.34
10.23
9.69
8.85
7.84
6.88
6.16
5.85
5.99
6.53
7.30
8.07
8.60
8.68
8.16
7.04
5.39
3.37
1.25
-0.73
-2.47
-3.92
-5.12
-6.14
-6.93
-7.52
-7.90
-8.07
-8.10
-8.04
-7.86
-7.52
-6.89
-5.90
-4.59
-3.07
-1.50
0.02
1.45
2.80
4.01
5.02
5.68
5.85
5.48
4.66
3.58
2.52
1.75
1.43
1.58
2.12
2.86
3.60
4.21
4.62
4.89
5.05
5.11
4.99
4.59
3.89
2.95
1.92
0.88
-0.05
-0.94
-1.82
-2.78
-3.88
-5.18
-6.65
-8.24
-9.67
-10.58
-10.66
-9.73
-7.94
-5.71
-3.54
-1.82
-0.70
-0.13
0.07
0.00
-0.25
-0.64
-1.15
-1.69
-2.27
-2.83
-3.43
-4.00
-4.53
-4.92
-5.11
-5.09
-4.87
-4.53
-4.10
-3.61
-3.10
-2.65
-2.39
-2.51
-3.12
-4.14
-5.41
-6.66
-7.75
-8.62
-9.30
-9.92
-10.48
-10.90
-10.92
-10.33
-9.03
-7.15
-4.88
-2.45
-0.10
2.05
3.87
5.27
6.11
6.39
6.15
5.55
4.76
3.92
3.10
2.32
1.54
0.81
0.23
-0.03
0.12
0.63
1.27
1.80
1.93
1.57
0.82
-0.11
-1.02
-1.83
-2.55
-3.28
-4.01
-4.73
-5.36
-5.79
-5.99
-5.88
-5.45
-4.58
-3.21
-1.30
1.00
3.45
5.66
7.26
8.08
8.11
7.51
6.56
5.59
4.80
4.32
4.15
4.15
4.22
4.25
4.15
3.88
3.47
2.94
2.35
1.71
1.04
0.34
-0.46
-1.37
-2.40
-3.46
-4.43
-5.15
-5.53
-5.62
-5.57
-5.63
-6.02
-6.75
-7.60
-8.22
-8.17
-7.18
-5.27
-2.65
0.26
3.02
5.37
7.13
8.25
8.73
8.58
7.81
6.52
4.86
3.10
1.55
0.49
0.05
0.20
0.80
1.56
2.28
2.75
2.90
2.73
2.27
1.57
0.67
-0.43
-1.74
-3.16
-4.56
-5.78
-6.67
-7.22
-7.50
-7.65
-7.82
-8.06
-8.36
-8.69
-9.03
-9.27
-9.26
-8.79
-7.66
-5.87
-3.61
-1.20
0.99
2.71
3.94
4.82
5.55
6.24
6.92
7.48
7.85
7.90
7.63
7.07
6.31
5.52
4.86
4.40
4.05
3.69
3.23
2.68
2.20
1.92
1.88
1.92
1.72
1.10
0.03
-1.24
-2.37
-3.18
-3.67
-4.09
-4.67
-5.52
-6.49
-7.29
-7.63
-7.40
-6.58
-5.28
-3.57
-1.56
0.63
2.85
4.94
6.73
8.15
9.24
10.05
10.58
10.84
10.78
10.38
9.66
8.68
7.57
6.48
5.60
5.06
4.97
5.25
5.56
5.49
4.68
3.06
0.84
-1.56
-3.69
-5.30
-6.46
-7.37
-8.16
-8.84
-9.19
-9.07
-8.47
-7.53
-6.50
-5.62
-4.92
-4.30
-3.58
-2.59
-1.36
-0.06
1.03
1.68
1.75
1.33
0.66
0.01
-0.42
-0.54
-0.41
-0.14
0.13
0.36
0.57
0.80
1.00
0.99
0.60
-0.21
-1.33
-2.49
-3.37
-3.79
-3.86
-3.86
-4.11
-4.74
-5.64
-6.59
-7.35
-7.84
-8.12
-8.27
-8.36
-8.25
-7.77
-6.81
-5.42
-3.78
-2.12
-0.65
0.51
1.33
1.87
2.20
2.41
2.58
2.71
2.79
2.66
2.30
1.70
0.96
0.27
-0.23
-0.50
-0.60
-0.63
-0.76
-1.01
-1.38
-1.85
-2.38
-3.00
-3.69
-4.52
-5.44
-6.46
-7.46
-8.28
-8.76
-8.71
-8.04
-6.77
-5.09
-3.23
-1.48
0.01
1.24
2.25
3.10
3.77
4.12
4.04
3.50
2.66
1.79
1.16
0.84
0.78
0.80
0.71
0.46
0.16
-0.08
-0.13
0.00
0.14
0.12
-0.26
-1.01
-2.07
-3.33
-4.68
-6.08
-7.41
-8.57
-9.29
-9.31
-8.38
-6.44
-3.69
-0.51
2.58
5.15
6.96
8.01
8.46
8.51
8.30
7.88
7.21
6.30
5.26
4.30
3.62
3.32
3.27
3.19
2.84
2.13
1.13
0.12
-0.66
-1.15
-1.40
-1.67
-2.16
-2.97
-3.99
-5.09
-6.13
-7.10
-8.06
-8.98
-9.80
-10.34
-10.39
-9.83
-8.66
-6.99
-5.01
-2.86
-0.57
1.87
4.39
6.82
8.87
10.23
10.74
10.46
9.63
8.63
7.81
7.30
7.04
6.84
6.54
6.13
5.66
5.16
4.57
3.73
2.56
1.07
-0.48
-1.74
-2.42
-2.51
-2.28
-2.15
-2.44
-3.31
-4.63
-6.18
-7.74
-9.06
-9.95
-10.29
-9.97
-8.97
-7.44
-5.59
-3.65
-1.81
-0.10
1.50
2.97
4.23
5.13
5.54
5.46
5.05
4.54
4.15
4.09
4.37
4.91
5.55
6.12
6.51
6.75
6.84
6.87
6.82
6.65
6.27
5.62
4.77
3.81
2.88
2.06
1.32
0.58
-0.24
-1.18
-2.25
-3.40
-4.63
-5.90
-7.16
-8.32
-9.20
-9.59
-9.28
-8.19
-6.32
-3.88
-1.20
1.37
3.56
5.21
6.27
6.79
6.86
6.60
6.09
5.49
4.90
4.45
4.22
4.21
4.40
4.74
5.06
5.27
5.27
5.05
4.58
3.95
3.23
2.50
1.81
1.14
0.51
-0.06
-0.54
-0.95
-1.28
-1.58
-1.85
-2.13
-2.50
-2.93
-3.41
-3.84
-4.00
-3.70
-2.76
-1.14
1.01
3.36
5.55
7.16
7.99
8.01
7.31
6.05
4.49
2.89
1.45
0.35
-0.32
-0.57
-0.42
0.05
0.71
1.42
2.00
2.31
2.34
2.12
1.80
1.61
1.63
1.86
2.18
2.35
2.20
1.57
0.41
-1.30
-3.37
-5.60
-7.65
-9.15
-9.84
-9.56
-8.36
-6.43
-4.08
-1.55
0.93
3.17
5.01
6.33
7.01
7.05
6.52
5.56
4.36
3.06
1.73
0.43
-0.77
-1.68
-2.09
-1.87
-1.01
0.32
1.81
3.09
3.99
4.37
4.25
3.73
2.85
1.65
0.18
-1.52
-3.37
-5.19
-6.85
-8.21
-9.17
-9.66
-9.73
-9.44
-8.87
-8.03
-6.88
-5.37
-3.48
-1.33
0.83
2.70
4.03
4.70
4.78
4.44
3.88
3.31
2.87
2.63
2.62
2.79
3.06
3.39
3.69
3.85
3.77
3.46
2.96
2.46
2.09
1.92
1.92
1.83
1.44
0.60
-0.66
-2.16
-3.65
-4.94
-5.97
-6.87
-7.88
-9.07
-10.42
-11.65
-12.39
-12.31
-11.20
-9.09
-6.29
-3.24
-0.37
2.05
3.89
5.25
6.28
7.14
7.90
8.56
9.03
9.28
9.28
8.95
8.34
7.43
6.26
4.90
3.54
2.40
1.64
1.33
1.41
1.71
2.04
2.25
2.23
2.05
1.78
1.47
1.18
0.93
0.73
0.57
0.41
0.14
-0.33
-1.03
-1.81
-2.42
-2.48
-1.74
-0.16
2.11
4.66
7.09
9.10
10.68
11.97
13.22
14.66
16.40
18.52
20.96
23.74
26.81
30.10
33.54
37.06
40.63
44.26
48.06
52.05
56.22
60.42
64.31
67.67
70.46
72.90
75.52
78.98
83.70
89.83
97.21
105.37
113.90
122.35
130.51
138.28
145.81
153.36
161.24
169.53
177.69
184.49
187.98
186.14
177.66
162.47
141.85
118.02
93.51
70.33
49.80
32.47
18.58
8.39
2.11
-0.37
0.08
1.66
1.94
-1.31
-9.54
-22.93
-40.47
-60.58
-81.80
-103.61
-126.49
-151.58
-179.68
-210.56
-242.61
-273.35
-300.11
-320.56
-333.30
-337.94
-335.05
-325.99
-313.15
-300.24
-291.93
-292.45
-303.69
-323.54
-346.20
-364.21
-371.68
-366.77
-352.27
-333.90
-317.27
-305.16
-296.95
-289.59
-279.71
-265.48
-246.68
-223.96
-197.73
-167.75
-133.47
-95.17
-54.34
-13.57
23.98
55.84
80.99
100.18
115.35
128.73
141.80
154.84
167.07
177.27
184.57
189.12
192.47
197.32
206.75
223.25
247.55
277.79
309.59
337.37
355.99
362.68
357.81
344.36
326.34
307.21
288.96
272.02
256.32
242.06
230.04
221.21
216.23
215.07
217.22
222.02
228.60
235.58
240.63
240.58
232.27
213.97
186.43
152.68
116.65
81.29
47.26
12.89
-24.41
-66.53
-113.19
-161.86
-208.95
-251.21
-287.05
-316.84
-342.66
-367.01
-391.67
-416.51
-439.15
-455.53
-460.89
-451.49
-425.58
-383.73
-328.37
-262.92
-191.13
-117.11
-45.49
18.97
72.10
111.70
138.20
154.44
164.15
170.24
173.79
174.21
170.56
162.64
151.48
138.94
126.72
115.78
106.36
98.65
93.22
91.01
92.71
98.14
105.99
114.03
120.02
122.28
120.18
114.15
105.34
95.05
84.32
73.61
62.63
50.77
37.44
22.55
6.71
-8.91
-23.01
-34.70
-43.76
-50.65
-56.24
-61.28
-66.04
-70.15
-72.87
-73.59
-72.18
-69.16
-65.45
-61.92
-58.97
-56.52
-54.06
-51.20
-47.81
-44.18
-40.90
-38.73
-38.22
-39.56
-42.45
-46.00
-48.99
-50.08
-48.28
-43.23
-35.42
-25.91
-16.00
-6.74
1.24
7.71
12.62
15.93
17.62
17.80
16.80
15.09
13.16
11.37
9.83
8.48
7.16
5.70
4.04
2.19
0.27
-1.57
-3.07
-4.08
-4.67
-5.06
-5.69
-6.95
-9.05
-11.86
-15.09
-18.27
-21.00
-22.97
-23.94
-23.80
-22.62
-20.68
-18.44
-16.41
-14.97
-14.13
-13.65
-13.05
-11.99
-10.26
-7.87
-4.87
-1.42
2.27
5.89
8.98
11.23
12.43
12.72
12.51
12.33
12.52
13.20
14.30
15.62
17.08
18.67
20.40
22.26
24.05
25.56
26.60
27.04
26.95
26.53
25.96
25.42
25.02
24.67
24.29
23.71
22.74
21.20
19.09
16.56
13.92
11.60
9.95
9.26
9.51
10.34
11.00
10.70
8.73
4.88
-0.44
-6.44
-12.10
-16.62
-19.66
-21.32
-21.96
-21.98
-21.58
-20.84
-19.88
-18.82
-17.89
-17.20
-16.78
-16.42
-15.82
-14.66
-12.83
-10.58
-8.42
-6.88
-6.29
-6.60
-7.32
-7.88
-7.83
-7.08
-5.84
-4.56
-3.57
-3.04
-2.88
-2.92
-3.00
-3.00
-2.76
-2.14
-1.00
0.64
2.59
4.56
6.32
7.74
8.83
9.69
10.27
10.45
10.13
9.32
8.17
6.99
5.95
5.14
4.52
3.96
3.48
3.24
3.44
4.15
5.26
6.45
7.37
7.78
7.61
6.96
6.02
4.94
3.78
2.55
1.25
-0.08
-1.30
-2.29
-2.91
-3.12
-3.01
-2.78
-2.69
-2.93
-3.52
-4.24
-4.79
-4.83
-4.25
-3.07
-1.56
0.04
1.50
2.69
3.52
3.89
3.78
3.16
2.11
0.75
-0.71
-2.05
-3.19
-4.00
-4.46
-4.56
-4.35
-3.90
-3.31
-2.67
-2.02
-1.41
-0.79
-0.06
0.80
1.83
2.90
3.85
4.51
4.87
4.94
4.91
4.93
5.07
5.27
5.38
5.32
5.03
4.61
4.13
3.66
3.21
2.81
2.64
2.84
3.56
4.76
6.17
7.40
8.11
8.20
7.80
7.28
6.88
6.68
6.50
6.12
5.37
4.28
3.02
1.75
0.65
-0.21
-0.82
-1.18
-1.31
-1.24
-1.07
-0.91
-0.86
-0.89
-0.87
-0.70
-0.31
0.19
0.69
1.03
1.14
1.04
0.77
0.34
-0.19
-0.80
-1.45
-2.08
-2.68
-3.22
-3.69
-4.09
-4.37
-4.40
-4.10
-3.50
-2.65
-1.68
-0.62
0.52
1.82
3.27
4.77
6.12
7.09
7.54
7.41
6.81
5.97
5.11
4.41
3.94
3.66
3.47
3.37
3.26
3.14
3.04
3.07
3.31
3.85
4.67
5.63
6.50
6.95
6.75
5.90
4.60
3.19
1.92
0.94
0.15
-0.57
-1.43
-2.44
-3.47
-4.28
-4.63
-4.36
-3.56
-2.53
-1.57
-0.95
-0.76
-0.84
-0.98
-0.92
-0.49
0.19
0.89
1.39
1.53
1.38
1.16
1.05
1.17
1.46
1.83
2.14
2.38
2.58
2.73
2.72
2.41
1.73
0.74
-0.32
-1.19
-1.74
-2.02
-2.17
-2.27
-2.33
-2.27
-2.08
-1.84
-1.68
-1.70
-1.92
-2.22
-2.38
-2.28
-1.93
-1.45
-0.97
-0.55
-0.13
0.40
1.09
1.94
2.81
3.49
3.81
3.68
3.16
2.42
1.71
1.22
0.98
0.90
0.80
0.58
0.23
-0.14
-0.42
-0.51
-0.43
-0.28
-0.08
0.15
0.45
0.83
1.25
1.59
1.69
1.49
0.95
0.15
-0.84
-1.90
-2.95
-3.85
-4.49
-4.80
-4.80
-4.59
-4.26
-3.86
-3.36
-2.75
-2.04
-1.31
-0.73
-0.42
-0.44
-0.70
-1.08
-1.44
-1.70
-1.81
-1.77
-1.55
-1.13
-0.55
0.07
0.60
0.91
0.96
0.81
0.58
0.27
-0.15
-0.74
-1.50
-2.31
-2.91
-3.09
-2.76
-2.04
-1.17
-0.42
0.07
0.33
0.48
0.68
0.95
1.23
1.36
1.19
0.74
0.05
-0.72
-1.48
-2.14
-2.68
-3.14
-3.50
-3.78
-3.97
-4.04
-3.99
-3.89
-3.73
-3.59
-3.53
-3.52
-3.52
-3.47
-3.32
-3.04
-2.73
-2.39
-2.00
-1.52
-0.83
-0.02
0.68
0.94
0.51
-0.65
-2.28
-3.88
-5.04
-5.48
-5.28
-4.73
-4.11
-3.61
-3.24
-2.82
-2.31
-1.74
-1.25
-1.06
-1.22
-1.69
-2.29
-2.87
-3.24
-3.33
-3.18
-2.82
-2.36
-1.84
-1.31
-0.81
-0.38
-0.04
0.17
0.21
0.06
-0.22
-0.51
-0.70
-0.75
-0.72
-0.78
-1.03
-1.47
-1.97
-2.31
-2.38
-2.14
-1.67
-1.08
-0.49
0.06
0.51
0.89
1.16
1.29
1.30
1.26
1.28
1.40
1.68
2.02
2.32
2.38
2.03
1.12
-0.41
-2.43
-4.68
-6.72
-8.14
-8.66
-8.28
-7.26
-5.96
-4.73
-3.71
-2.83
-1.92
-0.89
0.15
0.97
1.31
1.10
0.52
-0.13
-0.57
-0.65
-0.46
-0.14
0.22
0.58
0.87
0.89
0.31
-1.12
-3.26
-5.47
-6.72
-6.01
-2.88
2.37
8.70
14.86
19.68
22.54
23.30
22.20
19.58
15.86
11.46
6.88
2.74
-0.40
-2.20
-2.60
-1.92
-0.63
0.76
1.95
2.79
3.32
3.63
3.74
3.67
3.42
3.04
2.59
2.14
1.68
1.17
0.60
-0.03
-0.58
-0.94
-0.97
-0.65
-0.05
0.70
1.40
1.92
2.15
2.15
1.97
1.73
1.48
1.20
0.79
0.14
-0.80
-1.94
-3.11
-4.10
-4.89
-5.50
-6.05
-6.55
-6.92
-6.93
-6.33
-5.05
-3.25
-1.35
0.28
1.36
1.87
2.00
2.04
2.17
2.40
2.60
2.50
2.02
1.16
0.10
-0.91
-1.64
-1.97
-1.96
-1.71
-1.33
-0.84
-0.24
0.41
1.06
1.60
1.91
1.96
1.81
1.50
1.08
0.56
-0.05
-0.64
-1.07
-1.29
-1.34
-1.46
-1.96
-3.04
-4.60
-6.27
-7.50
-7.84
-7.14
-5.60
-3.66
-1.80
-0.33
0.74
1.56
2.38
3.25
4.11
4.72
4.87
4.48
3.75
2.97
2.37
2.08
2.00
2.00
1.96
1.86
1.75
1.78
2.00
2.30
2.61
2.74
2.62
2.26
1.73
1.19
0.84
0.78
1.04
1.54
2.06
2.42
2.46
2.10
1.35
0.20
-1.26
-2.85
-4.23
-5.12
-5.34
-4.92
-4.17
-3.47
-3.10
-3.07
-3.20
-3.14
-2.82
-2.23
-1.54
-0.95
-0.49
-0.10
0.44
1.23
2.32
3.50
4.64
5.58
6.28
6.76
7.08
7.27
7.29
7.13
6.75
6.18
5.45
4.55
3.53
2.39
1.16
-0.11
-1.30
-2.30
-3.03
-3.52
-3.92
-4.41
-5.22
-6.43
-7.91
-9.32
-10.24
-10.38
-9.69
-8.43
-6.96
-5.68
-4.72
-4.04
-3.37
-2.51
-1.38
-0.10
1.11
2.02
2.48
2.57
2.42
2.22
2.00
1.75
1.34
0.74
0.10
-0.33
-0.24
0.42
1.50
2.62
3.39
3.62
3.36
2.91
2.54
2.45
2.52
2.60
2.45
2.05
1.47
0.85
0.31
-0.18
-0.66
-1.19
-1.71
-2.17
-2.50
-2.74
-2.99
-3.31
-3.71
-3.99
-3.93
-3.31
-2.02
-0.17
2.04
4.36
6.56
8.45
9.90
10.77
10.98
10.45
9.20
7.37
5.20
3.01
1.05
-0.44
-1.32
-1.57
-1.31
-0.73
-0.04
0.58
1.08
1.46
1.87
2.30
2.72
3.00
2.99
2.60
1.83
0.84
-0.19
-1.01
-1.48
-1.60
-1.47
-1.32
-1.42
-1.96
-2.94
-4.14
-5.17
-5.67
-5.46
-4.59
-3.32
-1.94
-0.72
0.30
1.20
2.06
2.98
3.93
4.91
5.84
6.70
7.39
7.76
7.63
6.87
5.51
3.72
1.81
0.08
-1.28
-2.18
-2.60
-2.68
-2.47
-2.09
-1.67
-1.36
-1.20
-1.17
-1.20
-1.20
-1.22
-1.33
-1.59
-2.03
-2.61
-3.24
-3.92
-4.63
-5.36
-6.05
-6.49
-6.52
-6.08
-5.22
-4.10
-2.86
-1.57
-0.24
1.07
2.26
3.14
3.49
3.24
2.43
1.25
0.02
-0.96
-1.49
-1.47
-0.93
-0.00
1.14
2.23
3.06
3.55
3.72
3.68
3.57
3.39
3.16
2.81
2.28
1.55
0.69
-0.22
-1.01
-1.63
-2.06
-2.31
-2.47
-2.66
-3.00
-3.56
-4.23
-4.77
-4.91
-4.44
-3.33
-1.74
0.06
1.76
3.16
4.16
4.78
5.03
4.88
4.31
3.32
1.96
0.48
-0.81
-1.64
-1.87
-1.56
-0.96
-0.33
0.08
0.23
0.31
0.46
0.82
1.34
1.84
2.13
2.08
1.67
0.94
-0.00
-1.08
-2.16
-3.05
-3.57
-3.63
-3.32
-2.88
-2.62
-2.79
-3.43
-4.27
-4.91
-4.96
-4.24
-2.82
-0.99
0.96
2.82
4.45
5.78
6.72
7.12
6.89
6.05
4.83
3.56
2.59
2.09
2.05
2.29
2.57
2.74
2.73
2.62
2.48
2.35
2.19
1.92
1.45
0.75
-0.12
-1.05
-1.87
-2.39
-2.57
-2.46
-2.29
-2.34
-2.86
-3.91
-5.36
-6.95
-8.38
-9.45
-9.98
-9.93
-9.23
-7.95
-6.19
-4.12
-1.97
0.14
2.14
3.99
5.60
6.84
7.51
7.52
6.88
5.75
4.45
3.20
2.16
1.35
0.75
0.32
0.10
0.13
0.41
0.88
1.37
1.76
1.95
1.98
1.89
1.74
1.50
1.09
0.48
-0.39
-1.42
-2.56
-3.71
-4.87
-6.03
-7.18
-8.23
-9.04
-9.43
-9.28
-8.55
-7.34
-5.83
-4.23
-2.73
-1.41
-0.18
1.04
2.33
3.62
4.72
5.37
5.36
4.64
3.33
1.79
0.40
-0.46
-0.62
-0.06
1.00
2.23
3.39
4.29
4.94
5.40
5.75
5.90
5.77
5.21
4.18
2.78
1.13
-0.56
-2.11
-3.34
-4.10
-4.28
-3.92
-3.18
-2.37
-1.79
-1.66
-1.96
-2.51
-3.19
-3.97
-4.95
-6.25
-7.81
-9.31
-10.31
-10.39
-9.47
-7.85
-6.06
-4.63
-3.88
-3.77
-4.06
-4.55
-5.11
-5.78
-6.65
-7.74
-8.91
-9.95
-10.71
-11.20
-11.53
-11.91
-12.51
-13.41
-14.61
-16.11
-17.86
-19.82
-21.92
-24.06
-26.11
-28.06
-29.92
-31.74
-33.59
-35.43
-37.16
-38.58
-39.44
-39.42
-38.31
-35.99
-32.54
-28.25
-23.60
-19.12
-15.14
-11.53
-7.71
-2.78
4.05
13.00
23.51
34.32
43.83
50.78
54.60
55.46
54.24
52.13
50.23
49.26
49.52
50.73
52.47
54.17
55.51
56.36
56.84
57.07
57.13
57.02
56.67
56.05
55.23
54.38
53.77
53.63
53.97
54.55
54.75
53.68
50.29
43.75
33.77
20.77
5.89
-9.25
-22.92
-33.64
-40.63
-43.81
-43.73
-41.21
-36.96
-31.44
-24.80
-17.19
-8.91
-0.61
6.95
13.05
17.22
19.27
19.05
16.45
11.36
3.95
-5.24
-15.20
-24.71
-32.60
-38.15
-41.19
-42.01
-41.22
-39.45
-37.17
-34.65
-31.88
-28.71
-24.98
-20.64
-15.81
-10.91
-6.38
-2.64
-0.07
1.16
1.01
-0.37
-2.61
-5.11
-7.25
-8.53
-8.76
-8.15
-7.11
-6.11
-5.33
-4.74
-4.11
-3.34
-2.48
-1.76
-1.52
-1.97
-3.19
-4.99
-6.99
-8.77
-9.98
-10.39
-9.97
-8.95
-7.63
-6.46
-5.85
-6.14
-7.41
-9.26
-10.87
-11.08
-8.93
-4.03
3.05
10.91
17.84
22.42
24.10
23.24
20.84
17.94
15.35
13.35
11.87
10.74
9.91
9.45
9.46
9.85
10.36
10.57
10.10
8.78
6.75
4.40
2.24
0.64
-0.19
-0.25
0.28
1.19
2.22
3.06
3.45
3.16
2.10
0.41
-1.52
-3.07
-3.66
-2.98
-1.20
1.00
2.74
3.20
2.03
-0.64
-4.22
-7.87
-10.80
-12.38
-12.28
-10.42
-7.01
-2.44
2.68
7.60
11.70
14.54
15.99
16.19
15.40
13.84
11.68
9.05
6.07
2.95
-0.05
-2.69
-4.87
-6.58
-7.91
-8.92
-9.58
-9.84
-9.78
-9.49
-9.24
-9.25
-9.63
-10.38
-11.36
-12.38
-13.26
-13.98
-14.57
-15.17
-15.84
-16.57
-17.27
-17.78
-17.97
-17.68
-16.76
-15.11
-12.66
-9.53
-5.89
-2.04
1.79
5.48
9.00
12.40
15.61
18.47
20.71
22.10
22.51
22.09
21.18
20.16
19.37
18.94
18.78
18.59
18.03
16.85
15.05
12.82
10.48
8.28
6.31
4.55
2.90
1.32
-0.12
-1.31
-2.20
-2.89
-3.62
-4.58
-5.81
-7.14
-8.24
-8.78
-8.61
-7.80
-6.57
-5.12
-3.55
-1.89
-0.17
1.51
2.96
3.97
4.44
4.40
3.94
3.24
2.39
1.50
0.69
0.10
-0.16
-0.10
0.13
0.31
0.27
-0.06
-0.62
-1.29
-2.00
-2.75
-3.53
-4.32
-5.06
-5.65
-6.06
-6.29
-6.44
-6.59
-6.80
-6.97
-7.00
-6.71
-5.99
-4.84
-3.39
-1.83
-0.37
0.93
2.02
2.92
3.62
4.05
4.17
4.04
3.85
3.82
4.09
4.63
5.21
5.55
5.42
4.80
3.87
2.90
2.12
1.62
1.36
1.17
0.90
0.42
-0.32
-1.29
-2.39
-3.45
-4.31
-4.78
-4.83
-4.58
-4.27
-4.16
-4.40
-4.92
-5.45
-5.67
-5.42
-4.73
-3.81
-2.90
-2.12
-1.45
-0.76
0.04
0.93
1.71
2.20
2.33
2.22
2.04
2.00
2.21
2.59
3.02
3.33
3.45
3.38
3.17
2.84
2.39
1.79
1.04
0.24
-0.47
-0.90
-1.00
-0.80
-0.49
-0.24
-0.17
-0.25
-0.31
-0.23
0.01
0.27
0.24
-0.37
-1.63
-3.41
-5.35
-7.02
-8.05
-8.31
-7.80
-6.71
-5.29
-3.81
-2.53
-1.65
-1.25
-1.29
-1.61
-1.96
-2.16
-2.07
-1.67
-0.97
-0.05
1.06
2.23
3.36
4.35
5.09
5.59
5.92
6.15
6.32
6.42
6.30
5.91
5.17
4.07
2.77
1.44
0.28
-0.56
-0.98
-0.98
-0.63
-0.06
0.51
0.93
1.00
0.58
-0.37
-1.78
-3.46
-5.13
-6.46
-7.20
-7.19
-6.48
-5.22
-3.64
-1.95
-0.32
1.16
2.36
3.17
3.52
3.39
2.83
2.00
1.02
-0.01
-0.96
-1.77
-2.30
-2.45
-2.10
-1.25
0.03
1.57
3.13
4.57
5.69
6.38
6.57
6.22
5.42
4.30
3.02
1.68
0.35
-0.95
-2.20
-3.27
-4.06
-4.40
-4.21
-3.54
-2.58
-1.58
-0.73
-0.09
0.38
0.69
0.79
0.60
-0.02
-1.06
-2.29
-3.38
-3.99
-3.94
-3.39
-2.60
-1.86
-1.30
-0.82
-0.28
0.46
1.29
1.97
2.21
1.92
1.32
0.77
0.65
1.10
2.00
3.01
3.87
4.46
4.87
5.22
5.51
5.58
5.25
4.44
3.34
2.36
1.86
1.97
2.46
2.88
2.83
2.17
1.09
-0.02
-0.83
-1.22
-1.34
-1.40
-1.65
-2.16
-2.88
-3.73
-4.65
-5.68
-6.84
-8.12
-9.32
-10.19
-10.43
-9.85
-8.43
-6.37
-4.00
-1.66
0.44
2.18
3.62
4.81
5.77
6.43
6.71
6.58
6.13
5.48
4.80
4.23
3.81
3.56
3.39
3.27
3.10
2.86
2.50
1.96
1.32
0.66
0.15
-0.18
-0.29
-0.26
-0.20
-0.16
-0.17
-0.22
-0.32
-0.50
-0.85
-1.44
-2.32
-3.50
-4.92
-6.52
-8.12
-9.57
-10.66
-11.24
-11.16
-10.40
-9.02
-7.05
-4.73
-2.22
0.18
2.20
3.57
4.21
4.17
3.62
2.86
2.05
1.33
0.73
0.22
-0.22
-0.58
-0.86
-1.08
-1.32
-1.74
-2.47
-3.57
-4.99
-6.49
-7.85
-8.84
-9.35
-9.28
-8.62
-7.30
-5.27
-2.64
0.50
3.84
7.12
10.05
12.37
13.87
14.41
13.86
12.19
9.62
6.56
3.59
1.21
-0.27
-0.87
-0.80
-0.36
0.22
0.85
1.49
2.14
2.74
3.21
3.47
3.48
3.28
2.84
2.16
1.22
0.13
-0.87
-1.50
-1.57
-1.10
-0.28
0.53
1.03
1.10
0.80
0.31
-0.23
-0.75
-1.28
-1.86
-2.44
-2.89
-3.00
-2.64
-1.82
-0.77
0.13
0.51
0.19
-0.77
-2.10
-3.43
-4.57
-5.47
-6.31
-7.26
-8.38
-9.46
-10.16
-10.17
-9.39
-8.02
-6.37
-4.75
-3.26
-1.87
-0.47
0.97
2.30
3.28
3.73
3.65
3.20
2.67
2.25
2.08
2.21
2.61
3.25
4.06
4.92
5.72
6.32
6.62
6.67
6.46
6.01
5.28
4.29
3.12
2.03
1.21
0.77
0.63
0.48
0.06
-0.74
-1.76
-2.79
-3.57
-4.07
-4.40
-4.74
-5.14
-5.48
-5.57
-5.29
-4.72
-4.11
-3.73
-3.73
-3.99
-4.32
-4.42
-4.14
-3.49
-2.57
-1.46
-0.29
0.81
1.73
2.28
2.38
2.04
1.42
0.76
0.27
0.06
0.13
0.40
0.78
1.24
1.76
2.35
2.98
3.62
4.22
4.73
5.11
5.31
5.30
5.14
4.91
4.69
4.53
4.38
4.11
3.59
2.76
1.70
0.52
-0.64
-1.73
-2.72
-3.63
-4.41
-4.93
-5.03
-4.59
-3.71
-2.63
-1.76
-1.40
-1.63
-2.28
-2.97
-3.33
-3.13
-2.44
-1.45
-0.40
0.56
1.42
2.24
3.10
4.04
5.06
6.03
6.88
7.53
8.01
8.41
8.82
9.29
9.78
10.13
10.16
9.73
8.79
7.43
5.85
4.24
2.73
1.33
-0.04
-1.44
-2.89
-4.35
-5.73
-6.92
-7.82
-8.37
-8.57
-8.52
-8.34
-8.26
-8.47
-9.04
-9.89
-10.77
-11.41
-11.60
-11.38
-10.95
-10.66
-10.73
-11.12
-11.62
-11.79
-11.28
-9.96
-7.99
-5.70
-3.46
-1.49
0.16
1.56
2.80
3.88
4.74
5.20
5.15
4.54
3.41
1.92
0.29
-1.16
-2.12
-2.28
-1.47
0.36
3.01
6.05
8.98
11.29
12.62
12.87
12.19
10.91
9.39
7.88
6.51
5.29
4.16
3.04
1.83
0.49
-0.90
-2.23
-3.34
-4.05
-4.32
-4.19
-3.82
-3.34
-2.90
-2.54
-2.20
-1.87
-1.60
-1.43
-1.38
-1.46
-1.53
-1.56
-1.52
-1.43
-1.33
-1.24
-1.14
-0.96
-0.73
-0.48
-0.26
-0.15
-0.15
-0.19
-0.16
-0.03
0.24
0.54
0.72
0.65
0.30
-0.22
-0.76
-1.10
-1.18
-1.06
-0.91
-0.88
-1.05
-1.31
-1.48
-1.45
-1.22
-0.98
-1.04
-1.60
-2.70
-4.16
-5.66
-6.81
-7.35
-7.16
-6.30
-5.00
-3.47
-2.00
-0.75
0.23
0.94
1.43
1.73
1.87
1.84
1.63
1.27
0.83
0.44
0.15
0.04
0.11
0.36
0.79
1.44
2.29
3.33
4.50
5.65
6.61
7.22
7.34
6.90
5.93
4.54
2.92
1.39
0.14
-0.65
-1.03
-1.23
-1.52
-2.10
-3.04
-4.26
-5.58
-6.85
-7.92
-8.65
-8.91
-8.55
-7.43
-5.58
-3.18
-0.53
2.02
4.16
5.68
6.50
6.68
6.42
5.91
5.37
4.94
4.61
4.35
4.09
3.78
3.44
3.08
2.66
2.18
1.64
1.14
0.84
0.85
1.17
1.59
1.86
1.70
1.03
-0.00
-1.15
-2.12
-2.76
-3.09
-3.21
-3.24
-3.24
-3.19
-3.10
-3.05
-3.18
-3.63
-4.42
-5.42
-6.36
-6.96
-6.97
-6.33
-5.15
-3.60
-1.84
0.00
1.87
3.70
5.34
6.67
7.54
7.88
7.73
7.22
6.43
5.45
4.35
3.16
2.00
0.97
0.24
-0.11
-0.08
0.27
0.77
1.25
1.53
1.53
1.21
0.59
-0.20
-1.04
-1.73
-2.11
-2.10
-1.74
-1.17
-0.59
-0.15
0.13
0.34
0.56
0.75
0.73
0.35
-0.40
-1.37
-2.29
-2.99
-3.55
-4.23
-5.33
-6.91
-8.63
-9.94
-10.37
-9.74
-8.24
-6.33
-4.44
-2.78
-1.34
0.04
1.49
2.96
4.27
5.19
5.56
5.39
4.83
4.09
3.39
2.86
2.59
2.57
2.73
3.02
3.38
3.82
4.36
5.02
5.81
6.66
7.47
8.03
8.16
7.75
6.86
5.70
4.51
3.51
2.77
2.19
1.58
0.82
-0.09
-1.00
-1.71
-2.09
-2.16
-2.11
-2.15
-2.44
-3.09
-4.28
-6.22
-9.11
-13.05
-17.69
-22.29
-25.83
-27.35
-26.34
-22.93
-17.70
-11.51
-5.07
1.10
6.69
11.42
15.02
17.27
18.07
17.64
16.42
14.96
13.74
13.00
12.73
12.80
12.95
12.92
12.48
11.47
9.92
8.03
6.14
4.59
3.62
3.22
3.20
3.27
3.17
2.79
2.14
1.35
0.52
-0.26
-0.98
-1.62
-2.16
-2.62
-3.04
-3.44
-3.92
-4.55
-5.37
-6.40
-7.56
-8.69
-9.66
-10.46
-11.09
-11.66
-12.19
-12.59
-12.75
-12.62
-12.30
-12.09
-12.30
-13.03
-14.14
-15.24
-16.01
-16.32
-16.38
-16.51
-17.07
-18.17
-19.70
-21.54
-23.55
-25.75
-28.23
-31.10
-34.37
-38.13
-42.45
-47.56
-53.83
-61.56
-71.02
-82.37
-95.49
-109.97
-124.97
-139.06
-150.48
-157.32
-157.85
-150.92
-136.21
-114.21
-86.18
-53.94
-19.66
14.34
45.84
73.06
94.81
110.60
120.63
125.54
126.25
123.76
119.02
112.86
106.04
99.17
92.64
86.71
81.37
76.50
71.95
67.62
63.49
59.71
56.36
53.42
50.78
48.23
45.58
42.72
39.66
36.49
33.33
30.28
27.40
24.73
22.31
20.18
18.36
16.83
15.51
14.35
13.25
12.19
11.11
9.96
8.66
7.13
5.32
3.23
1.06
-0.97
-2.60
-3.69
-4.26
-4.45
-4.51
-4.72
-5.28
-6.25
-7.51
-8.82
-9.83
-10.26
-9.92
-8.89
-7.34
-5.57
-3.79
-2.10
-0.55
0.85
1.97
2.70
2.91
2.65
1.99
1.13
0.30
-0.36
-0.71
-0.74
-0.40
0.27
1.20
2.26
3.28
4.13
4.71
5.07
5.23
5.28
5.26
5.16
4.87
4.31
3.48
2.44
1.32
0.25
-0.78
-1.85
-3.14
-4.76
-6.64
-8.60
-10.34
-11.67
-12.48
-12.80
-12.63
-11.91
-10.53
-8.43
-5.71
-2.63
0.33
2.70
4.14
4.56
4.12
3.14
1.96
0.79
-0.22
-1.04
-1.63
-1.94
-1.86
-1.32
-0.33
0.91
2.12
3.04
3.40
3.14
2.28
0.97
-0.56
-2.09
-3.41
-4.39
-4.97
-5.20
-5.24
-5.23
-5.36
-5.67
-6.20
-6.79
-7.27
-7.38
-6.94
-5.87
-4.25
-2.41
-0.74
0.37
0.70
0.30
-0.57
-1.50
-2.13
-2.27
-2.01
-1.49
-0.93
-0.36
0.28
1.14
2.37
3.98
5.82
7.61
9.12
10.16
10.61
10.45
9.72
8.53
7.05
5.46
3.95
2.58
1.33
0.15
-0.98
-1.96
-2.70
-3.14
-3.37
-3.57
-3.98
-4.74
-5.81
-6.97
-7.90
-8.39
-8.43
-8.08
-7.48
-6.67
-5.61
-4.21
-2.54
-0.77
0.80
1.94
2.61
2.98
3.32
3.79
4.39
4.89
5.06
4.82
4.26
3.60
3.04
2.70
2.58
2.67
2.99
3.55
4.26
4.95
5.36
5.33
4.89
4.22
3.60
3.24
3.12
3.08
2.89
2.42
1.70
0.92
0.21
-0.28
-0.60
-0.82
-1.09
-1.53
-2.29
-3.47
-5.08
-7.03
-9.04
-10.65
-11.36
-10.75
-8.68
-5.37
-1.42
2.44
5.52
7.46
8.37
8.60
8.63
8.71
8.81
8.67
8.06
6.93
5.45
3.97
2.80
2.07
1.79
1.84
2.14
2.65
3.33
4.07
4.73
5.09
5.02
4.50
3.62
2.53
1.38
0.29
-0.70
-1.61
-2.48
-3.31
-4.01
-4.48
-4.61
-4.40
-3.89
-3.28
-2.80
-2.65
-2.94
-3.60
-4.50
-5.47
-6.45
-7.48
-8.61
-9.93
-11.30
-12.52
-13.24
-13.22
-12.40
-10.95
-9.21
-7.49
-5.94
-4.50
-2.93
-1.07
1.10
3.33
5.20
6.34
6.56
5.95
4.86
3.67
2.66
1.93
1.46
1.19
1.08
1.20
1.57
2.23
3.06
3.90
4.69
5.34
5.91
6.41
6.86
7.15
7.20
6.86
6.03
4.76
3.17
1.50
0.04
-1.00
-1.57
-1.73
-1.69
-1.63
-1.65
-1.82
-2.11
-2.51
-3.00
-3.57
-4.04
-4.21
-3.85
-2.82
-1.15
0.90
2.93
4.56
5.53
5.80
5.50
4.89
4.18
3.51
2.87
2.12
1.14
-0.07
-1.32
-2.40
-3.09
-3.30
-3.10
-2.64
-2.09
-1.59
-1.21
-0.94
-0.81
-0.88
-1.19
-1.85
-2.80
-3.95
-5.11
-6.11
-6.78
-7.10
-7.07
-6.70
-6.02
-4.95
-3.41
-1.39
1.00
3.56
6.06
8.27
10.10
11.49
12.50
13.13
13.42
13.29
12.70
11.61
10.15
8.57
7.16
6.18
5.67
5.48
5.32
4.86
3.87
2.40
0.67
-1.00
-2.26
-2.97
-3.11
-2.84
-2.44
-2.26
-2.53
-3.34
-4.60
-6.12
-7.71
-9.26
-10.67
-11.82
-12.52
-12.46
-11.42
-9.33
-6.38
-2.95
0.53
3.71
6.41
8.60
10.28
11.41
11.98
12.01
11.61
10.98
10.34
9.87
9.64
9.59
9.53
9.22
8.42
6.97
4.90
2.37
-0.42
-3.31
-6.22
-9.13
-11.91
-14.28
-15.82
-16.22
-15.52
-14.17
-12.86
-12.17
-12.30
-12.99
-13.70
-13.86
-13.20
-11.79
-9.85
-7.66
-5.35
-3.00
-0.59
1.79
4.04
5.96
7.40
8.32
8.78
9.00
9.18
9.52
10.04
10.65
11.18
11.55
11.73
11.71
11.53
11.18
10.64
9.97
9.33
8.98
9.04
9.44
9.80
9.67
8.69
6.87
4.52
2.20
0.40
-0.62
-0.88
-0.63
-0.20
0.07
-0.07
-0.79
-2.19
-4.12
-6.21
-7.88
-8.56
-8.00
-6.39
-4.25
-2.15
-0.55
0.46
1.01
1.31
1.48
1.50
1.36
1.11
0.94
1.09
1.74
2.79
4.01
5.08
5.79
6.09
6.06
5.80
5.42
5.00
4.52
4.03
3.53
2.97
2.30
1.38
0.10
-1.49
-3.28
-5.06
-6.65
-7.94
-8.97
-9.78
-10.39
-10.84
-11.07
-11.07
-10.86
-10.51
-10.13
-9.83
-9.65
-9.65
-9.84
-10.23
-10.85
-11.70
-12.70
-13.59
-14.07
-13.78
-12.56
-10.45
-7.81
-5.11
-2.79
-1.09
-0.04
0.51
0.76
0.87
0.97
1.13
1.35
1.61
1.84
1.97
1.96
1.86
1.77
1.77
2.00
2.45
3.11
3.85
4.52
4.89
4.83
4.34
3.53
2.62
1.80
1.19
0.79
0.56
0.42
0.30
0.11
-0.28
-0.96
-1.95
-3.07
-4.00
-4.50
-4.48
-4.08
-3.61
-3.42
-3.68
-4.46
-5.61
-6.95
-8.23
-9.22
-9.67
-9.38
-8.31
-6.53
-4.31
-1.99
0.12
1.79
2.97
3.79
4.41
4.95
5.41
5.70
5.70
5.40
4.88
4.34
4.01
3.97
4.19
4.52
4.76
4.90
5.04
5.30
5.74
6.26
6.58
6.47
5.81
4.69
3.37
2.20
1.33
0.81
0.46
0.06
-0.52
-1.26
-2.09
-2.88
-3.52
-4.00
-4.28
-4.38
-4.31
-4.09
-3.87
-3.87
-4.28
-5.15
-6.33
-7.47
-8.09
-7.91
-6.82
-5.05
-2.97
-0.98
0.58
1.58
2.02
1.96
1.51
0.89
0.29
-0.05
0.04
0.57
1.36
2.19
2.81
3.14
3.36
3.72
4.42
5.58
7.05
8.56
9.83
10.60
10.72
10.24
9.28
8.03
6.74
5.62
4.84
4.45
4.39
4.60
4.94
5.28
5.50
5.45
5.06
4.29
3.29
2.27
1.49
1.07
0.96
0.93
0.72
0.15
-0.81
-2.01
-3.26
-4.33
-5.07
-5.40
-5.31
-4.84
-4.14
-3.37
-2.72
-2.41
-2.54
-3.06
-3.82
-4.63
-5.38
-6.09
-6.87
-7.80
-8.89
-9.96
-10.78
-11.13
-10.89
-10.10
-8.87
-7.38
-5.70
-3.86
-1.90
0.06
1.79
3.11
3.89
4.15
4.07
3.87
3.72
3.73
3.88
4.07
4.20
4.15
3.82
3.22
2.38
1.38
0.36
-0.56
-1.37
-2.03
-2.58
-3.07
-3.43
-3.72
-3.92
-4.07
-4.14
-4.10
-3.86
-3.34
-2.47
-1.24
0.20
1.63
2.80
3.50
3.73
3.65
3.49
3.48
3.69
4.01
4.23
4.21
3.89
3.43
3.03
2.80
2.71
2.66
2.45
2.03
1.47
0.86
0.37
-0.01
-0.35
-0.74
-1.15
-1.51
-1.66
-1.45
-0.94
-0.27
0.29
0.58
0.52
0.17
-0.36
-0.95
-1.50
-2.04
-2.61
-3.31
-4.17
-5.15
-6.10
-6.81
-7.06
-6.68
-5.64
-4.05
-2.16
-0.24
1.46
2.72
3.46
3.69
3.51
3.04
2.43
1.77
1.15
0.66
0.38
0.38
0.69
1.28
2.00
2.74
3.39
3.99
4.61
5.29
6.01
6.60
6.83
6.46
5.46
3.94
2.19
0.54
-0.78
-1.71
-2.37
-2.90
-3.41
-3.88
-4.26
-4.45
-4.47
-4.42
-4.40
-4.56
-4.88
-5.32
-5.80
-6.31
-6.88
-7.58
-8.41
-9.24
-9.86
-10.01
-9.52
-8.35
-6.59
-4.41
-2.04
0.23
2.18
3.64
4.56
5.05
5.27
5.45
5.68
6.02
6.42
6.82
7.23
7.70
8.19
8.62
8.85
8.74
8.24
7.40
6.31
5.11
3.90
2.77
1.77
0.94
0.26
-0.32
-0.85
-1.32
-1.75
-2.17
-2.59
-3.09
-3.70
-4.35
-4.92
-5.28
-5.37
-5.27
-5.14
-5.12
-5.23
-5.40
-5.53
-5.60
-5.73
-6.07
-6.65
-7.32
-7.78
-7.66
-6.81
-5.27
-3.29
-1.23
0.61
2.06
3.06
3.57
3.52
2.86
1.67
0.15
-1.36
-2.54
-3.19
-3.29
-2.99
-2.47
-1.91
-1.34
-0.77
-0.16
0.46
1.09
1.78
2.67
3.96
5.75
7.99
10.50
12.94
14.99
16.42
17.04
16.79
15.70
13.79
11.26
8.37
5.44
2.78
0.59
-1.01
-2.01
-2.53
-2.86
-3.38
-4.44
-6.29
-8.74
-11.30
-13.27
-14.10
-13.63
-12.16
-10.27
-8.44
-6.90
-5.53
-4.07
-2.39
-0.57
1.10
2.34
3.01
3.17
2.97
2.61
2.25
1.93
1.74
1.68
1.81
2.12
2.64
3.38
4.32
5.42
6.49
7.42
8.02
8.29
8.21
7.88
7.37
6.77
6.11
5.33
4.42
3.35
2.15
0.89
-0.32
-1.37
-2.24
-2.92
-3.61
-4.42
-5.43
-6.55
-7.49
-7.96
-7.69
-6.64
-4.91
-2.83
-0.75
0.96
2.09
2.63
2.69
2.46
2.08
1.68
1.34
1.15
1.12
1.26
1.53
1.76
1.84
1.67
1.29
0.78
0.25
-0.23
-0.64
-0.98
-1.26
-1.44
-1.52
-1.54
-1.60
-1.79
-2.11
-2.52
-2.92
-3.22
-3.32
-3.27
-3.21
-3.29
-3.65
-4.31
-5.20
-6.08
-6.71
-6.83
-6.32
-5.16
-3.42
-1.34
0.87
2.88
4.51
5.64
6.24
6.42
6.32
6.11
5.86
5.61
5.33
4.93
4.35
3.55
2.58
1.57
0.74
0.29
0.26
0.51
0.71
0.55
-0.11
-1.12
-2.20
-3.09
-3.71
-4.15
-4.61
-5.21
-5.83
-6.28
-6.32
-5.96
-5.45
-5.21
-5.64
-6.82
-8.48
-10.03
-10.83
-10.49
-8.98
-6.68
-4.13
-1.81
0.03
1.35
2.28
2.95
3.49
3.92
4.19
4.23
3.98
3.46
2.77
2.10
1.66
1.60
1.93
2.44
2.97
3.32
3.49
3.51
3.41
3.21
2.88
2.46
2.02
1.67
1.46
1.40
1.39
1.27
0.90
0.22
-0.76
-2.02
-3.53
-5.24
-7.10
-8.96
-10.57
-11.70
-12.13
-11.73
-10.53
-8.66
-6.35
-3.88
-1.39
1.02
3.32
5.43
7.25
8.65
9.53
9.81
9.45
8.57
7.37
6.15
5.17
4.65
4.61
4.97
5.50
5.99
6.27
6.24
5.84
5.09
3.99
2.58
0.99
-0.64
-2.15
-3.48
-4.61
-5.62
-6.55
-7.40
-8.16
-8.79
-9.19
-9.30
-9.16
-8.87
-8.69
-8.84
-9.44
-10.44
-11.52
-12.22
-12.08
-10.87
-8.57
-5.53
-2.17
1.07
3.93
6.25
7.93
8.92
9.18
8.77
7.88
6.81
5.92
5.37
5.16
5.04
4.80
4.37
3.95
3.79
4.09
4.86
5.79
6.58
6.95
6.77
6.10
5.12
3.98
2.75
1.56
0.40
-0.64
-1.54
-2.37
-3.25
-4.25
-5.37
-6.52
-7.64
-8.63
-9.53
-10.41
-11.32
-12.23
-12.98
-13.34
-13.06
-11.95
-10.05
-7.53
-4.71
-1.89
0.75
3.06
5.00
6.60
7.84
8.66
8.94
8.64
7.78
6.54
5.19
3.98
3.13
2.69
2.63
2.86
3.25
3.71
4.19
4.66
5.08
5.39
5.48
5.21
4.55
3.53
2.28
1.01
-0.11
-0.94
-1.52
-1.91
-2.24
-2.62
-3.13
-3.81
-4.68
-5.68
-6.74
-7.71
-8.41
-8.62
-8.21
-7.11
-5.33
-2.98
-0.20
2.78
5.75
8.41
10.57
11.98
12.47
12.01
10.64
8.64
6.38
4.32
2.80
2.00
1.86
2.21
2.78
3.33
3.75
3.96
3.93
3.59
2.90
1.83
0.47
-1.02
-2.48
-3.77
-4.84
-5.82
-6.82
-7.98
-9.38
-10.93
-12.35
-13.26
-13.25
-12.05
-9.72
-6.58
-3.19
-0.09
2.33
3.97
4.96
5.50
5.74
5.78
5.62
5.33
5.01
4.80
4.78
4.96
5.28
5.62
5.92
6.09
6.03
5.67
5.00
4.06
2.95
1.81
0.71
-0.28
-1.17
-1.96
-2.68
-3.30
-3.84
-4.40
-5.08
-6.01
-7.23
-8.68
-10.18
-11.51
-12.48
-12.93
-12.75
-11.88
-10.31
-8.09
-5.37
-2.40
0.53
3.12
5.17
6.61
7.47
7.84
7.80
7.41
6.79
6.10
5.49
5.12
5.04
5.19
5.48
5.75
5.87
5.82
5.57
5.13
4.54
3.80
2.88
1.80
0.52
-0.93
-2.49
-4.06
-5.50
-6.68
-7.53
-8.08
-8.46
-8.84
-9.34
-10.02
-10.81
-11.52
-11.87
-11.60
-10.54
-8.69
-6.27
-3.65
-1.16
0.90
2.49
3.73
4.84
6.00
7.24
8.41
9.25
9.63
9.54
9.16
8.69
8.34
8.14
7.99
7.77
7.32
6.68
5.94
5.25
4.70
4.33
4.07
3.87
3.73
3.64
3.61
3.60
3.56
3.43
3.13
2.62
1.88
0.93
-0.16
-1.32
-2.50
-3.74
-5.11
-6.71
-8.48
-10.27
-11.68
-12.29
-11.79
-10.13
-7.52
-4.36
-1.09
1.96
4.56
6.59
7.94
8.65
8.75
8.40
7.73
6.89
5.96
5.02
4.14
3.34
2.75
2.45
2.49
2.90
3.65
4.69
5.96
7.26
8.37
9.02
9.07
8.46
7.28
5.66
3.83
2.05
0.60
-0.33
-0.60
-0.34
0.15
0.44
0.07
-1.17
-3.17
-5.56
-7.89
-9.67
-10.62
-10.62
-9.71
-8.05
-5.88
-3.48
-1.10
1.11
3.07
4.79
6.27
7.42
8.08
8.12
7.50
6.39
5.13
4.13
3.66
3.88
4.62
5.60
6.49
7.11
7.37
7.36
7.08
6.46
5.39
3.82
1.87
-0.19
-1.95
-3.15
-3.75
-3.95
-4.08
-4.34
-4.86
-5.59
-6.49
-7.56
-8.76
-10.02
-11.13
-11.76
-11.58
-10.43
-8.40
-5.84
-3.26
-1.09
0.47
1.51
2.26
3.03
3.91
4.81
5.45
5.56
5.07
4.21
3.43
3.18
3.70
4.96
6.69
8.46
9.89
10.71
10.85
10.37
9.42
8.21
6.87
5.42
3.82
2.03
0.12
-1.71
-3.20
-4.17
-4.59
-4.70
-4.84
-5.35
-6.44
-8.05
-9.96
-11.79
-13.15
-13.68
-13.23
-11.79
-9.60
-7.03
-4.50
-2.31
-0.67
0.44
1.22
1.87
2.59
3.49
4.54
5.63
6.70
7.66
8.48
9.12
9.55
9.71
9.59
9.19
8.61
7.97
7.41
6.99
6.71
6.49
6.22
5.79
5.12
4.27
3.29
2.33
1.49
0.77
0.11
-0.51
-1.06
-1.43
-1.54
-1.46
-1.41
-1.73
-2.72
-4.42
-6.58
-8.72
-10.31
-10.99
-10.66
-9.46
-7.63
-5.45
-3.15
-0.86
1.26
3.16
4.85
6.36
7.70
8.76
9.35
9.33
8.65
7.51
6.19
5.02
4.16
3.61
3.30
3.15
3.16
3.30
3.58
3.91
4.20
4.41
4.54
4.59
4.51
4.23
3.62
2.72
1.65
0.57
-0.49
-1.60
-2.87
-4.30
-5.78
-7.05
-7.87
-8.15
-7.97
-7.65
-7.50
-7.78
-8.55
-9.70
-10.89
-11.77
-11.97
-11.23
-9.50
-6.93
-3.83
-0.59
2.46
5.17
7.46
9.36
10.90
12.10
12.92
13.30
13.17
12.55
11.53
10.26
8.90
7.66
6.68
6.02
5.61
5.31
5.00
4.58
4.03
3.39
2.71
1.96
1.15
0.28
-0.61
-1.35
-1.81
-1.90
-1.67
-1.24
-0.88
-0.72
-0.85
-1.26
-1.90
-2.74
-3.86
-5.26
-6.91
-8.64
-10.15
-11.19
-11.60
-11.32
-10.40
-9.00
-7.21
-5.25
-3.30
-1.57
-0.20
0.75
1.40
1.93
2.52
3.27
4.10
4.91
5.57
5.99
6.11
5.92
5.45
4.80
4.09
3.40
2.75
2.11
1.40
0.60
-0.21
-0.82
-1.03
-0.80
-0.21
0.46
0.94
1.02
0.71
0.18
-0.38
-0.85
-1.23
-1.65
-2.27
-3.16
-4.27
-5.51
-6.74
-7.83
-8.69
-9.19
-9.19
-8.61
-7.40
-5.68
-3.67
-1.64
0.14
1.56
2.54
3.16
3.48
3.61
3.71
3.84
4.05
4.24
4.30
4.17
3.88
3.54
3.23
2.98
2.67
2.17
1.36
0.28
-0.93
-2.10
-3.16
-4.17
-5.27
-6.55
-7.98
-9.41
-10.63
-11.45
-11.82
-11.79
-11.51
-11.04
-10.39
-9.47
-8.14
-6.30
-4.03
-1.56
0.75
2.59
3.75
4.23
4.19
3.81
3.19
2.38
1.41
0.35
-0.58
-1.16
-1.30
-1.08
-0.70
-0.42
-0.37
-0.48
-0.58
-0.48
-0.08
0.56
1.31
2.02
2.55
2.83
2.85
2.59
2.03
1.20
0.14
-1.03
-2.15
-3.10
-3.90
-4.64
-5.43
-6.37
-7.40
-8.37
-9.01
-9.12
-8.59
-7.43
-5.82
-3.94
-2.01
-0.22
1.23
2.25
2.84
3.10
3.20
3.21
3.10
2.74
2.04
1.01
-0.20
-1.39
-2.42
-3.30
-4.20
-5.25
-6.45
-7.59
-8.39
-8.68
-8.49
-8.07
-7.66
-7.36
-6.93
-5.94
-3.91
-0.53
4.12
9.53
14.87
19.27
22.04
22.87
21.90
19.52
16.29
12.71
9.19
6.03
3.46
1.70
0.82
0.75
1.25
2.00
2.70
3.21
3.49
3.60
3.62
3.58
3.48
3.33
3.19
3.07
2.93
2.68
2.13
1.24
0.08
-1.13
-2.10
-2.68
-2.86
-2.78
-2.65
-2.53
-2.41
-2.13
-1.63
-0.95
-0.26
0.28
0.57
0.62
0.50
0.28
-0.07
-0.59
-1.36
-2.32
-3.40
-4.47
-5.52
-6.55
-7.61
-8.67
-9.60
-10.16
-10.12
-9.27
-7.61
-5.37
-2.92
-0.70
0.98
1.96
2.29
2.18
1.82
1.37
0.85
0.24
-0.43
-1.02
-1.29
-1.09
-0.41
0.52
1.40
2.02
2.37
2.60
2.86
3.28
3.77
4.21
4.45
4.52
4.50
4.53
4.62
4.71
4.70
4.48
4.05
3.48
2.86
2.28
1.79
1.35
0.88
0.29
-0.44
-1.32
-2.22
-2.99
-3.42
-3.37
-2.83
-1.87
-0.66
0.63
1.86
3.01
4.00
4.78
5.24
5.21
4.60
3.46
2.05
0.77
-0.02
-0.16
0.25
0.90
1.43
1.67
1.62
1.37
1.07
0.75
0.41
0.04
-0.28
-0.43
-0.30
0.11
0.63
1.10
1.31
1.22
0.86
0.33
-0.33
-1.14
-2.20
-3.58
-5.17
-6.74
-7.97
-8.60
-8.45
-7.53
-6.02
-4.12
-2.05
0.07
2.08
3.80
4.97
5.45
5.14
4.22
3.05
2.03
1.53
1.65
2.32
3.32
4.42
5.46
6.35
7.05
7.52
7.78
7.90
7.97
8.13
8.42
8.77
9.01
8.95
8.45
7.54
6.41
5.23
4.18
3.41
2.98
2.97
3.39
4.22
5.34
6.56
7.62
8.46
9.28
10.49
12.59
15.92
20.43
25.70
31.04
35.82
39.59
42.32
44.23
45.72
47.16
48.73
50.44
52.10
53.40
53.99
53.63
52.21
49.87
47.01
44.29
42.58
42.63
44.86
48.98
53.96
58.33
60.57
59.71
55.71
49.26
41.34
32.60
22.98
11.81
-1.53
-16.91
-33.15
-48.20
-59.95
-67.11
-69.78
-69.40
-68.20
-68.18
-70.25
-73.90
-77.60
-79.43
-77.99
-72.82
-64.44
-54.12
-43.29
-33.38
-25.61
-21.05
-20.44
-23.82
-30.13
-37.35
-43.05
-45.59
-45.03
-43.40
-43.68
-48.40
-58.32
-72.04
-86.74
-99.28
-107.30
-109.62
-106.15
-97.44
-84.57
-69.03
-52.82
-38.05
-26.58
-19.49
-17.03
-18.89
-24.49
-33.09
-43.48
-53.75
-61.42
-64.07
-60.68
-52.09
-41.01
-30.71
-23.46
-19.49
-17.17
-14.50
-10.54
-6.19
-3.31
-3.32
-6.16
-10.53
-15.08
-19.48
-24.51
-31.27
-39.93
-49.11
-56.54
-60.07
-58.58
-52.13
-41.24
-26.28
-7.31
15.33
40.42
65.51
87.57
104.01
113.57
116.67
115.05
110.96
106.21
101.52
96.43
89.89
81.26
70.93
60.48
51.83
46.32
43.91
43.22
42.20
39.13
33.29
25.01
15.38
5.57
-3.50
-11.35
-17.70
-22.38
-25.09
-25.43
-23.11
-18.12
-11.04
-3.00
4.48
10.04
12.97
13.66
13.57
14.65
18.52
25.89
36.34
48.64
61.31
72.90
82.08
87.33
87.03
79.83
65.38
44.92
21.30
-1.66
-20.28
-32.00
-35.97
-32.91
-24.62
-13.32
-1.35
8.98
15.54
16.58
11.20
-0.23
-15.96
-33.26
-49.23
-61.73
-69.94
-74.27
-75.87
-75.73
-74.27
-71.34
-66.70
-60.57
-53.69
-46.95
-40.83
-35.09
-29.19
-22.89
-16.91
-12.76
-12.20
-16.02
-23.43
-32.19
-39.31
-42.40
-40.36
-33.50
-22.86
-9.46
6.19
23.80
42.87
62.20
79.88
93.90
102.84
106.46
105.64
101.85
96.34
89.73
82.06
73.23
63.42
53.34
43.85
35.60
28.68
22.67
17.06
11.60
6.53
2.41
-0.04
-0.40
1.38
4.98
9.73
14.82
19.35
22.49
23.60
22.34
18.72
13.11
6.19
-1.23
-8.17
-13.87
-17.74
-19.59
-19.56
-18.08
-15.73
-13.10
-10.74
-9.03
-8.19
-8.29
-9.27
-10.89
-12.83
-14.77
-16.44
-17.83
-19.07
-20.38
-22.03
-24.12
-26.58
-29.11
-31.36
-32.92
-33.57
-33.25
-32.29
-31.25
-30.69
-30.94
-31.82
-32.64
-32.55
-31.02
-28.20
-24.90
-22.18
-20.72
-20.49
-20.80
-20.67
-19.37
-16.64
-12.81
-8.44
-4.40
-1.72
-1.66
-5.38
-13.32
-24.45
-36.20
-45.02
-47.60
-42.29
-29.71
-12.55
5.60
21.70
34.09
42.65
48.18
51.64
53.52
53.94
52.84
50.44
47.45
44.93
43.89
44.82
47.45
50.75
53.48
54.70
54.11
52.12
49.19
45.43
40.30
32.94
22.80
10.31
-2.97
-14.94
-23.84
-29.13
-31.59
-32.81
-34.26
-36.60
-39.37
-41.36
-41.30
-38.38
-32.62
-24.66
-15.57
-6.59
0.97
5.96
7.59
5.85
1.61
-3.54
-7.72
-9.52
-8.41
-4.70
0.68
6.77
12.98
19.11
25.12
30.83
35.81
39.46
41.42
41.72
40.82
39.42
38.13
37.30
36.88
36.58
35.94
34.57
32.20
28.82
24.51
19.53
14.18
8.75
3.51
-1.40
-5.92
-10.09
-13.99
-17.73
-21.43
-25.17
-28.99
-32.80
-36.46
-39.74
-42.38
-44.16
-44.96
-44.75
-43.63
-41.82
-39.53
-36.96
-34.19
-31.19
-27.90
-24.34
-20.67
-17.27
-14.70
-13.50
-13.99
-16.05
-19.03
-21.88
-23.44
-22.91
-20.15
-15.72
-10.60
-5.78
-1.88
0.98
3.05
4.66
6.00
7.10
7.87
8.33
8.54
8.67
8.87
9.15
9.42
9.50
9.27
8.72
7.95
7.22
6.74
6.70
7.08
7.71
8.26
8.42
8.01
7.01
5.61
4.07
2.68
1.59
0.86
0.42
0.14
-0.06
-0.23
-0.32
-0.26
-0.03
0.33
0.73
1.06
1.22
1.25
1.26
1.45
2.02
3.02
4.37
5.87
7.27
8.42
9.25
9.81
10.24
10.57
10.81
10.85
10.66
10.25
9.73
9.36
9.41
10.14
11.65
13.87
16.47
19.09
21.43
23.38
25.01
26.46
27.81
29.06
30.16
31.14
32.09
33.12
34.21
35.12
35.36
34.39
31.76
27.28
20.98
13.11
4.04
-5.67
-15.26
-23.76
-30.19
-33.72
-34.03
-31.33
-26.33
-20.05
-13.64
-8.19
-4.67
-3.81
-6.00
-11.19
-19.00
-28.86
-40.09
-51.97
-63.56
-73.57
-80.61
-83.61
-82.24
-77.24
-70.09
-62.41
-55.25
-48.81
-42.79
-36.82
-31.01
-25.87
-22.07
-19.91
-19.11
-18.97
-18.65
-17.46
-15.06
-11.43
-6.89
-1.99
2.55
6.12
8.43
9.64
10.31
11.07
12.35
14.15
15.97
17.01
16.56
14.15
9.70
3.63
-3.26
-9.83
-14.80
-17.14
-16.34
-12.70
-7.34
-1.80
2.46
4.57
4.57
3.33
2.08
1.90
3.30
6.10
9.66
13.31
16.58
19.23
21.05
21.83
21.30
19.40
16.39
12.94
9.83
7.61
6.42
5.91
5.57
5.12
4.66
4.66
5.62
7.73
10.76
14.19
17.32
19.60
20.72
20.63
19.48
17.55
15.25
13.02
11.26
10.28
10.19
10.82
11.88
13.00
13.89
14.44
14.70
14.78
14.70
14.38
13.68
12.51
11.06
9.63
8.61
8.19
8.27
8.45
8.27
7.44
6.00
4.30
2.73
1.56
0.75
0.02
-1.05
-2.84
-5.53
-9.01
-12.90
-16.74
-20.07
-22.57
-24.18
-25.00
-25.31
-25.47
-25.78
-26.42
-27.27
-28.07
-28.42
-28.02
-26.77
-24.89
-22.82
-20.97
-19.51
-18.22
-16.61
-14.08
-10.15
-4.66
2.16
9.75
17.40
24.23
29.41
32.13
31.69
27.83
20.81
11.48
1.15
-8.79
-17.27
-23.58
-27.30
-28.06
-25.40
-19.05
-9.31
2.65
14.90
25.27
32.22
35.37
35.47
33.93
31.94
30.07
28.18
25.66
22.04
17.30
11.93
6.75
2.50
-0.50
-2.40
-3.76
-5.14
-6.84
-8.66
-10.08
-10.61
-10.12
-9.09
-8.31
-8.45
-9.67
-11.59
-13.56
-15.12
-16.18
-16.97
-17.79
-18.76
-19.86
-21.02
-22.32
-23.94
-26.06
-28.57
-31.02
-32.87
-33.74
-33.60
-32.78
-31.60
-30.16
-28.23
-25.48
-21.65
-16.68
-10.77
-4.24
2.54
9.21
15.39
20.73
25.04
28.50
31.75
35.76
41.33
48.74
57.50
66.37
74.05
79.47
82.13
82.11
79.67
75.03
68.34
59.85
50.09
39.91
30.26
21.86
14.91
9.20
4.30
-0.02
-3.70
-6.43
-7.97
-8.40
-8.13
-7.78
-7.96
-8.91
-10.45
-12.14
-13.46
-14.07
-13.93
-13.29
-12.47
-11.84
-11.56
-11.60
-11.84
-12.19
-12.58
-12.97
-13.32
-13.46
-13.19
-12.25
-10.59
-8.34
-5.80
-3.29
-1.08
0.71
2.08
3.06
3.71
4.14
4.47
4.89
5.45
6.11
6.68
6.98
6.87
6.54
6.35
6.77
8.16
10.55
13.59
16.73
19.47
21.49
22.86
23.86
24.83
25.96
27.11
27.88
27.77
26.35
23.30
18.61
12.41
4.96
-3.31
-11.98
-20.71
-29.25
-37.57
-45.68
-53.53
-60.96
-67.68
-73.36
-77.90
-81.38
-84.02
-85.94
-87.13
-87.36
-86.63
-85.12
-83.31
-81.81
-81.08
-81.32
-82.56
-84.68
-87.35
-90.15
-92.33
-92.96
-91.15
-86.32
-78.32
-67.48
-54.28
-39.11
-22.31
-4.01
15.59
36.07
56.87
77.40
97.06
115.26
131.22
143.85
151.98
154.71
151.84
144.11
133.17
121.14
109.97
100.92
94.25
89.43
85.51
81.52
76.81
71.03
64.09
56.12
47.38
38.28
29.37
21.09
13.73
7.39
1.89
-3.04
-7.57
-11.79
-15.62
-18.90
-21.46
-23.16
-23.89
-23.63
-22.47
-20.70
-18.73
-17.13
-16.41
-16.83
-18.29
-20.38
-22.52
-24.19
-25.01
-24.80
-23.63
-21.67
-19.25
-16.78
-14.67
-13.22
-12.46
-12.17
-11.93
-11.45
-10.57
-9.46
-8.32
-7.39
-6.73
-6.31
-6.05
-5.86
-5.75
-5.67
-5.56
-5.27
-4.76
-4.03
-3.20
-2.37
-1.60
-0.98
-0.52
-0.31
-0.37
-0.65
-1.01
-1.26
-1.28
-1.05
-0.66
-0.18
0.35
0.93
1.56
2.15
2.53
2.49
1.97
1.10
0.10
-0.78
-1.43
-1.84
-2.13
-2.36
-2.65
-2.97
-3.33
-3.69
-4.06
-4.46
-4.87
-5.22
-5.45
-5.48
-5.22
-4.58
-3.48
-1.98
-0.22
1.60
3.25
4.56
5.41
5.78
5.69
5.26
4.58
3.70
2.65
1.46
0.15
-1.23
-2.50
-3.43
-3.82
-3.61
-2.94
-2.11
-1.42
-1.07
-0.98
-0.96
-0.79
-0.37
0.20
0.64
0.73
0.35
-0.34
-1.05
-1.55
-1.75
-1.79
-1.89
-2.23
-2.85
-3.61
-4.29
-4.67
-4.65
-4.24
-3.53
-2.50
-1.16
0.41
2.05
3.52
4.61
5.19
5.36
5.30
5.16
5.02
4.82
4.44
3.76
2.79
1.54
0.21
-1.02
-2.04
-2.78
-3.24
-3.49
-3.63
-3.74
-3.84
-3.90
-3.90
-3.81
-3.63
-3.36
-3.01
-2.53
-1.91
-1.10
-0.16
0.84
1.74
2.38
2.56
2.15
1.21
-0.08
-1.34
-2.20
-2.41
-2.01
-1.22
-0.42
0.15
0.44
0.53
0.62
0.77
0.96
1.12
1.27
1.50
1.94
2.64
3.46
4.11
4.27
3.76
2.64
1.20
-0.19
-1.22
-1.69
-1.58
-1.03
-0.19
0.62
1.18
1.28
0.89
0.16
-0.68
-1.48
-2.18
-2.82
-3.52
-4.30
-5.06
-5.74
-6.33
-6.88
-7.55
-8.38
-9.25
-9.93
-10.16
-9.77
-8.82
-7.44
-5.74
-3.74
-1.24
1.88
5.59
9.55
13.28
16.19
18.04
18.84
18.88
18.46
17.64
16.26
14.16
11.37
8.19
5.20
2.94
1.64
1.12
0.92
0.53
-0.38
-1.75
-3.33
-4.77
-5.82
-6.42
-6.72
-6.95
-7.29
-7.90
-8.72
-9.59
-10.35
-10.84
-11.07
-11.15
-11.28
-11.62
-12.25
-13.03
-13.64
-13.64
-12.59
-10.25
-6.65
-2.20
2.47
6.62
9.68
11.39
11.76
11.09
9.66
7.66
5.15
2.11
-1.44
-5.31
-9.21
-12.73
-15.25
-16.13
-14.72
-10.63
-4.02
4.32
13.04
20.62
25.78
27.81
26.73
23.07
17.69
11.39
4.97
-0.88
-5.65
-9.03
-11.02
-11.96
-12.36
-12.74
-13.46
-14.43
-15.10
-14.62
-12.10
-6.98
0.62
9.77
19.05
26.82
31.86
33.62
32.29
28.62
23.52
17.85
12.23
7.19
3.05
-0.04
-2.14
-3.57
-4.67
-5.77
-7.07
-8.58
-10.04
-11.11
-11.40
-10.66
-8.89
-6.28
-3.23
-0.25
2.25
4.02
4.95
5.12
4.72
3.89
2.77
1.45
0.02
-1.46
-2.83
-3.99
-4.80
-5.20
-5.27
-5.18
-5.13
-5.27
-5.61
-6.04
-6.41
-6.56
-6.32
-5.63
-4.49
-3.02
-1.44
-0.06
0.90
1.32
1.31
1.11
0.97
1.06
1.38
1.77
2.10
2.30
2.37
2.34
2.22
1.95
1.56
1.10
0.68
0.38
0.27
0.28
0.35
0.41
0.42
0.45
0.53
0.66
0.79
0.92
0.99
0.97
0.82
0.48
-0.04
-0.70
-1.39
-2.00
-2.50
-2.96
-3.46
-4.04
-4.56
-4.81
-4.57
-3.85
-2.89
-2.06
-1.67
-1.76
-2.16
-2.56
-2.67
-2.37
-1.73
-0.94
-0.25
0.21
0.37
0.34
0.19
-0.01
-0.29
-0.73
-1.33
-2.02
-2.60
-2.81
-2.47
-1.56
-0.26
1.09
2.22
2.99
3.48
3.81
4.09
4.29
4.25
3.83
3.03
2.03
1.10
0.49
0.31
0.45
0.60
0.47
-0.16
-1.24
-2.54
-3.71
-4.47
-4.65
-4.33
-3.75
-3.21
-2.87
-2.76
-2.71
-2.50
-2.02
-1.31
-0.62
-0.23
-0.32
-0.85
-1.59
-2.29
-2.76
-3.03
-3.21
-3.40
-3.57
-3.52
-3.03
-1.98
-0.40
1.43
3.16
4.40
4.92
4.67
3.75
2.35
0.70
-0.92
-2.26
-3.08
-3.20
-2.60
-1.44
-0.08
1.04
1.57
1.41
0.74
-0.18
-1.00
-1.61
-2.03
-2.34
-2.57
-2.63
-2.37
-1.67
-0.57
0.80
2.16
3.27
3.96
4.18
4.00
3.59
3.13
2.76
2.57
2.51
2.51
2.51
2.45
2.33
2.09
1.74
1.24
0.65
0.09
-0.28
-0.22
0.35
1.41
2.77
4.19
5.38
6.11
6.30
5.96
5.28
4.43
3.62
2.95
2.42
1.94
1.34
0.52
-0.54
-1.76
-3.01
-4.01
-4.62
-4.78
-4.54
-4.12
-3.72
-3.48
-3.46
-3.64
-3.93
-4.27
-4.70
-5.26
-5.96
-6.64
-7.07
-6.97
-6.13
-4.56
-2.50
-0.34
1.52
2.80
3.46
3.60
3.44
3.25
3.19
3.32
3.64
4.10
4.57
4.93
5.04
4.81
4.28
3.59
2.97
2.59
2.57
2.76
2.90
2.74
2.08
0.91
-0.62
-2.27
-3.80
-5.04
-5.90
-6.39
-6.50
-6.29
-5.81
-5.13
-4.36
-3.63
-3.16
-3.09
-3.43
-4.03
-4.65
-5.03
-5.01
-4.56
-3.79
-2.76
-1.56
-0.22
1.17
2.40
3.35
3.94
4.28
4.57
5.01
5.63
6.26
6.67
6.66
6.25
5.58
4.79
4.01
3.24
2.44
1.63
0.91
0.36
0.04
-0.17
-0.43
-0.83
-1.29
-1.66
-1.78
-1.62
-1.37
-1.22
-1.35
-1.76
-2.31
-2.89
-3.40
-3.87
-4.31
-4.74
-5.02
-4.95
-4.39
-3.29
-1.85
-0.37
0.86
1.64
1.96
1.97
1.92
2.04
2.40
2.91
3.44
3.84
4.09
4.20
4.23
4.14
3.87
3.35
2.63
1.88
1.34
1.15
1.32
1.64
1.81
1.58
0.96
0.16
-0.48
-0.75
-0.69
-0.49
-0.45
-0.70
-1.14
-1.49
-1.46
-1.02
-0.39
0.01
-0.19
-1.13
-2.54
-3.94
-4.79
-4.81
-4.00
-2.65
-1.16
0.17
1.18
1.93
2.50
2.97
3.25
3.23
2.77
1.87
0.67
-0.53
-1.46
-1.90
-1.83
-1.39
-0.80
-0.33
-0.11
-0.14
-0.24
-0.13
0.31
1.03
1.74
2.16
2.07
1.47
0.62
-0.23
-0.90
-1.38
-1.81
-2.27
-2.72
-3.01
-3.00
-2.71
-2.34
-2.20
-2.50
-3.23
-4.24
-5.23
-5.88
-5.98
-5.42
-4.28
-2.75
-1.13
0.34
1.47
2.27
2.87
3.41
3.90
4.23
4.21
3.75
2.89
1.88
0.95
0.22
-0.37
-0.96
-1.57
-2.19
-2.60
-2.64
-2.24
-1.47
-0.49
0.46
1.25
1.81
2.11
2.27
2.35
2.44
2.63
2.91
3.16
3.15
2.66
1.58
0.05
-1.64
-3.13
-4.01
-4.12
-3.43
-2.11
-0.47
1.17
2.54
3.43
3.66
3.33
2.54
1.60
0.74
0.08
-0.46
-0.97
-1.54
-2.12
-2.49
-2.45
-1.87
-0.86
0.30
1.32
2.03
2.45
2.63
2.70
2.59
2.35
2.00
1.55
1.14
0.84
0.69
0.60
0.47
0.10
-0.61
-1.70
-3.19
-4.93
-6.74
-8.40
-9.68
-10.38
-10.36
-9.51
-7.78
-5.29
-2.33
0.68
3.32
5.26
6.38
6.76
6.61
6.28
6.04
6.12
6.53
7.16
7.80
8.20
8.15
7.64
6.79
5.77
4.77
3.81
2.92
2.12
1.42
0.83
0.31
-0.23
-0.85
-1.51
-2.09
-2.40
-2.31
-1.79
-1.03
-0.25
0.33
0.62
0.61
0.31
-0.29
-1.20
-2.32
-3.42
-4.16
-4.25
-3.59
-2.40
-1.10
-0.14
0.23
0.11
-0.12
-0.09
0.42
1.35
2.38
3.18
3.55
3.46
2.97
2.19
1.14
-0.09
-1.32
-2.35
-2.88
-2.83
-2.28
-1.53
-0.84
-0.39
-0.12
-0.00
-0.00
-0.19
-0.64
-1.33
-2.15
-2.88
-3.37
-3.57
-3.58
-3.52
-3.49
-3.54
-3.72
-4.06
-4.60
-5.30
-6.01
-6.48
-6.47
-5.86
-4.69
-3.22
-1.65
-0.15
1.27
2.70
4.17
5.69
7.11
8.22
8.86
8.90
8.24
6.94
5.20
3.34
1.87
1.26
1.68
2.92
4.34
5.04
4.28
1.79
-2.19
-6.89
-11.39
-14.88
-16.77
-16.78
-14.89
-11.32
-6.54
-1.31
3.55
7.24
9.31
9.81
9.20
8.16
7.20
6.52
5.97
5.30
4.37
3.30
2.41
1.95
2.00
2.34
2.70
2.83
2.76
2.71
2.93
3.60
4.58
5.60
6.26
6.20
5.20
3.22
0.40
-3.10
-6.99
-11.08
-15.17
-19.22
-23.37
-27.93
-33.31
-39.97
-48.15
-57.72
-68.12
-78.41
-87.63
-95.16
-101.00
-105.78
-110.51
-116.11
-122.93
-130.43
-137.02
-140.30
-137.52
-126.32
-105.51
-75.66
-39.13
0.29
38.36
71.32
96.76
113.80
122.96
125.54
123.12
117.28
109.32
100.44
91.62
83.50
76.22
69.37
62.18
53.79
43.80
32.45
20.67
9.66
0.42
-6.61
-11.67
-15.39
-18.45
-21.11
-23.26
-24.56
-24.83
-24.26
-23.18
-21.71
-19.40
-15.34
-8.62
1.13
13.54
27.85
43.48
60.31
78.27
96.65
113.64
126.72
133.74
134.20
129.80
123.68
118.90
117.15
118.31
120.87
123.11
123.65
121.59
116.15
106.35
91.37
71.15
46.87
20.86
-4.11
-25.78
-42.97
-55.68
-64.68
-70.82
-74.73
-76.69
-76.81
-75.32
-72.66
-69.33
-65.76
-62.17
-58.54
-54.78
-50.82
-46.80
-42.93
-39.51
-36.75
-34.64
-33.07
-31.83
-30.72
-29.69
-28.68
-27.69
-26.71
-25.60
-24.20
-22.29
-19.69
-16.43
-12.68
-8.80
-5.16
-2.11
0.13
1.51
2.04
1.87
1.15
0.12
-0.96
-1.82
-2.25
-2.17
-1.63
-0.77
0.24
1.21
1.99
2.45
2.55
2.35
2.01
1.63
1.25
0.86
0.34
-0.33
-0.96
-1.29
-1.08
-0.24
0.99
2.15
2.78
2.64
1.84
0.79
-0.08
-0.49
-0.45
-0.17
0.11
0.31
0.56
1.09
2.07
3.50
5.22
6.97
8.54
9.86
10.93
11.79
12.49
12.93
13.05
12.81
12.20
11.32
10.27
9.17
8.04
6.90
5.76
4.70
3.84
3.34
3.23
3.39
3.54
3.36
2.59
1.23
-0.61
-2.70
-4.93
-7.25
-9.77
-12.52
-15.41
-18.20
-20.59
-22.38
-23.56
-24.38
-25.15
-26.09
-27.20
-28.18
-28.66
-28.19
-26.50
-23.51
-19.40
-14.46
-9.18
-4.03
0.54
4.22
6.97
8.90
10.20
11.13
11.89
12.58
13.27
13.91
14.39
14.56
14.26
13.40
12.05
10.47
8.96
7.81
7.09
6.70
6.51
6.34
6.12
5.84
5.56
5.30
5.03
4.69
4.17
3.43
2.44
1.27
0.05
-1.08
-2.03
-2.73
-3.26
-3.72
-4.20
-4.72
-5.19
-5.53
-5.60
-5.38
-4.91
-4.31
-3.75
-3.29
-2.94
-2.57
-2.11
-1.49
-0.82
-0.25
0.09
0.11
-0.14
-0.57
-1.00
-1.33
-1.45
-1.31
-0.90
-0.26
0.49
1.19
1.66
1.82
1.65
1.25
0.72
0.23
-0.08
-0.11
0.15
0.63
1.21
1.72
2.08
2.26
2.29
2.21
2.05
1.81
1.44
0.99
0.49
0.01
-0.41
-0.81
-1.22
-1.70
-2.27
-2.93
-3.66
-4.44
-5.24
-5.87
-6.16
-5.96
-5.18
-3.90
-2.34
-0.72
0.68
1.70
2.35
2.64
2.59
2.20
1.53
0.65
-0.18
-0.72
-0.74
-0.16
0.89
2.21
3.58
4.84
5.92
6.79
7.36
7.53
7.23
6.49
5.51
4.60
3.97
3.71
3.75
3.88
3.93
3.86
3.66
3.42
3.14
2.72
2.01
0.86
-0.78
-2.91
-5.41
-8.06
-10.60
-12.70
-14.07
-14.51
-14.01
-12.73
-10.91
-8.81
-6.59
-4.32
-2.08
-0.01
1.76
3.03
3.77
3.96
3.73
3.21
2.50
1.68
0.87
0.21
-0.22
-0.37
-0.37
-0.35
-0.38
-0.41
-0.29
0.16
0.95
1.93
2.73
3.05
2.74
1.89
0.79
-0.24
-0.97
-1.37
-1.53
-1.63
-1.83
-2.19
-2.72
-3.41
-4.19
-5.05
-6.01
-7.03
-8.01
-8.83
-9.27
-9.25
-8.73
-7.78
-6.43
-4.82
-3.06
-1.23
0.45
1.79
2.55
2.56
1.79
0.38
-1.38
-3.21
-4.86
-6.21
-7.22
-7.97
-8.58
-9.18
-9.94
-10.84
-11.78
-12.41
-12.27
-10.81
-7.64
-2.68
3.77
11.01
18.19
24.44
29.07
31.68
32.29
31.24
29.08
26.45
23.84
21.55
19.59
17.78
15.78
13.36
10.33
6.81
3.11
-0.31
-2.94
-4.42
-4.72
-4.10
-3.02
-1.99
-1.31
-1.01
-0.97
-1.08
-1.37
-2.08
-3.40
-5.33
-7.65
-9.92
-11.69
-12.71
-12.99
-12.70
-12.06
-11.19
-10.09
-8.86
-7.56
-6.31
-5.30
-4.54
-4.02
-3.59
-3.14
-2.62
-2.10
-1.64
-1.28
-1.03
-0.80
-0.49
-0.06
0.38
0.61
0.34
-0.61
-2.12
-3.88
-5.36
-6.11
-5.94
-4.96
-3.50
-1.88
-0.34
1.11
2.46
3.78
4.97
5.89
6.39
6.39
5.96
5.24
4.44
3.73
3.22
2.89
2.63
2.29
1.74
0.97
0.14
-0.51
-0.72
-0.41
0.25
0.92
1.25
1.02
0.30
-0.69
-1.60
-2.23
-2.55
-2.70
-2.86
-3.16
-3.68
-4.42
-5.32
-6.23
-6.91
-7.14
-6.70
-5.55
-3.83
-1.82
0.14
1.82
3.12
4.00
4.48
4.55
4.24
3.65
2.89
2.12
1.38
0.68
-0.02
-0.64
-1.07
-1.19
-0.96
-0.46
0.05
0.33
0.34
0.15
-0.01
0.02
0.28
0.67
1.04
1.30
1.36
1.27
1.00
0.56
-0.08
-0.91
-1.78
-2.51
-2.98
-3.20
-3.44
-4.02
-5.17
-6.79
-8.51
-9.70
-9.87
-8.79
-6.64
-3.86
-0.99
1.53
3.44
4.64
5.15
4.97
4.24
3.14
2.00
1.17
0.95
1.44
2.50
3.75
4.74
5.09
4.70
3.71
2.48
1.38
0.63
0.28
0.19
0.17
0.09
-0.09
-0.35
-0.64
-0.91
-1.15
-1.36
-1.49
-1.51
-1.40
-1.29
-1.34
-1.75
-2.60
-3.80
-5.06
-6.05
-6.49
-6.29
-5.55
-4.48
-3.34
-2.24
-1.21
-0.28
0.50
1.08
1.40
1.52
1.53
1.52
1.56
1.64
1.62
1.48
1.22
0.92
0.72
0.69
0.85
1.13
1.45
1.64
1.67
1.59
1.48
1.48
1.63
1.91
2.15
2.25
2.10
1.79
1.40
0.96
0.50
-0.02
-0.61
-1.23
-1.77
-2.22
-2.64
-3.19
-4.08
-5.29
-6.63
-7.76
-8.31
-8.09
-7.14
-5.69
-3.98
-2.28
-0.71
0.63
1.68
2.35
2.63
2.55
2.24
1.86
1.54
1.39
1.40
1.59
1.95
2.53
3.28
4.17
4.99
5.48
5.43
4.73
3.54
2.25
1.26
0.87
1.14
1.87
2.67
3.17
3.14
2.60
1.75
0.82
-0.01
-0.71
-1.33
-1.98
-2.68
-3.42
-4.11
-4.74
-5.30
-5.86
-6.48
-7.10
-7.56
-7.54
-6.84
-5.32
-3.19
-0.81
1.37
2.96
3.72
3.70
3.06
2.04
0.84
-0.33
-1.27
-1.80
-1.83
-1.40
-0.64
0.24
1.05
1.79
2.54
3.41
4.43
5.39
6.07
6.24
5.82
4.91
3.77
2.66
1.74
1.07
0.60
0.27
0.01
-0.26
-0.58
-0.93
-1.34
-1.77
-2.14
-2.38
-2.43
-2.31
-2.14
-2.09
-2.27
-2.78
-3.50
-4.12
-4.33
-3.88
-2.78
-1.27
0.31
1.63
2.49
2.86
2.92
2.81
2.68
2.57
2.37
2.00
1.39
0.59
-0.17
-0.63
-0.60
-0.02
0.97
2.08
3.09
3.86
4.41
4.90
5.39
5.82
6.05
5.94
5.46
4.73
3.93
3.12
2.35
1.55
0.65
-0.32
-1.22
-1.88
-2.14
-1.94
-1.40
-0.68
-0.05
0.29
0.20
-0.30
-0.97
-1.51
-1.65
-1.28
-0.45
0.59
1.60
2.45
3.04
3.42
3.64
3.76
3.78
3.74
3.65
3.51
3.37
3.20
2.99
2.80
2.64
2.52
2.46
2.41
2.32
2.25
2.12
1.94
1.65
1.15
0.44
-0.43
-1.28
-1.90
-2.14
-2.04
-1.74
-1.45
-1.32
-1.39
-1.63
-1.96
-2.44
-3.08
-3.94
-4.97
-6.03
-6.98
-7.63
-7.90
-7.76
-7.26
-6.39
-5.18
-3.64
-1.82
0.13
2.04
3.67
4.80
5.32
5.29
4.89
4.40
3.99
3.71
3.49
3.22
2.89
2.53
2.33
2.37
2.63
2.89
2.89
2.43
1.52
0.38
-0.70
-1.42
-1.69
-1.63
-1.52
-1.64
-2.11
-2.86
-3.60
-4.02
-3.94
-3.43
-2.78
-2.37
-2.38
-2.81
-3.43
-3.93
-4.11
-3.91
-3.46
-2.88
-2.26
-1.59
-0.84
-0.03
0.79
1.52
2.08
2.42
2.58
2.59
2.51
2.38
2.21
2.02
1.80
1.61
1.52
1.66
2.11
2.93
4.02
5.09
5.87
6.10
5.74
5.02
4.23
3.61
3.20
2.88
2.41
1.68
0.68
-0.44
-1.49
-2.37
-3.06
-3.66
-4.29
-5.00
-5.76
-6.51
-7.20
-7.73
-8.00
-7.90
-7.32
-6.17
-4.46
-2.30
0.08
2.30
4.04
5.07
5.37
5.08
4.36
3.38
2.29
1.21
0.27
-0.47
-1.01
-1.41
-1.78
-2.23
-2.75
-3.19
-3.32
-2.94
-2.05
-0.81
0.50
1.67
2.59
3.25
3.67
3.80
3.60
2.98
1.97
0.69
-0.62
-1.61
-2.05
-1.88
-1.24
-0.45
0.15
0.29
-0.07
-0.85
-1.91
-3.13
-4.52
-6.08
-7.65
-8.98
-9.69
-9.50
-8.33
-6.35
-3.88
-1.30
1.05
2.90
4.08
4.53
4.32
3.59
2.61
1.67
0.91
0.40
0.07
-0.20
-0.47
-0.65
-0.60
-0.20
0.63
1.81
3.16
4.41
5.26
5.52
5.17
4.38
3.46
2.79
2.64
3.13
4.11
5.21
6.04
6.30
5.95
5.11
4.06
3.01
2.06
1.21
0.37
-0.54
-1.53
-2.63
-3.79
-4.85
-5.70
-6.17
-6.12
-5.54
-4.48
-3.11
-1.63
-0.27
0.84
1.58
1.92
1.93
1.66
1.20
0.66
0.10
-0.38
-0.66
-0.63
-0.27
0.28
0.76
0.92
0.64
0.02
-0.70
-1.22
-1.36
-1.08
-0.48
0.21
0.78
1.13
1.28
1.26
1.13
0.86
0.43
-0.16
-0.83
-1.41
-1.69
-1.51
-0.90
-0.11
0.52
0.66
0.21
-0.73
-1.91
-3.12
-4.17
-4.96
-5.44
-5.54
-5.17
-4.20
-2.58
-0.45
1.89
3.97
5.40
5.95
5.66
4.84
3.92
3.24
2.90
2.71
2.45
1.98
1.47
1.21
1.47
2.26
3.30
4.20
4.57
4.35
3.68
2.89
2.28
1.98
1.98
2.18
2.42
2.52
2.34
1.69
0.58
-0.85
-2.32
-3.54
-4.26
-4.42
-4.16
-3.67
-3.28
-3.21
-3.59
-4.32
-5.19
-5.83
-5.95
-5.43
-4.34
-2.97
-1.62
-0.44
0.57
1.49
2.37
3.12
3.61
3.71
3.41
2.86
2.31
1.94
1.76
1.65
1.41
0.92
0.24
-0.46
-0.94
-0.99
-0.58
0.23
1.26
2.33
3.26
3.94
4.23
4.13
3.71
3.16
2.65
2.32
2.18
2.13
2.05
1.80
1.30
0.48
-0.74
-2.37
-4.24
-6.06
-7.39
-7.80
-7.10
-5.36
-2.87
-0.14
2.35
4.21
5.24
5.46
5.01
4.17
3.19
2.24
1.35
0.54
-0.15
-0.60
-0.66
-0.25
0.53
1.45
2.19
2.54
2.50
2.19
1.82
1.53
1.38
1.30
1.24
1.16
1.03
0.90
0.83
0.85
0.96
1.14
1.31
1.30
0.97
0.21
-0.94
-2.31
-3.59
-4.52
-4.89
-4.72
-4.17
-3.47
-2.81
-2.28
-1.79
-1.28
-0.68
-0.04
0.55
1.00
1.32
1.59
1.93
2.42
2.97
3.37
3.36
2.83
1.83
0.67
-0.28
-0.72
-0.53
0.13
0.98
1.69
2.07
2.06
1.80
1.40
0.95
0.51
0.14
-0.04
0.04
0.41
0.92
1.32
1.23
0.39
-1.20
-3.28
-5.37
-7.01
-7.88
-7.97
-7.41
-6.38
-5.03
-3.49
-1.89
-0.41
0.78
1.49
1.68
1.49
1.18
0.99
1.06
1.30
1.55
1.65
1.53
1.25
0.90
0.67
0.64
0.89
1.28
1.69
1.97
2.06
1.93
1.59
1.13
0.52
-0.20
-1.00
-1.80
-2.47
-2.88
-3.03
-3.03
-3.06
-3.29
-3.82
-4.61
-5.55
-6.43
-7.00
-7.01
-6.27
-4.71
-2.49
0.11
2.66
4.75
6.12
6.78
6.83
6.49
5.88
5.00
3.92
2.68
1.43
0.41
-0.17
-0.21
0.28
1.18
2.24
3.29
4.15
4.73
4.99
4.87
4.38
3.52
2.36
1.01
-0.36
-1.60
-2.60
-3.30
-3.71
-3.87
-3.84
-3.73
-3.70
-3.89
-4.39
-5.20
-6.23
-7.32
-8.30
-9.02
-9.37
-9.30
-8.75
-7.75
-6.33
-4.63
-2.79
-0.98
0.66
2.07
3.19
3.95
4.32
4.27
3.87
3.26
2.60
2.04
1.69
1.61
1.81
2.30
2.99
3.76
4.42
4.81
4.86
4.62
4.24
3.86
3.57
3.27
2.87
2.26
1.46
0.55
-0.37
-1.24
-2.05
-2.77
-3.36
-3.75
-3.95
-4.09
-4.35
-4.90
-5.78
-6.87
-7.92
-8.65
-8.87
-8.45
-7.41
-5.77
-3.59
-0.97
1.87
4.63
7.00
8.72
9.74
10.08
9.87
9.22
8.26
7.12
5.97
5.04
4.49
4.37
4.52
4.63
4.40
3.67
2.54
1.32
0.38
0.02
0.26
0.90
1.59
2.04
2.10
1.92
1.72
1.69
1.91
2.20
2.30
1.96
1.08
-0.24
-1.77
-3.32
-4.74
-5.96
-6.93
-7.60
-7.84
-7.49
-6.46
-4.77
-2.61
-0.32
1.74
3.28
4.18
4.53
4.52
4.37
4.25
4.22
4.27
4.35
4.45
4.55
4.58
4.49
4.16
3.56
2.76
1.94
1.31
1.01
1.04
1.21
1.24
0.92
0.23
-0.60
-1.30
-1.58
-1.42
-1.02
-0.72
-0.82
-1.41
-2.36
-3.38
-4.19
-4.59
-4.55
-4.11
-3.31
-2.19
-0.75
0.94
2.72
4.37
5.68
6.50
6.83
6.79
6.50
6.10
5.65
5.16
4.62
4.08
3.60
3.26
3.11
3.01
2.87
2.56
2.01
1.32
0.60
-0.02
-0.45
-0.77
-1.13
-1.65
-2.39
-3.35
-4.36
-5.29
-6.05
-6.52
-6.77
-6.84
-6.77
-6.64
-6.45
-6.20
-5.87
-5.41
-4.76
-3.95
-3.04
-2.06
-1.12
-0.23
0.59
1.33
1.94
2.37
2.54
2.40
2.00
1.44
0.83
0.37
0.17
0.32
0.80
1.50
2.23
2.82
3.07
2.93
2.43
1.65
0.73
-0.22
-1.03
-1.62
-1.93
-2.00
-1.91
-1.78
-1.78
-1.95
-2.26
-2.54
-2.71
-2.72
-2.63
-2.59
-2.71
-3.10
-3.73
-4.48
-5.18
-5.68
-5.87
-5.68
-5.13
-4.24
-3.18
-2.15
-1.31
-0.77
-0.46
-0.27
-0.03
0.34
0.85
1.35
1.69
1.80
1.69
1.52
1.48
1.78
2.51
3.63
4.87
5.96
6.60
6.68
6.24
5.42
4.39
3.26
2.08
0.85
-0.29
-1.31
-2.17
-2.89
-3.61
-4.39
-5.25
-6.04
-6.60
-6.78
-6.60
-6.20
-5.74
-5.31
-4.90
-4.50
-4.04
-3.49
-2.81
-1.99
-0.98
0.15
1.21
2.02
2.34
2.18
1.67
1.08
0.61
0.35
0.25
0.22
0.28
0.48
0.94
1.65
2.50
3.36
4.10
4.70
5.13
5.43
5.58
5.54
5.28
4.80
4.20
3.55
2.92
2.32
1.71
1.02
0.28
-0.52
-1.35
-2.13
-2.88
-3.62
-4.42
-5.25
-6.05
-6.68
-7.02
-7.07
-6.89
-6.57
-6.09
-5.34
-4.13
-2.39
-0.24
1.99
3.96
5.43
6.29
6.69
6.81
6.77
6.54
6.01
5.10
3.81
2.37
1.05
0.14
-0.21
-0.00
0.53
1.15
1.65
1.91
1.97
1.90
1.76
1.53
1.15
0.56
-0.21
-1.03
-1.77
-2.25
-2.42
-2.31
-2.08
-1.90
-1.86
-2.00
-2.24
-2.51
-2.69
-2.74
-2.65
-2.37
-1.87
-1.13
-0.12
1.03
2.14
3.00
3.42
3.40
3.07
2.63
2.23
1.97
1.81
1.66
1.41
1.07
0.76
0.67
0.88
1.37
1.99
2.52
2.74
2.59
2.11
1.52
1.04
0.81
0.87
1.12
1.41
1.57
1.53
1.22
0.67
-0.07
-0.95
-1.90
-2.90
-3.85
-4.74
-5.48
-6.05
-6.41
-6.52
-6.30
-5.66
-4.62
-3.23
-1.67
-0.10
1.29
2.41
3.21
3.67
3.77
3.49
2.85
1.93
0.93
0.03
-0.58
-0.76
-0.47
0.27
1.28
2.29
3.05
3.34
3.08
2.29
1.13
-0.29
-1.76
-3.16
-4.37
-5.26
-5.78
-5.89
-5.66
-5.20
-4.63
-4.10
-3.74
-3.63
-3.78
-4.21
-4.79
-5.44
-6.05
-6.47
-6.59
-6.30
-5.52
-4.22
-2.54
-0.67
1.13
2.57
3.52
3.89
3.77
3.30
2.63
1.87
1.15
0.57
0.21
0.14
0.37
0.83
1.45
2.13
2.78
3.46
4.15
4.81
5.31
5.48
5.21
4.51
3.48
2.18
0.70
-0.99
-2.84
-4.68
-6.22
-7.16
-7.37
-6.92
-6.16
-5.48
-5.15
-5.22
-5.58
-6.08
-6.59
-7.01
-7.31
-7.51
-7.58
-7.47
-7.09
-6.37
-5.33
-4.06
-2.79
-1.69
-0.92
-0.47
-0.19
0.09
0.56
1.24
1.98
2.58
2.83
2.62
1.96
1.09
0.25
-0.21
-0.08
0.59
1.46
1.99
1.68
0.29
-1.95
-4.53
-6.75
-8.04
-8.23
-7.55
-6.52
-5.75
-5.87
-7.34
-10.40
-14.72
-19.12
-21.53
-19.54
-11.38
3.03
21.58
40.52
55.72
64.23
65.27
60.09
51.13
40.78
30.52
20.88
11.92
3.79
-3.07
-8.12
-11.19
-12.58
-13.00
-13.21
-13.52
-13.68
-13.05
-11.03
-7.45
-2.82
1.96
5.89
8.21
8.70
7.57
5.35
2.65
0.05
-2.14
-3.77
-4.92
-5.84
-6.74
-7.74
-8.76
-9.54
-9.77
-9.35
-8.38
-7.13
-5.94
-5.07
-4.69
-4.81
-5.32
-6.05
-6.82
-7.47
-7.79
-7.65
-6.90
-5.58
-3.83
-1.88
-0.02
1.53
2.67
3.40
3.78
3.91
3.82
3.54
3.15
2.73
2.46
2.44
2.67
3.03
3.37
3.64
3.79
3.79
3.63
3.27
2.66
1.87
1.08
0.46
0.16
0.14
0.26
0.33
0.25
0.03
-0.23
-0.45
-0.64
-0.87
-1.25
-1.87
-2.65
-3.49
-4.20
-4.59
-4.58
-4.20
-3.50
-2.66
-1.86
-1.16
-0.63
-0.23
0.04
0.19
0.22
0.19
0.13
0.02
-0.14
-0.41
-0.79
-1.22
-1.56
-1.68
-1.45
-0.86
-0.00
1.01
1.99
2.76
3.17
3.14
2.66
1.87
0.93
0.04
-0.66
-1.19
-1.56
-1.83
-2.14
-2.59
-3.28
-4.22
-5.37
-6.60
-7.78
-8.85
-9.89
-11.05
-12.49
-14.21
-15.97
-17.42
-18.24
-18.26
-17.65
-16.81
-16.17
-16.11
-16.80
-18.15
-19.93
-21.79
-23.48
-24.83
-25.90
-26.89
-28.03
-29.57
-31.59
-33.97
-36.41
-38.30
-39.02
-37.92
-34.60
-29.16
-22.16
-14.60
-7.66
-2.40
0.61
1.29
0.03
-2.60
-6.05
-9.90
-13.91
-18.04
-22.30
-26.69
-31.25
-36.00
-40.99
-46.30
-51.79
-56.94
-60.86
-62.40
-60.48
-54.70
-45.55
-34.45
-23.30
-13.82
-6.89
-2.39
0.61
3.22
6.08
9.17
11.91
13.43
13.01
10.41
6.21
1.85
-0.51
1.22
8.32
20.47
35.82
52.13
68.10
84.26
102.61
125.02
151.52
179.58
204.98
223.78
234.11
236.74
234.11
228.80
222.43
215.55
208.30
200.92
193.62
186.08
177.11
165.20
149.51
130.91
111.77
94.87
81.70
71.21
60.06
44.23
21.26
-8.24
-40.56
-70.58
-93.88
-108.29
-114.43
-114.66
-111.60
-106.92
-101.04
-93.53
-83.98
-72.39
-59.39
-46.55
-36.49
-32.74
-39.02
-58.00
-90.20
-133.46
-183.45
-233.21
-274.71
-300.78
-307.29
-294.12
-264.62
-223.85
-177.10
-129.15
-84.06
-45.11
-14.38
7.57
21.70
30.09
35.14
38.60
41.19
42.83
43.03
41.48
38.43
34.63
31.02
28.28
26.42
24.68
22.12
18.22
13.14
7.87
3.52
1.10
1.11
3.46
7.45
12.19
16.77
20.04
21.07
20.24
18.92
20.21
27.58
42.51
63.07
83.91
96.97
96.49
80.68
52.32
17.68
-16.19
-44.08
-64.27
-76.51
-81.31
-79.37
-71.95
-61.08
-49.34
-39.11
-32.17
-28.52
-26.51
-23.60
-17.39
-6.62
8.56
26.37
45.69
64.93
82.68
97.48
108.41
115.29
118.36
117.81
112.72
102.62
83.71
54.36
17.20
-20.07
-46.85
-53.72
-36.68
0.67
48.23
92.69
123.23
132.72
122.85
100.18
71.99
43.59
17.46
-5.56
-24.98
-40.45
-51.66
-59.54
-67.37
-79.43
-98.33
-123.24
-148.20
-166.16
-171.50
-162.64
-142.30
-116.05
-89.50
-65.87
-45.97
-29.30
-15.71
-5.89
-1.23
-2.64
-9.76
-19.95
-28.06
-27.84
-14.09
14.90
56.28
102.87
145.18
174.08
183.69
173.19
146.43
110.60
73.73
42.52
20.73
8.97
5.34
6.69
10.39
14.19
16.37
15.53
10.30
-0.07
-15.17
-33.05
-50.76
-65.04
-74.00
-77.49
-76.85
-74.15
-70.93
-67.59
-62.44
-54.73
-43.47
-28.63
-11.30
6.91
24.22
39.57
52.87
64.59
75.05
84.03
90.10
91.28
86.03
73.56
54.86
32.38
9.19
-11.91
-28.46
-40.28
-49.47
-57.52
-66.33
-76.97
-88.62
-98.46
-101.65
-92.33
-66.04
-22.36
33.68
91.78
139.55
166.94
169.23
148.39
112.07
70.55
33.53
8.01
-2.47
2.93
22.80
53.86
91.42
130.18
165.17
192.65
210.26
217.43
215.39
206.49
193.59
179.41
165.68
152.25
140.58
130.38
120.77
111.14
101.79
93.61
87.66
84.51
83.76
84.41
85.03
84.56
82.55
79.16
74.85
70.18
65.35
60.30
54.88
48.66
41.43
33.35
24.81
16.26
8.13
0.63
-6.07
-11.75
-16.42
-20.08
-22.79
-24.76
-26.39
-28.07
-30.14
-32.65
-35.34
-37.85
-39.93
-41.64
-43.46
-46.26
-50.88
-57.91
-67.26
-78.28
-90.08
-102.01
-113.95
-126.35
-139.94
-155.33
-172.69
-191.79
-212.47
-234.73
-258.32
-282.09
-303.68
-320.07
-328.89
-329.76
-324.61
-316.59
-308.33
-300.34
-290.93
-277.69
-259.39
-237.15
-214.08
-193.53
-177.28
-164.78
-153.88
-142.29
-128.97
-114.55
-100.48
-88.06
-77.38
-67.13
-55.13
-39.46
-19.43
4.04
28.66
51.77
71.34
86.61
97.94
106.27
112.28
116.10
117.46
116.34
113.23
109.22
105.64
103.49
103.17
104.49
107.02
110.36
114.28
118.68
123.35
128.14
132.93
137.55
141.87
145.56
148.19
149.44
149.42
148.66
147.79
146.72
144.08
137.18
122.91
98.98
64.98
22.53
-25.40
-75.43
-124.33
-168.90
-205.61
-230.75
-241.34
-236.44
-218.00
-190.63
-160.07
-131.35
-107.33
-88.48
-73.76
-61.70
-51.28
-42.11
-34.20
-27.61
-22.28
-18.08
-14.74
-12.00
-9.40
-6.26
-1.72
4.88
13.55
23.31
32.15
37.57
37.54
31.34
20.01
5.91
-8.12
-19.91
-28.47
-34.02
-37.28
-38.72
-38.34
-35.69
-30.48
-22.96
-14.03
-4.99
2.83
8.50
11.73
12.83
12.57
11.83
11.37
11.60
12.49
13.47
13.72
12.37
8.94
3.67
-2.56
-8.58
-13.43
-16.62
-18.25
-18.63
-17.94
-16.04
-12.66
-7.72
-1.77
4.03
8.31
10.09
9.21
6.30
2.51
-1.15
-4.14
-6.47
-8.45
-10.26
-11.69
-12.11
-10.80
-7.36
-1.90
4.88
12.00
18.52
23.88
27.87
30.65
32.52
33.66
34.16
33.99
33.08
31.48
29.28
26.56
23.36
19.76
15.98
12.56
10.24
9.74
11.43
14.90
19.09
22.58
24.34
24.13
22.63
20.99
20.26
20.78
22.02
23.01
22.83
21.20
18.54
15.69
13.49
12.40
12.35
12.98
13.97
15.17
16.63
18.52
20.79
23.16
25.07
25.74
24.34
20.28
13.43
4.30
-5.80
-15.18
-22.44
-27.13
-30.04
-32.69
-36.34
-41.12
-45.74
-48.21
-47.09
-42.43
-35.88
-29.79
-25.91
-24.49
-24.51
-24.34
-22.98
-20.46
-17.42
-14.52
-12.18
-10.66
-10.57
-13.01
-18.85
-27.92
-38.37
-46.99
-50.44
-46.87
-36.63
-22.01
-6.09
8.62
20.84
30.31
37.19
41.54
43.11
41.83
38.12
32.79
26.84
21.03
15.71
10.78
5.97
1.07
-3.85
-8.44
-12.26
-14.82
-15.84
-15.33
-13.68
-11.65
-10.08
-9.71
-10.89
-13.64
-17.49
-21.83
-26.04
-29.66
-32.43
-34.26
-35.12
-35.05
-34.19
-32.83
-31.39
-30.38
-30.27
-31.42
-33.98
-37.90
-42.87
-48.48
-54.27
-59.85
-65.00
-69.58
-73.41
-76.20
-77.58
-77.03
-73.98
-68.03
-58.94
-46.69
-31.44
-13.60
6.05
26.30
45.52
61.90
73.77
80.02
80.49
76.08
68.54
59.88
51.74
45.01
39.65
34.92
29.87
23.60
15.54
5.78
-5.11
-16.18
-26.22
-34.25
-39.75
-42.87
-44.44
-45.70
-47.70
-50.76
-54.31
-56.69
-55.42
-47.71
-31.31
-5.56
27.84
64.70
99.43
126.68
143.27
149.17
147.17
141.30
134.91
129.49
124.74
119.54
113.37
107.05
102.24
100.43
101.92
105.52
109.22
111.28
111.05
109.13
106.92
105.67
105.79
106.83
107.76
107.66
106.27
104.12
102.14
101.25
101.83
103.54
105.50
106.71
106.27
103.67
98.68
91.26
81.45
69.36
55.22
39.47
22.73
5.68
-10.98
-26.54
-40.34
-51.88
-61.04
-68.14
-73.95
-79.35
-85.07
-91.30
-97.62
-103.22
-107.21
-109.03
-108.53
-105.90
-101.48
-95.65
-88.80
-81.39
-73.94
-66.95
-60.78
-55.48
-50.76
-46.19
-41.46
-36.58
-31.84
-27.59
-24.05
-21.05
-18.30
-15.59
-12.98
-10.77
-9.24
-8.39
-7.90
-7.30
-6.28
-4.98
-3.86
-3.40
-3.86
-4.98
-6.26
-7.08
-7.08
-6.29
-5.05
-3.98
-3.73
-4.78
-7.25
-10.82
-14.75
-18.01
-19.68
-19.25
-16.85
-13.08
-8.83
-4.83
-1.52
1.01
3.00
4.62
5.97
6.99
7.60
7.71
7.42
6.90
6.36
5.99
5.81
5.68
5.40
4.88
4.15
3.44
3.09
3.30
4.02
4.85
5.26
4.71
3.07
0.53
-2.41
-5.23
-7.62
-9.60
-11.36
-13.07
-14.71
-16.09
-16.99
-17.35
-17.43
-17.67
-18.35
-19.35
-20.12
-19.91
-18.22
-14.96
-10.54
-5.62
-0.88
3.35
6.98
10.03
12.58
14.56
15.85
16.32
15.96
14.87
13.30
11.51
9.83
8.53
7.74
7.41
7.33
7.22
6.91
6.35
5.64
4.92
4.28
3.67
2.99
2.11
1.04
-0.08
-1.06
-1.76
-2.16
-2.35
-2.62
-3.16
-4.17
-5.76
-7.93
-10.49
-13.19
-15.58
-17.15
-17.56
-16.57
-14.23
-10.84
-6.87
-2.73
1.21
4.72
7.69
9.99
11.58
12.39
12.50
12.07
11.35
10.57
9.94
9.55
9.42
9.55
9.83
10.16
10.48
10.68
10.67
10.36
9.75
8.80
7.63
6.29
4.80
3.22
1.59
-0.05
-1.62
-3.01
-4.19
-5.04
-5.62
-6.05
-6.60
-7.61
-9.29
-11.68
-14.41
-16.90
-18.42
-18.38
-16.62
-13.44
-9.52
-5.61
-2.28
0.31
2.31
3.98
5.46
6.68
7.46
7.54
6.95
5.94
4.96
4.48
4.84
6.07
7.96
10.19
12.29
14.06
15.38
16.28
16.88
17.21
17.24
16.85
15.94
14.50
12.64
10.57
8.49
6.58
4.91
3.51
2.35
1.45
0.76
0.10
-0.78
-2.20
-4.23
-6.68
-9.01
-10.60
-10.95
-9.86
-7.62
-4.72
-1.77
0.86
2.88
4.17
4.67
4.35
3.40
2.05
0.64
-0.59
-1.52
-2.18
-2.56
-2.64
-2.27
-1.34
0.06
1.74
3.38
4.70
5.61
6.18
6.59
7.01
7.45
7.85
8.18
8.36
8.44
8.58
8.93
9.49
10.10
10.47
10.29
9.47
8.07
6.29
4.38
2.47
0.61
-1.13
-2.51
-3.23
-2.90
-1.25
1.74
5.80
10.51
15.40
20.20
24.71
28.73
31.81
33.11
31.69
27.26
20.77
14.50
11.12
11.84
14.86
15.25
6.78
-15.44
-52.52
-101.54
-156.97
-212.72
-263.77
-306.22
-336.50
-350.99
-346.61
-322.06
-278.95
-221.60
-155.36
-85.24
-15.09
51.78
111.83
161.00
195.75
214.43
218.50
212.64
203.68
199.06
204.87
224.15
256.25
296.92
339.69
378.14
408.08
428.62
441.51
448.69
449.68
440.61
415.63
370.12
303.72
221.65
133.16
48.05
-26.40
-87.50
-136.27
-175.30
-206.62
-230.96
-248.51
-260.16
-267.65
-272.43
-274.23
-270.47
-257.02
-229.74
-186.39
-128.04
-59.66
10.54
72.26
115.41
132.65
121.34
84.15
27.84
-38.78
-106.85
-168.38
-216.44
-245.39
-252.18
-238.09
-209.76
-177.90
-153.60
-143.70
-148.14
-160.23
-170.45
-170.56
-157.18
-132.36
-102.36
-75.39
-59.35
-60.42
-81.90
-123.46
-180.64
-245.30
-306.59
-353.07
-375.42
-369.00
-335.74
-284.09
-226.65
-176.06
-140.69
-121.90
-114.60
-110.46
-102.32
-87.36
-67.23
-45.91
-26.57
-9.58
7.24
27.01
51.30
79.41
108.89
137.52
164.54
190.75
217.54
245.31
272.87
297.11
313.90
320.17
315.59
303.06
287.85
276.11
273.49
284.71
311.26
350.56
396.33
439.92
472.69
488.57
485.90
467.91
442.33
416.18
393.08
372.81
352.80
330.27
303.66
272.89
238.63
202.96
165.79
125.27
79.80
29.99
-21.10
-68.65
-107.82
-145.83
-182.73
-214.16
-235.53
-246.28
-249.24
-247.34
-241.29
-229.60
-210.27
-181.00
-142.77
-100.13
-59.55
-26.80
-5.27
4.64
4.73
-2.44
-13.88
-29.60
-52.84
-88.32
-137.66
-199.52
-270.04
-343.68
-413.76
-471.55
-508.37
-517.31
-495.93
-448.70
-388.01
-331.11
-293.95
-284.67
-299.72
-326.34
-348.56
-354.08
-338.43
-305.03
-261.17
-213.39
-164.70
-115.11
-64.30
-13.82
32.60
71.05
99.49
118.98
132.90
145.14
157.75
169.86
178.12
178.48
168.47
148.63
122.75
96.80
76.97
67.77
70.78
84.68
106.18
131.57
158.17
184.74
211.49
239.22
268.52
299.29
330.58
360.82
387.83
408.56
419.12
415.83
396.48
361.72
315.29
262.84
209.84
159.98
114.64
73.77
37.35
5.98
-19.46
-38.85
-53.64
-66.38
-79.42
-93.47
-107.21
-117.87
-122.85
-120.78
-111.91
-97.70
-80.20
-61.55
-43.73
-28.35
-16.57
-8.71
-4.24
-1.99
-0.86
-0.45
-1.17
-3.84
-8.96
-15.95
-23.13
-28.34
-30.16
-28.81
-26.49
-26.57
-32.10
-44.35
-62.17
-82.49
-101.45
-115.94
-124.32
-126.56
-123.72
-117.10
-107.80
-96.50
-83.88
-70.76
-58.42
-48.07
-40.58
-36.06
-33.80
-32.59
-31.15
-28.73
-25.22
-21.21
-17.59
-15.09
-14.16
-14.78
-16.67
-19.46
-22.83
-26.50
-30.31
-34.14
-37.75
-40.86
-42.99
-43.65
-42.53
-39.73
-35.69
-31.12
-26.60
-22.40
-18.49
-14.47
-9.84
-4.04
3.35
12.55
23.31
34.86
45.94
55.06
61.11
63.70
63.25
60.79
57.34
53.48
49.25
44.42
38.69
32.21
25.54
19.45
14.57
11.11
8.79
6.95
5.04
2.63
-0.31
-3.61
-7.03
-10.43
-13.81
-17.11
-20.17
-22.56
-23.83
-23.56
-21.77
-18.90
-15.68
-13.05
-11.63
-11.69
-13.03
-15.10
-17.10
-18.41
-18.67
-17.91
-16.59
-15.49
-15.41
-16.70
-18.87
-20.51
-19.61
-14.44
-4.34
9.59
24.74
37.64
45.33
46.33
40.94
30.99
18.91
7.04
-2.99
-10.20
-14.33
-15.60
-14.80
-13.14
-11.86
-11.42
-10.76
-7.41
1.82
19.21
44.77
75.76
107.15
133.21
149.07
151.93
141.37
119.14
88.63
54.08
20.00
-9.65
-32.19
-46.67
-53.81
-55.58
-54.19
-51.62
-49.40
-48.39
-48.93
-50.73
-53.01
-54.72
-54.91
-53.19
-49.91
-46.07
-42.76
-40.73
-39.91
-39.53
-38.47
-35.67
-30.71
-23.93
-16.35
-9.12
-3.02
1.94
6.45
11.43
17.51
24.56
31.69
37.77
41.94
44.01
44.51
44.41
44.71
46.12
48.94
53.03
57.80
62.20
65.00
64.94
61.21
53.69
43.00
30.39
17.24
4.68
-6.96
-17.97
-28.79
-39.57
-49.87
-58.81
-65.42
-68.95
-68.74
-64.08
-54.22
-38.80
-18.55
4.28
26.18
43.34
53.07
54.90
50.65
43.50
36.60
31.99
30.29
31.10
33.64
37.27
41.57
46.14
50.14
52.42
51.61
46.82
38.05
26.37
13.60
1.89
-7.06
-12.41
-14.19
-13.31
-11.05
-8.66
-7.02
-6.47
-6.75
-7.31
-7.57
-7.03
-5.55
-3.51
-1.98
-2.90
-8.65
-21.13
-40.69
-65.29
-90.78
-112.14
-125.43
-129.17
-124.85
-115.93
-106.29
-98.62
-93.76
-91.03
-89.18
-87.08
-84.07
-79.92
-74.51
-67.80
-59.71
-50.26
-39.73
-28.83
-18.54
-9.87
-3.51
0.54
2.99
4.97
7.53
11.14
15.60
20.41
25.26
30.26
35.90
42.61
50.28
58.16
65.08
69.86
71.90
71.13
68.10
63.51
57.97
51.86
45.36
38.63
31.94
25.72
20.44
16.41
13.62
11.63
9.82
7.69
5.06
2.11
-0.82
-3.48
-5.85
-8.08
-10.39
-12.84
-15.31
-17.48
-18.89
-19.04
-17.56
-14.30
-9.39
-3.44
2.66
7.83
11.13
12.15
11.11
8.85
6.47
5.05
5.06
6.26
7.63
7.97
6.39
2.88
-1.65
-5.83
-8.46
-9.11
-8.20
-6.86
-6.32
-7.68
-11.52
-17.64
-24.70
-30.09
-30.16
-21.58
-3.05
23.49
52.76
77.93
93.17
95.84
87.15
71.08
52.24
33.90
17.40
2.46
-11.58
-24.94
-37.22
-47.57
-55.31
-60.25
-62.69
-63.23
-62.57
-61.37
-60.17
-59.54
-60.05
-62.00
-64.87
-66.73
-64.13
-53.13
-30.95
2.28
42.87
84.43
120.00
144.47
156.02
155.93
147.33
133.53
117.02
99.31
81.47
64.41
49.12
36.20
25.61
16.70
8.46
0.08
-8.72
-17.53
-25.47
-31.48
-34.96
-35.98
-35.39
-34.41
-34.14
-35.18
-37.32
-39.80
-41.54
-41.67
-39.89
-36.47
-32.07
-27.46
-23.21
-19.53
-16.42
-13.78
-11.56
-9.90
-8.98
-8.90
-9.47
-10.36
-11.14
-11.49
-11.29
-10.60
-9.55
-8.17
-6.50
-4.47
-2.20
0.11
2.18
3.84
5.10
6.11
7.17
8.42
9.88
11.29
12.36
12.74
12.21
10.82
8.92
7.03
5.70
5.18
5.22
5.14
4.09
1.50
-2.41
-6.83
-10.62
-12.78
-12.96
-11.54
-9.38
-7.61
-7.35
-9.39
-14.12
-21.23
-29.48
-36.96
-41.53
-41.63
-36.95
-28.60
-18.52
-8.70
-0.49
5.78
10.37
13.60
15.61
16.26
15.48
13.52
10.93
8.38
6.45
5.43
5.31
5.95
7.01
8.06
8.78
8.90
8.46
7.75
7.22
7.25
8.01
9.32
10.96
12.90
15.43
19.03
23.88
29.63
35.32
39.81
42.19
42.23
40.38
37.44
34.08
30.38
25.94
20.20
13.03
4.71
-4.05
-12.58
-20.57
-28.15
-35.73
-43.50
-51.32
-58.59
-64.64
-69.07
-71.97
-73.80
-75.03
-75.81
-75.74
-74.07
-69.98
-63.03
-53.41
-42.01
-30.16
-19.24
-10.35
-4.00
-0.14
1.63
1.80
0.71
-1.52
-4.80
-8.82
-12.97
-16.32
-18.04
-17.73
-15.76
-13.23
-11.64
-12.46
-16.64
-24.20
-33.99
-43.80
-50.71
-51.95
-45.75
-32.18
-13.23
7.64
26.74
41.34
50.46
54.95
56.77
57.95
59.65
61.95
64.04
64.98
64.15
61.51
57.59
53.01
48.14
42.84
36.76
29.66
21.86
14.32
8.30
4.86
4.15
5.32
6.73
6.87
5.24
2.61
0.77
1.45
5.42
11.90
18.87
23.97
25.58
23.53
19.05
14.03
10.12
8.09
7.66
7.84
7.53
5.98
3.09
-0.60
-4.09
-6.45
-7.14
-6.24
-4.47
-2.79
-2.28
-3.78
-8.07
-15.76
-26.85
-40.13
-52.68
-60.16
-58.28
-44.81
-21.04
8.11
35.80
55.92
65.18
63.87
54.88
41.75
27.07
12.02
-3.11
-18.11
-32.29
-44.87
-55.51
-64.66
-73.23
-81.79
-89.67
-94.69
-93.89
-84.67
-66.14
-39.64
-8.48
23.18
51.58
74.38
90.84
101.47
107.46
109.95
109.78
107.59
103.97
99.57
95.12
91.05
87.26
83.02
77.08
68.20
55.66
39.71
21.38
2.33
-15.45
-29.95
-39.19
-41.76
-37.25
-26.61
-12.04
3.37
16.77
26.31
31.47
32.92
31.80
29.19
25.74
21.75
17.32
12.58
7.77
2.97
-1.75
-6.48
-11.35
-16.34
-21.29
-25.89
-29.71
-32.34
-33.65
-33.64
-32.61
-31.00
-29.28
-27.77
-26.67
-25.98
-25.60
-25.58
-25.84
-26.28
-26.88
-27.57
-28.33
-29.11
-29.87
-30.39
-30.49
-29.87
-28.36
-26.08
-23.36
-20.78
-18.88
-18.01
-18.15
-19.04
-20.17
-21.00
-21.09
-20.14
-18.15
-15.29
-11.84
-8.11
-4.38
-0.88
2.22
4.76
6.64
7.81
8.22
7.97
7.23
6.23
5.19
4.37
3.90
3.89
4.29
4.91
5.53
5.92
5.94
5.68
5.29
4.95
4.73
4.53
4.12
3.26
1.94
0.32
-1.22
-2.34
-2.91
-3.00
-2.86
-2.84
-3.12
-3.75
-4.70
-5.90
-7.30
-8.78
-10.05
-10.66
-10.26
-8.59
-5.79
-2.35
1.08
3.85
5.60
6.38
6.50
6.33
6.16
6.18
6.34
6.61
6.96
7.36
7.91
8.64
9.52
10.39
11.08
11.31
11.01
10.21
9.06
7.75
6.45
5.22
4.05
2.90
1.70
0.56
-0.43
-1.16
-1.67
-2.06
-2.47
-3.05
-3.74
-4.45
-5.01
-5.37
-5.65
-6.02
-6.55
-7.15
-7.48
-7.20
-6.08
-4.19
-1.85
0.47
2.47
3.97
4.99
5.62
5.93
5.94
5.66
5.21
4.70
4.36
4.40
4.99
6.09
7.55
9.03
10.11
10.58
10.35
9.64
8.84
8.32
8.19
8.30
8.27
7.75
6.54
4.68
2.48
0.28
-1.61
-3.03
-3.98
-4.61
-5.04
-5.46
-5.99
-6.81
-8.06
-9.75
-11.58
-13.03
-13.46
-12.41
-9.86
-6.27
-2.46
0.86
3.19
4.57
5.28
5.70
6.08
6.47
6.81
7.01
7.06
6.94
6.71
6.39
6.04
5.68
5.19
4.55
3.71
2.75
1.80
1.08
0.68
0.52
0.45
0.20
-0.26
-0.85
-1.31
-1.41
-1.07
-0.37
0.36
0.86
0.78
0.00
-1.44
-3.39
-5.63
-7.98
-10.31
-12.62
-14.76
-16.59
-17.75
-17.86
-16.77
-14.56
-11.68
-8.66
-6.01
-3.93
-2.47
-1.46
-0.76
-0.30
-0.00
0.14
0.21
0.26
0.39
0.65
1.10
1.81
2.79
3.97
5.12
6.07
6.65
6.84
6.74
6.48
6.12
5.50
4.55
3.14
1.37
-0.55
-2.34
-3.78
-4.74
-5.22
-5.36
-5.27
-5.07
-4.85
-4.77
-4.93
-5.48
-6.41
-7.54
-8.55
-9.07
-8.79
-7.54
-5.41
-2.66
0.39
3.33
5.86
7.78
9.05
9.69
9.94
10.22
10.89
12.17
13.98
15.96
17.63
18.58
18.62
17.98
17.22
16.98
17.70
19.43
21.75
23.94
25.19
24.94
23.12
20.11
16.59
13.46
11.48
11.19
12.56
14.48
14.71
10.30
-1.27
-20.86
-46.61
-74.47
-99.49
-117.85
-128.16
-131.55
-130.46
-126.99
-121.95
-114.88
-105.07
-92.51
-78.34
-64.43
-52.52
-43.57
-37.77
-34.85
-34.42
-35.92
-38.22
-39.33
-36.82
-28.44
-13.26
7.91
32.62
57.80
80.77
99.91
114.84
125.72
132.70
135.64
134.28
128.61
119.29
107.47
94.44
81.32
68.70
56.73
45.26
34.18
23.49
13.28
3.70
-5.09
-12.55
-17.66
-18.93
-14.85
-4.65
11.00
29.76
48.20
62.68
70.62
71.09
64.86
53.86
40.33
26.32
13.45
2.92
-4.50
-8.53
-9.51
-8.47
-6.74
-5.74
-6.36
-8.76
-12.37
-16.25
-19.54
-21.73
-22.93
-23.58
-24.38
-25.78
-27.90
-30.38
-32.62
-34.09
-34.47
-33.97
-33.02
-32.13
-31.56
-31.24
-30.92
-30.35
-29.45
-28.32
-27.16
-26.05
-24.94
-23.83
-22.90
-22.48
-22.82
-23.74
-24.46
-23.82
-20.68
-14.54
-5.80
4.43
14.89
24.76
33.75
41.88
48.99
54.58
57.85
58.17
55.61
51.03
45.89
41.47
38.40
36.32
34.18
30.60
24.51
15.42
3.46
-10.55
-25.36
-39.31
-50.70
-58.03
-60.53
-58.24
-52.15
-43.80
-34.82
-26.44
-19.30
-13.42
-8.53
-4.33
-0.63
2.56
5.15
7.05
8.18
8.60
8.38
7.64
6.47
5.05
3.55
2.15
1.07
0.45
0.38
0.81
1.59
2.43
3.07
3.29
2.98
2.28
1.38
0.60
0.14
0.02
0.09
0.11
0.02
-0.15
-0.13
0.25
1.06
2.05
2.82
3.01
2.39
1.10
-0.63
-2.42
-4.06
-5.36
-6.23
-6.51
-6.01
-4.60
-2.22
0.94
4.55
8.15
11.31
13.70
15.11
15.55
15.09
13.97
12.36
10.57
8.88
7.54
6.76
6.58
6.86
7.26
7.32
6.63
5.02
2.67
0.05
-2.27
-3.86
-4.61
-4.84
-5.03
-5.69
-7.08
-9.22
-11.88
-14.69
-17.29
-19.36
-20.79
-21.54
-21.67
-21.31
-20.66
-20.05
-19.74
-19.93
-20.62
-21.67
-22.77
-23.53
-23.73
-23.34
-22.65
-22.01
-21.55
-21.14
-20.45
-19.23
-17.55
-15.85
-14.65
-14.17
-14.06
-13.55
-11.83
-8.60
-4.35
-0.11
3.06
4.67
4.91
4.42
3.94
3.97
4.70
5.97
7.55
9.20
10.67
11.79
12.40
12.60
12.62
12.75
13.07
13.39
13.43
12.94
11.97
10.79
9.74
8.99
8.47
7.96
7.45
7.21
7.70
9.33
12.07
15.36
18.38
20.37
21.01
20.43
19.04
17.32
15.63
14.01
12.36
10.53
8.54
6.53
4.75
3.37
2.44
1.89
1.53
1.15
0.61
-0.05
-0.74
-1.35
-1.86
-2.41
-3.12
-4.12
-5.36
-6.69
-7.90
-8.77
-9.26
-9.34
-9.21
-8.98
-8.89
-9.06
-9.62
-10.58
-11.70
-12.59
-12.76
-11.88
-9.89
-7.16
-4.18
-1.52
0.54
2.01
3.18
4.33
5.55
6.73
7.69
8.31
8.68
8.96
9.30
9.62
9.66
9.09
7.80
5.96
4.06
2.57
1.74
1.53
1.60
1.57
1.24
0.62
-0.06
-0.57
-0.86
-1.03
-1.25
-1.66
-2.28
-2.98
-3.66
-4.19
-4.46
-4.35
-3.63
-2.10
0.34
3.47
6.90
10.05
12.49
14.03
14.81
15.12
15.28
15.44
15.59
15.61
15.38
14.88
14.26
13.72
13.44
13.48
13.80
14.22
14.63
14.97
15.20
15.33
15.22
14.79
13.85
12.36
10.37
8.15
6.03
4.32
3.22
2.67
2.46
2.27
1.90
1.30
0.58
-0.14
-0.81
-1.44
-1.99
-2.25
-1.88
-0.53
1.87
4.92
7.77
9.42
9.05
6.33
1.59
-4.48
-10.90
-16.75
-21.37
-24.36
-25.63
-25.20
-23.32
-20.28
-16.61
-12.88
-9.81
-8.00
-7.78
-9.17
-11.73
-14.94
-18.22
-21.24
-23.86
-26.22
-28.46
-30.69
-32.83
-34.61
-35.70
-35.81
-34.85
-33.01
-30.68
-28.26
-26.06
-24.21
-22.63
-21.24
-19.86
-18.33
-16.52
-14.23
-11.33
-7.83
-3.99
-0.17
3.18
5.78
7.62
8.89
9.94
11.10
12.58
14.27
15.97
17.39
18.38
18.99
19.33
19.61
19.92
20.19
20.24
19.95
19.21
18.12
16.77
15.24
13.54
11.60
9.33
6.73
3.88
0.87
-2.12
-4.88
-7.21
-8.97
-10.16
-10.86
-11.23
-11.43
-11.51
-11.43
-11.08
-10.48
-9.68
-8.76
-7.74
-6.46
-4.78
-2.68
-0.36
1.83
3.46
4.35
4.60
4.51
4.44
4.55
4.77
4.94
4.96
4.87
4.89
5.22
5.89
6.82
7.73
8.38
8.55
8.21
7.40
6.24
4.89
3.49
2.21
1.09
0.13
-0.74
-1.57
-2.28
-2.74
-2.76
-2.32
-1.49
-0.52
0.34
0.97
1.34
1.49
1.40
0.98
0.14
-1.04
-2.37
-3.45
-3.88
-3.49
-2.35
-0.81
0.72
1.84
2.42
2.41
2.01
1.44
0.86
0.42
0.15
0.05
0.08
0.25
0.59
1.19
2.07
3.17
4.39
5.53
6.45
7.10
7.49
7.68
7.67
7.38
6.72
5.66
4.24
2.61
0.95
-0.58
-1.93
-3.11
-4.23
-5.38
-6.46
-7.30
-7.64
-7.29
-6.16
-4.40
-2.19
0.16
2.33
4.14
5.42
6.08
6.12
5.65
4.85
4.03
3.36
2.91
2.69
2.63
2.76
3.05
3.44
3.74
3.82
3.55
2.91
2.12
1.36
0.81
0.52
0.34
0.06
-0.47
-1.22
-2.13
-3.04
-3.80
-4.35
-4.57
-4.58
-4.51
-4.62
-5.05
-5.81
-6.62
-7.05
-6.66
-5.25
-2.98
-0.23
2.47
4.86
6.80
8.39
9.67
10.57
10.93
10.58
9.51
7.93
6.21
4.64
3.49
2.78
2.41
2.22
2.03
1.71
1.27
0.83
0.50
0.39
0.49
0.64
0.65
0.35
-0.34
-1.35
-2.48
-3.55
-4.46
-5.21
-5.91
-6.66
-7.57
-8.65
-9.81
-10.84
-11.36
-10.97
-9.43
-6.74
-3.19
0.63
4.08
6.63
8.05
8.36
7.89
6.89
5.58
4.12
2.49
0.79
-0.86
-2.22
-3.02
-3.09
-2.46
-1.36
-0.09
1.06
1.98
2.70
3.29
3.77
4.05
3.99
3.51
2.67
1.63
0.58
-0.33
-1.14
-1.89
-2.70
-3.66
-4.76
-5.98
-7.28
-8.66
-10.16
-11.79
-13.43
-14.78
-15.49
-15.17
-13.66
-11.10
-7.90
-4.64
-1.79
0.41
2.00
3.16
4.09
4.86
5.42
5.66
5.52
5.03
4.33
3.69
3.26
3.17
3.38
3.62
3.66
3.35
2.69
1.80
0.90
0.04
-0.82
-1.80
-3.05
-4.49
-5.89
-7.03
-7.77
-8.12
-8.32
-8.68
-9.42
-10.69
-12.42
-14.40
-16.35
-17.99
-19.15
-19.95
-20.74
-21.90
-23.72
-26.00
-28.15
-29.46
-29.37
-27.81
-25.28
-22.51
-20.13
-18.51
-17.66
-17.42
-17.61
-17.81
-17.32
-15.02
-9.65
-0.49
12.18
26.98
41.74
54.28
63.24
68.25
69.84
68.94
66.38
62.66
58.11
52.99
47.63
42.38
37.40
32.58
27.66
22.46
17.00
11.68
7.04
3.55
1.36
0.21
-0.50
-1.43
-3.04
-5.37
-7.99
-10.21
-11.40
-11.24
-9.92
-7.95
-5.85
-3.85
-1.71
1.12
5.06
10.05
15.49
20.35
23.82
25.58
26.15
26.58
27.96
30.88
35.06
39.46
42.59
43.12
40.48
35.11
28.26
21.71
17.21
16.01
18.49
23.47
27.97
27.50
17.08
-6.54
-42.95
-87.12
-130.56
-164.17
-181.74
-182.01
-168.60
-147.61
-124.71
-102.92
-82.57
-62.72
-43.03
-24.74
-9.99
-0.59
3.26
3.15
1.80
1.49
3.10
5.94
8.19
8.12
4.82
-1.40
-9.52
-18.33
-26.98
-35.17
-42.99
-50.79
-58.92
-67.73
-77.49
-88.49
-100.72
-113.21
-123.47
-127.58
-121.51
-102.77
-71.85
-32.46
9.76
49.41
83.34
111.34
135.40
157.82
179.83
201.17
220.42
236.19
247.70
254.71
257.05
254.44
246.51
233.24
215.30
193.84
170.27
145.97
121.90
98.60
76.40
55.50
35.92
17.57
0.20
-16.37
-32.03
-46.33
-58.41
-67.33
-72.47
-74.01
-72.99
-71.01
-69.61
-69.48
-70.36
-71.03
-70.17
-67.04
-61.85
-55.62
-49.45
-43.91
-38.77
-33.48
-27.56
-21.25
-15.49
-11.35
-9.54
-9.86
-11.44
-13.06
-13.89
-13.76
-13.09
-12.55
-12.43
-12.65
-12.74
-12.29
-11.11
-9.35
-7.32
-5.22
-3.17
-1.10
0.90
2.58
3.55
3.42
2.04
-0.54
-4.00
-8.01
-12.29
-16.61
-20.77
-24.53
-27.70
-30.12
-31.79
-32.77
-33.17
-33.09
-32.65
-31.91
-30.98
-30.00
-29.19
-28.62
-28.33
-28.16
-27.87
-27.18
-25.87
-23.88
-21.34
-18.59
-15.98
-13.92
-12.63
-12.20
-12.44
-12.96
-13.30
-13.05
-12.02
-10.28
-8.15
-5.98
-4.14
-2.77
-1.86
-1.35
-1.16
-1.25
-1.62
-2.14
-2.60
-2.76
-2.46
-1.61
-0.33
1.24
2.94
4.63
6.25
7.78
9.20
10.44
11.43
12.07
12.30
12.04
11.21
9.77
7.84
5.57
3.23
1.03
-0.93
-2.58
-3.97
-5.25
-6.56
-7.90
-9.25
-10.27
-10.61
-9.91
-7.99
-5.03
-1.44
2.15
5.28
7.65
9.31
10.38
10.85
10.68
9.77
8.21
6.29
4.41
2.80
1.54
0.39
-0.95
-2.59
-4.46
-6.28
-7.72
-8.57
-8.84
-8.52
-7.76
-6.68
-5.27
-3.60
-1.83
-0.10
1.40
2.51
3.17
3.35
3.09
2.49
1.61
0.49
-0.69
-1.68
-2.10
-1.60
0.04
2.61
5.62
8.33
10.21
11.12
11.30
11.24
11.35
11.67
11.89
11.61
10.52
8.78
6.91
5.42
4.57
4.30
4.14
3.63
2.58
1.12
-0.45
-1.75
-2.74
-3.58
-4.45
-5.53
-6.76
-7.90
-8.60
-8.73
-8.25
-7.35
-6.29
-5.37
-4.89
-4.95
-5.49
-6.14
-6.42
-5.84
-4.21
-1.70
1.20
3.78
5.56
6.35
6.29
5.69
4.85
3.90
2.83
1.65
0.40
-0.64
-1.15
-0.88
0.23
1.95
3.84
5.35
6.15
6.13
5.56
4.80
4.24
4.08
4.17
4.22
3.85
2.84
1.17
-0.86
-2.91
-4.63
-5.77
-6.37
-6.51
-6.35
-6.03
-5.70
-5.47
-5.47
-5.77
-6.23
-6.66
-6.73
-6.16
-4.88
-3.07
-1.08
0.73
2.15
3.23
4.08
4.86
5.59
6.05
6.03
5.43
4.30
2.90
1.64
0.78
0.53
0.93
1.78
2.91
4.10
5.12
5.75
5.94
5.64
5.02
4.27
3.49
2.90
2.55
2.39
2.30
2.16
1.71
0.83
-0.54
-2.34
-4.29
-6.03
-7.30
-8.01
-8.30
-8.51
-9.03
-9.96
-11.16
-12.07
-12.19
-11.22
-9.20
-6.49
-3.62
-1.06
0.88
2.02
2.41
2.12
1.41
0.70
0.40
0.75
1.72
3.07
4.36
5.28
5.73
5.80
5.66
5.37
4.86
4.00
2.83
1.54
0.36
-0.43
-0.81
-0.91
-0.94
-1.12
-1.42
-1.73
-1.85
-1.69
-1.22
-0.60
0.03
0.52
0.80
0.89
0.84
0.65
0.20
-0.64
-2.03
-3.87
-5.80
-7.34
-8.01
-7.64
-6.41
-4.76
-3.19
-1.99
-1.15
-0.40
0.51
1.69
2.98
4.05
4.66
4.69
4.31
3.84
3.66
3.97
4.81
5.93
7.04
7.94
8.50
8.80
8.98
9.11
9.06
8.68
7.76
6.31
4.53
2.82
1.53
0.87
0.79
1.06
1.38
1.44
1.10
0.30
-0.91
-2.38
-3.83
-4.90
-5.24
-4.63
-3.14
-1.11
1.01
2.76
3.98
4.69
5.11
5.47
5.90
6.33
6.70
6.97
7.19
7.47
7.83
8.25
8.54
8.49
7.89
6.70
5.05
3.26
1.62
0.42
-0.23
-0.41
-0.27
-0.09
-0.12
-0.45
-1.03
-1.76
-2.41
-2.87
-3.04
-2.94
-2.55
-2.01
-1.39
-0.92
-0.79
-1.09
-1.68
-2.15
-2.01
-0.86
1.26
3.98
6.66
8.78
10.18
11.01
11.62
12.28
12.97
13.46
13.57
13.17
12.40
11.52
10.68
9.82
8.69
7.01
4.60
1.59
-1.73
-4.98
-7.83
-10.18
-12.07
-13.73
-15.40
-17.30
-19.55
-22.06
-24.63
-26.91
-28.67
-29.89
-30.91
-32.25
-34.43
-37.70
-41.88
-46.45
-50.70
-54.08
-56.36
-57.71
-58.63
-59.74
-61.48
-63.97
-67.07
-70.42
-73.51
-75.74
-76.35
-74.50
-69.56
-61.51
-51.05
-39.36
-27.17
-14.11
1.48
21.57
46.90
75.70
103.87
126.37
139.42
142.19
136.82
127.17
116.88
108.03
101.00
95.31
90.55
86.83
84.50
83.48
83.01
81.92
79.05
73.82
66.39
57.43
47.74
38.04
28.63
19.39
9.99
0.03
-10.64
-21.75
-32.51
-41.95
-49.12
-53.51
-55.01
-53.59
-49.31
-42.41
-33.92
-26.01
-21.68
-23.64
-32.85
-47.58
-63.76
-76.64
-82.74
-81.30
-74.22
-64.61
-55.12
-46.86
-39.39
-31.57
-22.93
-13.93
-5.81
0.25
3.82
5.52
6.55
8.09
10.79
14.42
18.30
21.61
23.86
24.98
25.26
25.01
24.48
23.71
22.47
20.66
18.25
15.51
13.02
11.47
11.47
13.24
16.45
20.24
23.63
25.84
26.58
26.05
24.68
22.86
20.69
18.07
14.85
11.09
7.06
3.32
0.48
-1.00
-0.94
0.52
2.99
5.85
8.50
10.42
11.38
11.48
11.09
10.62
10.36
10.38
10.46
10.27
9.56
8.25
6.45
4.46
2.54
0.79
-0.78
-2.24
-3.49
-4.35
-4.58
-4.03
-2.66
-0.73
1.36
3.17
4.32
4.69
4.21
2.87
0.64
-2.47
-6.39
-10.89
-15.54
-19.89
-23.44
-25.95
-27.34
-27.82
-27.68
-27.22
-26.61
-25.79
-24.65
-23.09
-21.21
-19.12
-17.13
-15.48
-14.33
-13.65
-13.33
-13.23
-13.07
-12.60
-11.58
-9.91
-7.77
-5.52
-3.56
-2.23
-1.63
-1.49
-1.39
-1.04
-0.39
0.34
0.89
1.05
0.86
0.57
0.43
0.52
0.73
0.81
0.54
0.02
-0.55
-0.75
-0.36
0.69
2.01
3.24
4.12
4.48
4.46
4.20
3.94
3.78
3.83
4.02
4.27
4.43
4.31
3.77
2.79
1.50
0.12
-1.15
-2.26
-3.21
-4.14
-5.15
-6.18
-7.11
-7.72
-7.72
-6.90
-5.15
-2.62
0.32
3.08
5.24
6.50
6.90
6.73
6.30
5.82
5.34
4.80
4.05
3.11
2.12
1.28
0.82
0.81
1.20
1.83
2.52
3.14
3.60
3.94
4.19
4.38
4.48
4.37
3.96
3.21
2.15
0.78
-0.88
-2.84
-4.98
-7.15
-9.15
-10.79
-11.96
-12.63
-12.88
-12.83
-12.59
-12.24
-11.77
-11.14
-10.22
-8.93
-7.22
-5.21
-3.17
-1.43
-0.30
0.15
0.01
-0.45
-1.01
-1.55
-2.05
-2.53
-3.05
-3.57
-4.05
-4.41
-4.59
-4.57
-4.40
-4.24
-4.22
-4.56
-5.31
-6.37
-7.56
-8.69
-9.70
-10.65
-11.56
-12.24
-12.25
-11.12
-8.53
-4.57
0.14
4.75
8.52
11.05
12.38
12.85
12.76
12.32
11.54
10.43
9.10
7.85
7.12
7.28
8.47
10.46
12.90
15.23
17.12
18.40
19.14
19.41
19.27
18.67
17.46
15.68
13.37
10.76
8.12
5.70
3.64
2.06
0.94
0.15
-0.48
-1.12
-1.78
-2.35
-2.62
-2.41
-1.72
-0.77
0.12
0.61
0.54
-0.04
-0.97
-2.05
-3.12
-4.12
-4.98
-5.64
-6.07
-6.20
-6.15
-6.14
-6.44
-7.27
-8.64
-10.26
-11.70
-12.52
-12.43
-11.50
-10.03
-8.40
-6.86
-5.62
-4.71
-4.19
-4.07
-4.32
-4.81
-5.41
-6.10
-7.11
-9.06
-12.50
-17.67
-24.05
-30.52
-35.71
-38.69
-39.39
-38.59
-37.49
-36.98
-37.38
-38.37
-39.44
-40.21
-40.44
-39.73
-37.35
-32.30
-23.79
-12.03
1.58
14.80
25.52
32.55
36.16
37.56
38.20
39.02
40.15
41.19
41.83
42.17
42.71
43.96
46.00
48.35
50.33
51.38
51.37
50.73
50.04
49.68
49.64
49.53
48.84
47.44
45.52
43.67
42.44
42.07
42.31
42.49
41.67
38.93
33.68
25.89
16.42
6.92
-0.58
-4.40
-4.06
-0.63
3.56
5.72
3.68
-3.40
-14.95
-29.47
-45.29
-60.95
-75.39
-87.68
-96.93
-102.31
-103.30
-100.05
-93.48
-85.10
-76.56
-69.20
-63.61
-59.60
-56.41
-53.11
-49.20
-44.95
-41.31
-39.53
-40.55
-44.50
-50.64
-57.70
-64.50
-70.55
-76.19
-82.07
-88.31
-93.96
-96.97
-95.00
-86.56
-71.96
-53.65
-35.49
-21.46
-14.32
-14.98
-22.57
-34.97
-49.32
-62.47
-71.29
-73.09
-66.31
-51.04
-29.26
-4.54
19.00
38.28
52.68
64.56
78.37
98.56
127.40
163.60
202.54
237.88
263.76
276.69
276.32
265.20
247.91
229.91
216.36
210.98
214.89
225.98
239.25
248.53
248.56
236.88
214.35
184.25
150.60
116.91
85.61
58.32
36.34
20.34
9.62
1.73
-7.18
-20.84
-40.78
-65.57
-91.23
-112.93
-127.33
-133.67
-133.27
-128.47
-121.27
-113.08
-104.87
-97.71
-92.45
-89.30
-87.41
-85.30
-81.76
-76.55
-70.42
-64.38
-58.95
-53.77
-48.22
-42.07
-36.06
-31.57
-29.73
-30.67
-33.45
-36.67
-39.14
-40.44
-40.68
-40.30
-39.63
-38.74
-37.56
-36.02
-34.16
-32.01
-29.61
-26.97
-24.20
-21.49
-19.02
-16.87
-14.91
-12.80
-10.26
-7.39
-4.76
-3.23
-3.49
-5.50
-8.38
-10.86
-11.81
-10.86
-8.44
-5.41
-2.64
-0.48
1.19
2.63
3.97
4.97
5.24
4.55
2.99
1.00
-0.85
-2.12
-2.70
-2.75
-2.49
-2.10
-1.62
-0.97
-0.19
0.63
1.32
1.70
1.80
1.83
2.12
2.71
3.43
3.81
3.39
1.92
-0.56
-3.61
-6.69
-9.24
-10.90
-11.46
-10.93
-9.48
-7.39
-5.04
-2.71
-0.60
1.30
2.93
4.33
5.36
5.81
5.58
4.62
3.06
1.06
-1.24
-3.74
-6.26
-8.56
-10.34
-11.23
-11.09
-9.99
-8.30
-6.54
-5.12
-4.18
-3.63
-3.30
-3.00
-2.82
-2.95
-3.59
-4.88
-6.67
-8.65
-10.48
-11.94
-12.80
-13.03
-12.64
-11.52
-9.59
-6.72
-2.87
1.82
6.93
11.91
16.16
19.26
21.14
21.95
22.00
21.56
20.67
19.35
17.66
15.78
14.02
12.77
12.18
12.24
12.66
13.06
13.14
12.82
12.12
11.26
10.49
9.84
9.30
8.72
7.87
6.59
4.80
2.51
-0.12
-2.84
-5.49
-7.92
-10.11
-12.16
-14.22
-16.43
-18.77
-21.01
-22.64
-23.10
-21.95
-19.01
-14.59
-9.30
-3.96
0.78
4.52
7.25
9.20
10.63
11.65
12.15
12.05
11.30
10.16
9.08
8.49
8.66
9.58
10.89
12.10
12.89
13.15
12.97
12.58
12.15
11.71
11.11
10.20
8.84
7.08
5.06
2.95
0.92
-0.93
-2.57
-4.09
-5.53
-6.93
-8.21
-9.23
-9.87
-10.09
-10.04
-10.03
-10.37
-11.24
-12.35
-13.19
-13.14
-11.85
-9.48
-6.60
-3.88
-1.72
-0.14
1.21
2.64
4.19
5.63
6.58
6.86
6.59
6.13
5.84
5.86
6.11
6.39
6.64
6.92
7.34
7.98
8.79
9.51
9.88
9.72
9.02
7.98
6.86
5.88
5.18
4.77
4.50
4.18
3.62
2.62
1.09
-1.02
-3.73
-6.81
-9.87
-12.34
-13.69
-13.50
-11.70
-8.53
-4.38
0.23
4.90
9.16
12.49
14.31
14.18
11.92
7.81
2.57
-2.90
-7.74
-11.47
-13.96
-15.37
-15.95
-16.06
-15.96
-15.85
-15.83
-15.79
-15.49
-14.68
-13.21
-11.12
-8.71
-6.41
-4.50
-3.10
-2.14
-1.42
-0.81
-0.30
0.10
0.26
0.11
-0.23
-0.69
-1.11
-1.39
-1.47
-1.38
-1.16
-0.91
-0.80
-0.93
-1.49
-2.56
-4.04
-5.67
-7.06
-7.79
-7.58
-6.43
-4.51
-2.27
-0.11
1.69
3.01
3.87
4.49
5.01
5.55
6.22
6.97
7.74
8.46
9.10
9.66
10.14
10.49
10.53
10.17
9.29
8.01
6.57
5.30
4.45
4.10
4.06
4.04
3.83
3.28
2.48
1.60
0.80
0.18
-0.29
-0.71
-1.18
-1.73
-2.31
-2.91
-3.45
-3.95
-4.36
-4.60
-4.53
-3.96
-2.90
-1.39
0.33
2.00
3.48
4.78
6.05
7.47
9.07
10.68
12.05
12.89
13.06
12.62
11.80
10.95
10.35
10.20
10.43
10.84
11.07
10.86
10.10
8.87
7.43
6.00
4.73
3.55
2.33
0.98
-0.46
-1.66
-2.41
-2.51
-2.02
-1.13
-0.13
0.72
1.22
1.21
0.70
-0.34
-1.66
-2.96
-3.87
-4.16
-3.86
-3.14
-2.37
-1.75
-1.46
-1.38
-1.44
-1.59
-1.82
-2.14
-2.47
-2.72
-2.72
-2.42
-1.78
-0.90
0.15
1.30
2.42
3.41
4.08
4.31
4.13
3.66
3.14
2.79
2.74
2.85
2.97
2.86
2.38
1.62
0.74
-0.11
-0.87
-1.53
-2.21
-3.03
-3.96
-4.99
-6.02
-6.92
-7.69
-8.35
-8.96
-9.50
-9.99
-10.37
-10.67
-10.94
-11.17
-11.33
-11.17
-10.50
-9.14
-7.16
-4.82
-2.54
-0.66
0.68
1.52
2.12
2.56
2.84
2.82
2.42
1.64
0.68
-0.10
-0.51
-0.39
0.15
0.81
1.27
1.36
1.07
0.53
0.01
-0.38
-0.63
-0.88
-1.39
-2.27
-3.54
-4.95
-6.21
-7.04
-7.38
-7.35
-7.20
-7.20
-7.39
-7.76
-8.17
-8.52
-8.76
-8.92
-8.92
-8.58
-7.74
-6.25
-4.18
-1.85
0.37
2.17
3.40
4.07
4.31
4.20
3.79
3.04
1.97
0.71
-0.56
-1.60
-2.31
-2.68
-2.81
-2.81
-2.81
-2.90
-3.05
-3.24
-3.43
-3.57
-3.59
-3.46
-3.08
-2.49
-1.82
-1.24
-0.94
-1.02
-1.41
-1.97
-2.53
-3.02
-3.51
-4.20
-5.27
-6.74
-8.42
-9.91
-10.78
-10.71
-9.63
-7.75
-5.43
-3.01
-0.76
1.27
3.11
4.75
6.12
6.98
7.15
6.50
5.12
3.23
1.21
-0.56
-1.82
-2.46
-2.58
-2.45
-2.33
-2.34
-2.44
-2.43
-2.14
-1.59
-1.03
-0.76
-1.04
-1.86
-2.92
-3.78
-4.13
-3.95
-3.42
-2.85
-2.45
-2.27
-2.30
-2.53
-2.98
-3.79
-4.99
-6.40
-7.61
-8.19
-7.80
-6.39
-4.22
-1.78
0.46
2.20
3.36
4.13
4.81
5.59
6.54
7.51
8.14
8.27
7.87
7.15
6.39
5.83
5.52
5.32
5.10
4.73
4.35
4.17
4.32
4.76
5.28
5.61
5.52
4.93
3.97
2.90
1.98
1.36
1.10
1.08
1.05
0.73
-0.08
-1.39
-2.90
-4.24
-5.05
-5.15
-4.66
-3.82
-2.86
-1.84
-0.73
0.63
2.12
3.51
4.39
4.48
3.75
2.47
1.15
0.18
-0.24
-0.22
-0.03
0.13
0.17
0.17
0.21
0.30
0.29
0.02
-0.64
-1.62
-2.72
-3.82
-4.85
-5.92
-7.19
-8.75
-10.43
-11.90
-12.73
-12.46
-10.83
-7.73
-3.27
2.25
8.31
14.33
19.76
24.14
27.26
29.10
29.82
29.57
28.44
26.40
23.49
19.80
15.58
11.22
7.14
3.66
0.95
-1.18
-3.04
-4.96
-7.19
-9.81
-12.70
-15.59
-18.22
-20.28
-21.63
-22.27
-22.42
-22.56
-23.20
-24.58
-26.42
-27.76
-27.16
-23.37
-15.86
-5.19
7.14
19.34
29.81
37.57
42.37
44.37
43.80
40.80
35.54
28.40
20.20
11.93
4.60
-1.14
-5.14
-7.76
-9.68
-11.52
-13.73
-16.31
-19.16
-21.98
-24.50
-26.37
-27.10
-26.12
-22.99
-17.70
-10.61
-2.63
5.24
12.10
17.36
20.80
22.38
22.17
20.30
17.19
13.40
9.58
6.19
3.31
0.80
-1.55
-3.63
-5.18
-5.78
-5.26
-3.88
-2.24
-1.05
-0.62
-0.90
-1.49
-2.03
-2.39
-2.72
-3.23
-3.99
-4.88
-5.54
-5.68
-5.16
-4.12
-2.91
-1.91
-1.42
-1.42
-1.82
-2.34
-2.84
-3.27
-3.74
-4.40
-5.28
-6.26
-7.03
-7.37
-7.28
-6.98
-6.79
-6.93
-7.44
-8.15
-8.86
-9.42
-9.77
-9.80
-9.32
-8.03
-5.74
-2.65
0.65
3.36
4.87
5.04
4.31
3.30
2.54
2.11
1.66
0.74
-0.88
-2.97
-4.97
-6.27
-6.65
-6.29
-5.75
-5.58
-6.01
-7.04
-8.43
-9.89
-11.26
-12.50
-13.57
-14.44
-15.03
-15.29
-15.26
-15.06
-14.77
-14.36
-13.76
-12.91
-11.88
-10.90
-10.25
-10.16
-10.66
-11.54
-12.37
-12.71
-12.15
-10.54
-7.96
-4.68
-1.09
2.50
5.79
8.55
10.63
11.90
12.35
12.02
11.16
10.06
9.12
8.56
8.41
8.52
8.65
8.58
8.20
7.53
6.72
5.93
5.33
5.00
4.89
4.80
4.43
3.47
1.80
-0.34
-2.39
-3.50
-3.06
-0.90
2.51
6.31
9.51
11.43
11.89
11.12
9.61
7.93
6.46
5.48
5.15
5.53
6.62
8.31
10.34
12.30
13.82
14.59
14.54
13.81
12.65
11.39
10.24
9.23
8.32
7.43
6.54
5.75
5.12
4.58
4.06
3.42
2.67
2.05
1.81
2.13
2.98
3.96
4.54
4.27
2.98
0.92
-1.31
-3.13
-4.21
-4.59
-4.69
-5.06
-6.11
-7.98
-10.45
-13.03
-15.18
-16.38
-16.36
-15.10
-12.81
-9.80
-6.43
-3.00
0.28
3.25
5.84
7.91
9.34
10.05
10.09
9.53
8.64
7.72
7.05
6.82
7.02
7.42
7.72
7.59
6.93
5.88
4.75
3.84
3.25
2.85
2.35
1.55
0.37
-0.98
-2.17
-2.98
-3.39
-3.52
-3.61
-3.81
-4.14
-4.53
-4.92
-5.33
-5.88
-6.53
-7.13
-7.30
-6.64
-4.96
-2.41
0.54
3.34
5.51
7.00
7.92
8.55
9.01
9.39
9.60
9.55
9.30
8.91
8.61
8.49
8.64
9.07
9.68
10.39
11.02
11.44
11.51
11.19
10.50
9.52
8.37
7.06
5.62
4.05
2.39
0.75
-0.75
-2.05
-3.15
-4.08
-4.95
-5.76
-6.50
-7.09
-7.50
-7.78
-8.03
-8.44
-9.18
-10.40
-12.12
-14.22
-16.29
-17.76
-18.04
-16.76
-13.97
-10.12
-5.93
-2.05
1.06
3.36
4.99
6.11
6.75
6.79
6.20
5.14
3.97
3.08
2.72
2.88
3.37
3.96
4.53
4.99
5.42
5.81
6.12
6.33
6.45
6.51
6.54
6.48
6.14
5.43
4.38
3.22
2.26
1.73
1.62
1.70
1.68
1.35
0.75
0.11
-0.29
-0.39
-0.36
-0.54
-1.27
-2.74
-4.90
-7.62
-10.59
-13.40
-15.51
-16.43
-15.76
-13.37
-9.64
-5.20
-0.90
2.63
5.06
6.57
7.41
7.88
8.12
8.06
7.63
6.89
6.02
5.29
4.97
5.19
5.89
6.92
8.03
9.03
9.87
10.54
11.14
11.64
11.96
11.91
11.32
10.11
8.41
6.51
4.79
3.56
2.87
2.52
2.14
1.36
-0.10
-2.21
-4.74
-7.30
-9.44
-10.89
-11.57
-11.61
-11.27
-10.88
-10.69
-10.79
-11.16
-11.52
-11.44
-10.52
-8.52
-5.45
-1.64
2.43
6.20
9.17
11.14
12.11
12.24
11.74
10.79
9.55
8.16
6.78
5.55
4.65
4.15
4.12
4.44
4.92
5.34
5.59
5.66
5.63
5.55
5.38
5.01
4.28
3.15
1.67
0.08
-1.34
-2.44
-3.26
-4.05
-5.00
-6.21
-7.59
-8.96
-10.11
-10.95
-11.58
-12.20
-12.99
-14.11
-15.61
-17.49
-19.61
-21.78
-23.53
-24.30
-23.47
-20.61
-15.68
-9.12
-1.67
5.80
12.61
18.49
23.46
27.69
31.20
33.76
34.93
34.31
31.83
27.93
23.39
19.15
15.83
13.60
12.17
11.09
9.99
8.69
7.34
6.07
4.96
3.86
2.55
0.83
-1.29
-3.58
-5.77
-7.64
-9.20
-10.52
-11.75
-12.89
-13.86
-14.40
-14.38
-13.85
-13.04
-12.40
-12.27
-12.81
-13.92
-15.24
-16.22
-16.27
-15.02
-12.27
-8.23
-3.28
2.02
7.12
11.62
15.23
17.79
19.21
19.58
19.04
17.88
16.40
14.84
13.32
11.84
10.29
8.61
6.82
5.03
3.36
1.97
0.92
0.25
-0.06
-0.14
-0.13
-0.25
-0.71
-1.64
-3.04
-4.82
-6.75
-8.61
-10.18
-11.39
-12.32
-13.15
-14.07
-15.21
-16.58
-18.04
-19.34
-20.16
-20.20
-19.22
-17.10
-13.96
-10.16
-6.19
-2.58
0.31
2.40
3.81
4.75
5.39
5.81
5.91
5.66
5.10
4.42
3.97
4.04
4.76
6.09
7.75
9.36
10.56
11.12
10.97
10.23
9.06
7.57
5.87
3.91
1.68
-0.74
-3.25
-5.62
-7.59
-9.07
-10.06
-10.68
-11.17
-11.74
-12.48
-13.42
-14.46
-15.34
-15.75
-15.34
-13.84
-11.24
-7.76
-3.82
0.01
3.25
5.56
6.85
7.21
6.83
5.91
4.64
3.23
1.77
0.42
-0.64
-1.28
-1.32
-0.77
0.26
1.53
2.85
3.97
4.83
5.42
5.70
5.65
5.16
4.18
2.75
1.09
-0.58
-2.03
-3.13
-3.88
-4.41
-5.01
-5.96
-7.53
-9.69
-12.21
-14.50
-15.87
-15.80
-14.08
-10.98
-7.12
-3.18
0.32
3.12
5.25
6.85
8.01
8.79
9.15
9.06
8.54
7.71
6.77
5.87
5.20
4.79
4.66
4.77
5.05
5.46
5.93
6.36
6.57
6.41
5.68
4.39
2.69
0.84
-0.87
-2.31
-3.41
-4.23
-4.87
-5.48
-6.27
-7.40
-8.94
-10.71
-12.27
-12.94
-12.17
-9.78
-6.08
-1.83
2.19
5.36
7.51
8.79
9.48
9.78
9.68
9.17
8.24
7.11
6.10
5.55
5.64
6.30
7.27
8.17
8.71
8.70
8.23
7.45
6.55
5.54
4.32
2.77
0.83
-1.32
-3.50
-5.42
-7.00
-8.34
-9.56
-10.81
-12.16
-13.61
-15.11
-16.57
-17.72
-18.19
-17.53
-15.42
-11.87
-7.36
-2.66
1.50
4.58
6.56
7.73
8.43
8.89
9.09
8.89
8.17
7.07
5.89
5.04
4.85
5.40
6.54
7.85
8.87
9.30
9.10
8.46
7.70
7.02
6.42
5.67
4.45
2.51
-0.10
-3.09
-6.13
-8.83
-11.05
-12.83
-14.26
-15.45
-16.49
-17.39
-18.14
-18.76
-19.11
-18.90
-17.84
-15.72
-12.50
-8.51
-4.25
-0.29
2.93
5.22
6.64
7.41
7.79
8.03
8.21
8.36
8.35
8.06
7.47
6.66
5.89
5.36
5.23
5.34
5.48
5.37
4.85
4.00
2.99
1.98
1.08
0.26
-0.64
-1.81
-3.34
-5.17
-7.03
-8.58
-9.56
-9.84
-9.49
-8.78
-7.99
-7.40
-7.24
-7.71
-8.97
-10.89
-12.99
-14.42
-14.20
-11.65
-6.72
-0.01
7.45
14.60
20.79
25.68
29.12
31.01
31.19
29.64
26.64
22.78
18.78
15.26
12.50
10.46
8.96
7.87
7.15
6.77
6.68
6.72
6.74
6.57
6.14
5.40
4.27
2.63
0.42
-2.32
-5.29
-8.04
-10.14
-11.35
-11.75
-11.66
-11.47
-11.48
-11.87
-12.62
-13.60
-14.58
-15.26
-15.21
-14.06
-11.60
-8.05
-3.85
0.32
3.85
6.37
7.81
8.33
8.14
7.49
6.40
5.05
3.58
2.20
1.22
0.85
1.22
2.25
3.73
5.26
6.56
7.46
7.95
8.18
8.26
8.23
7.92
7.17
5.88
4.08
2.03
0.01
-1.65
-2.80
-3.45
-3.79
-4.09
-4.66
-5.69
-7.13
-8.66
-9.67
-9.60
-8.09
-5.21
-1.52
2.28
5.49
7.79
9.12
9.75
9.93
9.80
9.44
8.82
7.99
7.02
6.10
5.42
5.10
5.17
5.51
5.88
6.03
5.74
4.95
3.79
2.52
1.34
0.37
-0.47
-1.38
-2.49
-3.82
-5.13
-6.22
-6.81
-6.90
-6.69
-6.49
-6.63
-7.29
-8.43
-9.86
-11.39
-12.79
-13.84
-14.31
-13.95
-12.57
-10.14
-6.83
-3.10
0.48
3.42
5.49
6.71
7.28
7.37
7.09
6.46
5.48
4.22
2.88
1.73
0.96
0.74
0.99
1.58
2.24
2.75
3.00
3.01
2.87
2.64
2.38
1.93
1.15
-0.11
-1.79
-3.67
-5.41
-6.74
-7.61
-8.11
-8.52
-8.95
-9.51
-10.12
-10.67
-11.10
-11.46
-11.95
-12.73
-13.97
-15.58
-17.24
-18.36
-18.30
-16.62
-13.26
-8.66
-3.64
0.88
4.18
5.99
6.44
6.03
5.26
4.58
4.09
3.71
3.25
2.48
1.43
0.29
-0.56
-0.84
-0.38
0.64
1.83
2.75
2.99
2.32
0.61
-2.01
-5.31
-8.61
-10.90
-11.01
-8.05
-1.82
6.97
16.75
25.76
32.49
36.26
37.18
35.89
33.12
29.41
25.07
20.25
15.11
9.82
4.65
-0.11
-4.17
-7.23
-9.02
-9.33
-8.21
-5.93
-3.03
-0.12
2.29
3.84
4.48
4.36
3.84
3.23
2.73
2.39
2.12
1.92
1.83
1.99
2.49
3.23
3.93
4.32
4.19
3.67
2.98
2.35
1.88
1.47
0.90
-0.01
-1.20
-2.55
-3.85
-4.93
-5.75
-6.35
-6.78
-7.13
-7.48
-7.83
-8.16
-8.52
-8.88
-9.33
-9.91
-10.60
-11.19
-11.39
-10.83
-9.33
-6.86
-3.60
0.13
4.03
7.74
11.02
13.55
15.13
15.61
15.06
13.70
11.78
9.50
7.09
4.75
2.72
1.25
0.44
0.23
0.38
0.63
0.82
1.00
1.22
1.53
1.76
1.60
0.77
-0.81
-2.93
-5.18
-7.14
-8.58
-9.52
-10.13
-10.67
-11.22
-11.69
-11.96
-11.97
-11.88
-11.94
-12.28
-12.65
-12.61
-11.55
-9.09
-5.35
-0.89
3.51
7.16
9.69
11.12
11.54
11.17
10.15
8.57
6.58
4.35
2.15
0.23
-1.11
-1.70
-1.43
-0.43
1.03
2.58
3.90
4.84
5.38
5.68
5.77
5.60
5.07
4.07
2.72
1.18
-0.30
-1.59
-2.65
-3.52
-4.22
-4.69
-5.03
-5.29
-5.61
-6.08
-6.70
-7.46
-8.29
-9.17
-10.04
-10.75
-10.96
-10.35
-8.69
-6.11
-3.06
-0.13
2.13
3.45
3.92
3.83
3.46
3.00
2.45
1.75
0.83
-0.26
-1.43
-2.56
-3.56
-4.46
-5.34
-6.20
-6.96
-7.34
-6.95
-5.45
-2.73
0.98
5.02
8.63
11.16
12.24
12.03
10.97
9.76
8.96
8.85
9.24
9.74
9.80
9.06
7.49
5.28
2.72
-0.01
-2.95
-6.23
-9.75
-13.14
-15.74
-16.94
-16.50
-14.80
-12.56
-10.63
-9.57
-9.38
-9.67
-9.91
-9.70
-9.03
-8.23
-7.72
-7.83
-8.61
-9.77
-10.82
-11.33
-10.97
-9.76
-7.94
-5.85
-3.86
-2.22
-1.00
-0.21
0.26
0.60
0.79
0.82
0.59
-0.03
-0.96
-1.97
-2.78
-3.26
-3.34
-3.25
-3.07
-2.63
-1.57
0.43
3.42
6.87
9.98
12.05
12.83
12.72
12.48
12.73
13.56
14.56
15.03
14.47
12.92
10.87
9.13
8.36
8.79
10.20
12.12
13.98
15.46
16.48
17.12
17.53
17.74
17.53
16.68
15.04
12.67
9.84
7.00
4.44
2.30
0.48
-1.26
-3.08
-4.94
-6.67
-8.05
-8.90
-9.27
-9.34
-9.34
-9.43
-9.64
-9.97
-10.44
-11.13
-12.02
-13.01
-13.81
-14.02
-13.35
-11.76
-9.46
-6.87
-4.39
-2.21
-0.47
0.82
1.64
1.96
1.82
1.35
0.75
0.35
0.35
0.73
1.29
1.80
2.06
2.08
1.97
1.92
2.10
2.52
2.96
3.14
2.87
2.07
0.92
-0.30
-1.33
-1.99
-2.22
-2.19
-2.10
-2.16
-2.57
-3.44
-4.73
-6.28
-7.78
-8.78
-8.92
-8.06
-6.35
-4.18
-1.97
-0.02
1.55
2.82
3.95
4.98
5.89
6.51
6.71
6.51
6.05
5.57
5.31
5.34
5.56
5.74
5.58
4.91
3.79
2.51
1.43
0.73
0.41
0.21
-0.12
-0.73
-1.56
-2.42
-3.05
-3.36
-3.40
-3.30
-3.20
-3.19
-3.35
-3.79
-4.65
-5.92
-7.45
-8.82
-9.45
-8.88
-7.02
-4.16
-0.88
2.24
4.86
6.87
8.39
9.65
10.74
11.60
12.14
12.29
12.07
11.66
11.24
11.02
11.08
11.40
11.73
11.74
11.03
9.35
6.71
3.33
-0.33
-3.77
