1657533383.00
64.000000
-0.00
-0.00
-0.00
-0.00
-0.00
-0.00
-0.00
-0.00
-0.00
-0.00
0.00
0.01
0.01
-0.00
-0.03
-0.05
-0.05
0.00
0.13
0.36
0.66
1.01
1.37
1.72
2.06
2.40
2.79
3.24
3.80
4.42
5.06
5.66
6.20
6.68
7.15
7.68
8.31
9.14
10.09
11.04
11.88
12.56
13.14
13.76
14.65
15.96
17.91
20.32
22.90
25.38
27.58
29.57
31.68
34.32
37.81
42.54
48.15
54.10
59.83
64.97
69.58
74.14
79.34
85.71
93.76
103.00
112.62
121.73
129.77
136.75
143.30
150.75
157.77
166.64
177.95
191.79
206.97
220.57
228.25
225.36
208.53
176.87
132.76
80.05
23.07
-34.94
-92.44
-149.16
-205.23
-260.37
-313.74
-363.87
-409.83
-450.91
-486.50
-515.74
-537.23
-549.22
-549.96
-538.37
-514.21
-478.67
-433.88
-382.45
-327.02
-269.84
-212.63
-156.66
-102.95
-52.37
-5.90
35.58
71.43
101.35
125.50
144.38
158.69
169.15
176.37
180.75
182.57
182.07
179.51
175.23
169.65
163.18
156.15
148.81
141.30
133.69
126.02
118.33
110.69
103.16
95.80
88.68
81.83
75.25
68.95
62.95
57.25
51.86
46.78
42.03
37.59
33.45
29.61
26.07
22.81
19.83
17.11
14.67
12.48
10.54
8.83
7.35
6.07
4.97
4.05
3.27
2.62
2.09
1.65
1.30
1.01
0.79
0.61
0.48
0.37
0.29
0.24
0.20
0.18
0.18
0.18
0.20
0.22
0.25
0.28
0.32
0.37
0.42
0.46
0.51
0.56
0.61
0.66
0.72
0.78
0.84
0.91
0.98
1.06
1.14
1.25
1.39
1.55
1.73
1.91
2.07
2.19
2.27
2.36
2.49
2.70
3.00
3.37
3.77
4.17
4.55
4.94
5.35
5.84
6.44
7.14
7.88
8.61
9.27
9.83
10.34
10.89
11.61
12.62
13.89
15.31
16.64
17.65
18.18
18.27
18.12
17.97
17.98
18.04
17.74
16.48
13.77
9.35
3.47
-3.29
-10.10
-16.29
-21.62
-26.35
-31.04
-36.15
-41.80
-47.51
-52.36
-55.43
-56.37
-55.42
-53.54
-51.93
-51.47
-52.54
-55.20
-59.33
-64.69
-70.40
-74.65
-74.81
-68.38
-54.32
-33.99
-10.86
10.89
28.28
40.63
49.10
55.12
58.67
58.07
51.54
39.30
24.74
13.40
10.23
16.76
30.18
44.90
55.28
57.74
51.59
38.15
19.54
-1.59
-21.79
-36.57
-41.34
-33.37
-13.91
11.50
34.66
47.98
47.70
35.03
15.31
-4.75
-19.47
-25.53
-21.83
-8.51
13.12
40.12
67.58
88.78
96.64
86.50
59.04
21.52
-13.88
-34.32
-31.33
-4.16
40.19
89.94
133.16
161.62
172.39
167.11
150.23
127.26
103.61
84.13
72.66
71.60
81.53
101.01
126.90
155.05
181.27
202.01
214.89
218.92
214.45
202.89
186.19
166.28
144.53
121.42
96.53
68.96
37.90
3.43
-32.94
-68.41
-99.54
-123.36
-138.34
-144.81
-144.73
-140.86
-135.75
-131.18
-128.06
-126.71
-127.45
-130.81
-137.59
-148.51
-163.92
-183.55
-206.50
-231.51
-257.25
-282.70
-307.33
-330.77
-352.43
-370.93
-384.00
-388.85
-383.07
-365.45
-336.39
-297.76
-252.28
-203.13
-153.57
-107.03
-66.78
-35.40
-13.98
-1.53
4.87
9.14
14.86
24.15
37.27
53.04
69.65
85.43
99.27
110.69
119.71
126.75
132.55
138.03
144.15
151.70
161.31
173.18
187.12
202.43
217.95
232.46
244.96
255.07
263.01
269.23
274.01
277.19
278.21
276.47
271.79
264.57
255.61
245.77
235.61
225.25
214.51
203.15
191.00
178.11
164.61
150.61
136.05
120.66
104.07
86.04
66.82
47.32
28.96
13.25
1.24
-6.89
-11.92
-15.28
-18.53
-22.74
-28.17
-34.22
-39.79
-43.70
-44.95
-42.83
-36.91
-27.25
-14.59
-0.62
12.25
21.38
24.73
21.54
12.44
-0.76
-15.73
-30.33
-43.01
-52.98
-60.09
-64.51
-66.59
-66.59
-64.71
-61.16
-56.36
-51.04
-46.19
-42.77
-41.23
-41.39
-42.61
-44.37
-46.66
-50.10
-55.43
-62.93
-71.99
-81.31
-89.51
-95.83
-100.63
-105.24
-111.36
-120.13
-131.63
-144.69
-157.22
-166.96
-172.08
-171.74
-166.14
-156.30
-143.69
-129.78
-115.69
-102.09
-89.30
-77.44
-66.62
-56.99
-48.68
-41.73
-36.00
-31.20
-27.06
-23.35
-20.08
-17.41
-15.58
-14.66
-14.51
-14.78
-15.00
-14.82
-14.16
-13.22
-12.31
-11.69
-11.40
-11.21
-10.79
-9.91
-8.59
-7.09
-5.80
-5.11
-5.20
-6.03
-7.30
-8.61
-9.60
-10.11
-10.16
-9.92
-9.58
-9.15
-8.47
-7.30
-5.52
-3.22
-0.79
1.34
2.87
3.75
4.20
4.51
4.94
5.65
6.74
8.25
10.15
12.30
14.44
16.24
17.43
17.92
17.90
17.70
17.66
17.97
18.62
19.35
19.79
19.48
17.96
14.94
10.32
4.26
-2.81
-10.29
-17.59
-24.34
-30.49
-36.48
-43.00
-50.83
-60.42
-71.67
-83.86
-95.82
-106.25
-114.06
-118.65
-119.82
-117.78
-112.96
-106.00
-97.62
-88.72
-80.16
-72.64
-66.57
-61.96
-58.62
-56.29
-54.72
-53.65
-52.58
-50.66
-46.68
-39.43
-28.06
-12.61
5.84
25.33
43.61
58.89
70.37
78.49
84.48
89.84
95.55
101.77
107.82
112.60
115.17
115.22
113.26
110.36
107.83
106.79
107.71
110.19
112.72
112.79
107.38
93.75
70.37
37.66
-1.77
-43.52
-82.26
-112.86
-131.48
-136.28
-127.70
-108.25
-81.82
-52.75
-25.04
-1.66
15.68
26.40
30.85
30.07
25.69
19.75
14.31
10.81
9.57
9.61
9.11
6.43
1.02
-6.02
-12.34
-15.43
-13.67
-7.19
2.30
12.22
20.11
24.35
24.40
20.55
13.42
3.47
-9.23
-24.79
-43.27
-64.22
-86.39
-107.83
-126.41
-140.47
-149.46
-154.10
-156.01
-157.14
-159.09
-162.90
-168.88
-176.53
-184.29
-189.47
-188.52
-177.84
-154.93
-119.13
-71.83
-16.03
44.44
105.56
163.39
214.25
254.93
283.13
297.97
300.20
291.87
275.77
254.81
231.75
209.08
188.87
172.42
159.92
150.33
141.85
132.65
121.67
108.91
95.18
81.51
68.70
56.99
46.25
36.11
26.08
15.53
3.72
-10.05
-26.13
-44.36
-63.96
-83.76
-102.58
-119.44
-133.76
-145.30
-154.11
-160.51
-164.98
-168.11
-170.40
-172.06
-172.97
-172.75
-171.03
-167.70
-163.10
-157.92
-153.06
-149.34
-147.22
-146.83
-148.00
-150.48
-153.92
-157.83
-161.48
-163.94
-164.33
-162.25
-158.08
-153.07
-148.92
-147.16
-148.59
-153.06
-159.78
-167.56
-175.02
-180.59
-182.33
-178.15
-166.21
-145.60
-116.66
-80.96
-40.88
0.82
41.18
77.14
105.85
125.30
135.03
136.67
133.56
129.75
128.64
132.11
140.58
153.41
169.62
187.99
206.88
224.07
237.03
243.84
244.08
239.25
232.07
225.37
220.79
218.41
217.21
216.13
214.73
213.35
212.57
212.53
212.83
213.00
213.26
214.81
218.95
225.81
233.26
237.34
233.96
221.27
200.97
177.88
157.68
144.29
138.31
137.35
137.88
137.36
135.34
133.07
132.08
132.72
133.66
132.54
127.21
116.76
101.88
84.44
66.50
49.55
34.08
19.89
6.49
-6.29
-18.17
-28.62
-37.27
-44.26
-50.27
-56.30
-63.24
-71.54
-81.16
-91.70
-102.68
-113.78
-125.12
-137.16
-150.62
-165.93
-183.02
-200.98
-218.30
-233.23
-244.22
-250.35
-251.29
-247.12
-238.09
-224.44
-206.60
-185.30
-161.78
-137.55
-114.08
-92.33
-72.62
-54.60
-37.75
-21.65
-6.26
8.08
20.91
31.94
41.18
48.91
55.48
61.01
65.30
67.89
68.36
66.68
63.29
59.01
54.48
49.82
44.45
37.47
28.13
16.41
3.13
-10.36
-22.70
-33.12
-41.55
-48.58
-55.11
-62.05
-70.08
-79.73
-91.31
-104.56
-118.23
-129.73
-135.32
-131.17
-115.06
-87.98
-54.52
-21.52
4.53
20.25
26.68
28.50
31.59
40.18
55.15
74.21
93.51
109.74
121.28
128.19
131.26
131.06
127.56
120.44
109.83
96.82
83.33
71.45
62.68
57.14
53.55
49.94
44.56
36.78
27.41
18.26
11.28
7.59
6.94
7.98
8.88
8.30
5.87
2.26
-1.50
-4.64
-7.09
-9.51
-12.74
-17.30
-23.12
-29.62
-36.16
-42.50
-49.02
-56.52
-65.93
-77.84
-92.09
-107.71
-122.83
-134.82
-140.65
-137.60
-124.21
-101.17
-71.47
-39.67
-10.37
13.33
30.65
42.98
52.70
61.80
71.00
79.63
86.21
89.28
88.08
82.77
74.24
63.88
53.10
42.88
33.38
23.83
12.95
-0.16
-15.27
-30.61
-43.31
-50.41
-49.92
-41.44
-26.08
-5.86
16.93
40.04
61.19
78.06
88.33
90.19
83.02
67.77
46.88
23.83
2.25
-14.81
-25.54
-29.73
-28.82
-25.55
-23.33
-24.95
-31.73
-42.89
-56.01
-68.26
-77.73
-84.44
-90.14
-97.19
-107.01
-119.11
-131.29
-140.95
-146.88
-150.02
-153.10
-158.89
-168.47
-180.26
-190.66
-195.73
-192.87
-181.63
-163.19
-139.01
-109.81
-75.40
-35.54
8.83
55.15
99.59
138.29
168.48
189.17
200.78
204.57
201.82
193.64
181.04
165.30
147.88
130.22
113.34
97.60
82.90
68.98
55.93
44.28
35.13
29.84
29.56
34.59
43.74
54.36
63.05
66.92
64.73
57.27
46.64
34.87
22.83
9.85
-5.55
-24.48
-46.61
-69.94
-91.17
-106.62
-113.40
-110.33
-98.52
-81.18
-62.62
-46.94
-36.51
-31.39
-29.87
-29.74
-29.48
-28.85
-28.34
-28.34
-28.38
-27.20
-23.46
-16.61
-7.44
2.15
9.65
13.00
11.28
5.02
-4.06
-13.67
-21.80
-27.33
-30.09
-30.58
-29.49
-27.28
-24.10
-20.13
-15.91
-12.42
-10.90
-12.38
-17.32
-25.30
-35.26
-45.82
-55.76
-64.35
-71.43
-77.22
-82.13
-86.49
-90.45
-93.95
-96.78
-98.74
-99.63
-99.40
-98.12
-96.00
-93.53
-91.45
-90.72
-92.22
-96.35
-102.54
-109.22
-114.22
-115.35
-111.28
-102.03
-88.88
-73.87
-58.94
-45.29
-33.16
-21.98
-10.88
0.69
12.66
24.22
34.14
41.24
44.83
44.96
42.35
38.05
32.98
27.63
21.90
15.28
7.14
-2.95
-14.93
-28.19
-41.76
-54.63
-66.15
-76.34
-86.08
-96.82
-110.20
-127.50
-148.84
-172.89
-196.73
-216.51
-228.47
-230.34
-221.92
-205.23
-183.54
-160.06
-136.86
-114.44
-92.00
-68.24
-42.34
-14.84
11.86
33.76
46.29
46.04
32.43
8.52
-19.66
-45.20
-62.82
-70.52
-69.53
-62.87
-53.37
-42.43
-30.01
-15.70
0.28
16.71
32.02
45.25
56.84
68.47
82.40
100.28
122.36
147.53
173.89
199.68
224.03
247.09
269.50
291.88
314.42
336.89
358.75
379.04
396.04
407.18
409.46
400.40
379.13
347.02
307.43
264.73
222.90
184.67
151.32
123.09
99.88
81.36
66.88
55.14
44.16
31.95
17.34
0.69
-16.31
-31.49
-43.21
-51.18
-56.37
-60.08
-63.25
-66.08
-68.49
-70.86
-74.31
-80.13
-88.79
-99.11
-108.39
-113.50
-112.31
-104.52
-91.52
-75.41
-58.00
-40.29
-22.60
-5.27
10.99
25.01
35.78
43.07
47.82
51.93
57.58
66.35
78.69
93.72
109.71
124.66
136.84
145.13
149.05
148.68
144.50
137.27
127.81
116.82
104.82
92.17
79.21
66.45
54.55
44.09
35.40
28.30
22.17
16.16
9.54
1.84
-7.11
-17.43
-29.26
-42.73
-57.70
-73.56
-89.05
-102.48
-112.22
-117.24
-117.59
-114.51
-110.19
-107.17
-107.66
-112.91
-122.88
-136.24
-150.63
-163.24
-171.29
-172.43
-165.10
-148.62
-123.61
-91.93
-56.48
-20.82
11.80
39.37
61.50
78.93
92.48
101.99
106.19
103.67
94.47
81.26
68.78
62.02
63.97
74.04
88.67
103.45
115.42
124.06
130.46
135.70
139.56
140.83
138.70
134.04
129.56
128.47
132.64
141.73
153.38
164.93
175.27
185.31
197.17
212.47
231.01
250.68
268.78
283.43
294.59
303.62
312.11
320.78
328.95
334.95
337.54
336.46
332.60
327.19
320.73
312.53
301.22
285.72
266.32
244.97
224.59
207.92
196.36
189.35
184.57
178.93
169.64
155.12
135.37
111.51
85.14
57.63
29.70
1.46
-27.22
-56.41
-86.00
-115.80
-145.63
-175.26
-204.05
-230.72
-253.35
-270.06
-280.01
-283.98
-284.40
-284.39
-286.47
-291.57
-298.86
-306.51
-312.82
-316.94
-319.09
-319.92
-319.84
-318.69
-315.85
-310.70
-303.09
-293.28
-281.68
-268.36
-252.90
-234.70
-213.66
-190.63
-167.52
-146.69
-129.94
-117.64
-108.53
-100.42
-91.21
-79.89
-66.79
-53.13
-40.20
-28.80
-19.05
-10.92
-4.59
-0.70
0.01
-2.81
-8.73
-16.54
-24.66
-31.73
-36.97
-40.29
-42.05
-42.75
-42.73
-41.98
-40.26
-37.22
-32.68
-26.70
-19.57
-11.70
-3.40
5.05
13.41
21.29
28.09
33.13
35.91
36.43
35.30
33.52
32.17
32.04
33.49
36.40
40.34
44.77
49.16
53.03
55.95
57.51
57.27
54.86
49.99
42.70
33.47
23.32
13.59
5.62
0.27
-2.40
-3.10
-3.11
-3.68
-5.65
-9.18
-13.78
-18.62
-22.80
-25.72
-27.07
-26.93
-25.62
-23.71
-21.82
-20.46
-19.81
-19.44
-18.35
-15.17
-8.74
1.30
14.07
27.50
38.71
44.91
44.18
36.10
21.71
3.17
-16.94
-36.27
-53.13
-66.49
-75.89
-81.17
-82.34
-79.68
-73.82
-65.81
-56.86
-48.09
-40.14
-33.15
-26.86
-21.04
-15.69
-11.20
-8.17
-7.13
-8.28
-11.36
-15.73
-20.58
-25.16
-28.95
-31.71
-33.39
-34.00
-33.57
-32.10
-29.63
-26.30
-22.39
-18.30
-14.48
-11.34
-9.19
-8.14
-8.16
-9.06
-10.62
-12.55
-14.61
-16.57
-18.23
-19.43
-20.05
-20.08
-19.56
-18.57
-17.17
-15.44
-13.47
-11.40
-9.47
-7.93
-6.99
-6.72
-7.04
-7.75
-8.59
-9.32
-9.77
-9.88
-9.67
-9.21
-8.58
-7.81
-6.83
-5.55
-3.98
-2.26
-0.73
0.29
0.57
0.19
-0.63
-1.55
-2.39
-3.08
-3.65
-4.13
-4.47
-4.60
-4.47
-4.18
-3.91
-3.86
-4.10
-4.53
-4.90
-4.92
-4.38
-3.16
-1.32
0.96
3.37
5.58
7.30
8.40
8.91
9.05
9.01
8.97
8.90
8.72
8.35
7.84
7.40
7.25
7.53
8.16
8.91
9.50
9.78
9.81
9.75
9.81
10.03
10.31
10.39
10.10
9.40
8.44
7.44
6.60
5.97
5.45
4.93
4.37
3.80
3.35
3.09
2.98
2.85
2.48
1.69
0.52
-0.94
-2.45
-3.79
-4.81
-5.50
-5.95
-6.28
-6.68
-7.21
-7.80
-8.27
-8.35
-7.84
-6.69
-5.02
-3.13
-1.29
0.28
1.46
2.20
2.56
2.58
2.37
2.08
1.89
1.91
2.18
2.59
2.95
3.12
3.07
2.86
2.58
2.34
2.19
2.18
2.33
2.66
3.15
3.66
3.95
3.75
2.95
1.62
0.05
-1.49
-2.76
-3.76
-4.60
-5.42
-6.31
-7.17
-7.88
-8.27
-8.30
-8.03
-7.63
-7.28
-7.12
-7.22
-7.54
-7.98
-8.45
-8.84
-9.17
-9.50
-9.89
-10.41
-11.09
-11.97
-13.10
-14.56
-16.29
-18.12
-19.67
-20.48
-20.18
-18.69
-16.29
-13.54
-11.09
-9.41
-8.63
-8.53
-8.66
-8.56
-7.91
-6.72
-5.23
-3.82
-2.86
-2.53
-2.82
-3.57
-4.52
-5.38
-5.93
-6.00
-5.47
-4.29
-2.52
-0.38
1.78
3.52
4.47
4.43
3.46
1.84
0.01
-1.61
-2.70
-3.11
-2.82
-1.92
-0.60
0.98
2.59
4.05
5.21
5.98
6.36
6.38
6.12
5.63
4.96
4.09
2.94
1.47
-0.29
-2.18
-3.98
-5.53
-6.87
-8.29
-10.20
-12.92
-16.45
-20.41
-24.16
-27.06
-28.76
-29.25
-28.94
-28.46
-28.42
-29.25
-31.00
-33.23
-35.18
-35.86
-34.42
-30.43
-24.06
-15.93
-6.99
1.94
10.29
17.90
24.85
31.29
37.16
42.13
45.66
47.07
45.93
42.25
36.72
30.57
25.38
22.43
22.16
23.87
25.87
26.17
23.40
17.47
9.55
1.45
-5.46
-11.04
-16.38
-23.21
-32.65
-44.59
-57.62
-69.97
-80.73
-90.46
-101.10
-114.90
-133.37
-156.48
-182.79
-210.00
-235.67
-257.25
-273.26
-282.32
-284.15
-280.36
-274.76
-272.40
-277.39
-290.47
-307.52
-321.74
-325.48
-313.99
-287.48
-250.54
-209.82
-171.03
-137.26
-108.10
-83.83
-64.05
-49.16
-39.77
-35.62
-35.14
-35.80
-35.21
-29.68
-22.11
-13.82
-6.27
-0.12
5.20
11.17
19.48
31.14
50.93
72.24
93.59
114.00
133.45
152.84
173.39
195.79
219.79
252.21
283.02
311.31
337.12
361.40
385.70
411.93
442.20
478.60
532.71
592.68
654.88
712.83
758.67
785.95
791.98
778.91
687.82
607.52
531.15
460.95
396.59
336.26
277.94
219.91
160.30
96.42
34.84
-39.33
-127.73
-227.93
-332.75
-431.28
-512.25
-567.94
-596.86
-596.06
-582.85
-565.72
-549.75
-535.56
-520.86
-502.97
-480.89
-455.74
-424.65
-394.57
-365.46
-336.03
-304.72
-270.78
-234.84
-198.74
-164.57
-131.30
-101.69
-74.62
-48.33
-21.24
7.46
37.62
68.53
99.26
129.84
158.40
183.90
205.07
220.65
229.91
232.83
230.20
223.17
212.77
199.64
184.12
166.56
147.64
128.37
109.79
92.56
76.66
61.62
46.85
32.14
17.79
4.41
-7.47
-17.87
-27.45
-37.18
-47.77
-59.00
-69.55
-77.29
-80.01
-76.29
-66.04
-50.58
-32.23
-13.67
2.59
14.70
21.64
23.45
21.26
17.24
14.27
15.20
22.02
35.06
52.81
72.32
90.14
103.41
110.51
111.35
106.95
98.96
88.99
78.37
68.00
58.46
50.08
42.91
36.81
31.42
26.48
21.97
18.24
15.94
15.64
17.39
20.44
23.45
24.99
24.37
21.99
19.24
17.73
18.42
21.13
24.42
26.25
24.67
18.33
6.94
-8.51
-25.76
-41.88
-54.22
-61.42
-64.07
-64.19
-64.02
-64.80
-66.15
-66.30
-62.85
-54.05
-39.98
-22.90
-6.78
3.90
5.92
-1.16
-14.61
-29.38
-40.00
-43.06
-38.41
-28.60
-17.04
-6.18
2.94
9.97
14.31
15.14
12.26
7.06
1.98
-1.30
-3.93
-10.23
-26.05
-55.16
-96.17
-141.81
-181.27
-204.45
-205.75
-185.26
-147.30
-97.43
-40.18
21.21
83.59
142.72
192.95
228.82
247.37
249.50
239.53
223.13
204.68
185.90
166.25
144.67
121.27
98.05
78.02
63.52
55.08
51.29
49.84
48.80
47.34
45.40
42.75
38.24
30.07
17.07
-0.04
-18.32
-33.54
-42.06
-42.37
-35.56
-24.34
-11.48
1.48
14.35
27.54
41.04
53.85
64.25
70.66
72.34
69.71
64.14
57.37
51.02
46.14
43.02
41.30
40.29
39.32
37.94
36.01
33.55
30.65
27.37
23.79
20.04
16.29
12.77
9.61
6.82
4.26
1.60
-1.58
-5.71
-10.96
-17.02
-23.09
-28.02
-30.73
-30.67
-28.15
-24.22
-20.24
-17.34
-15.88
-15.49
-15.31
-14.51
-12.67
-9.88
-6.58
-3.26
-0.19
2.58
5.18
7.71
10.18
12.51
14.56
16.26
17.63
18.75
19.71
20.57
21.31
21.86
22.09
21.85
21.04
19.65
17.80
15.74
13.72
11.95
10.45
9.04
7.45
5.39
2.71
-0.50
-3.98
-7.40
-10.51
-13.24
-15.76
-18.34
-21.29
-24.82
-29.00
-33.67
-38.52
-43.05
-46.65
-48.73
-48.74
-46.37
-41.57
-34.58
-25.86
-15.94
-5.35
5.55
16.56
27.51
38.26
48.54
58.10
66.78
74.63
81.89
88.81
95.46
101.63
107.00
111.38
115.05
118.75
123.40
129.69
137.71
146.96
156.63
166.04
174.91
183.50
192.44
202.59
214.86
230.00
248.29
269.26
291.51
312.73
330.11
340.96
343.36
336.58
321.18
298.76
271.48
241.60
211.15
181.70
154.29
129.48
107.44
88.04
71.01
55.95
42.48
30.24
19.05
8.89
-0.17
-8.09
-14.91
-20.80
-26.04
-30.88
-35.50
-39.87
-43.86
-47.22
-49.70
-51.09
-51.21
-49.92
-47.10
-42.63
-36.43
-28.52
-19.05
-8.35
3.20
15.15
27.14
38.87
50.10
60.46
69.49
76.52
80.86
81.93
79.44
73.53
64.66
53.49
40.58
26.13
10.00
-8.17
-28.70
-51.57
-76.30
-102.05
-127.92
-153.20
-177.73
-201.77
-225.93
-251.04
-277.99
-307.47
-339.65
-373.56
-406.82
-435.88
-456.92
-467.24
-466.22
-455.64
-438.80
-419.16
-399.04
-379.14
-359.03
-338.03
-316.04
-293.66
-271.77
-251.00
-231.39
-212.52
-193.90
-175.36
-157.01
-139.30
-122.64
-107.28
-93.30
-80.66
-69.29
-59.11
-50.01
-41.83
-34.35
-27.40
-20.78
-14.36
-7.96
-1.39
5.53
12.85
20.41
27.78
34.32
39.42
42.73
44.24
44.35
43.62
42.61
41.64
40.72
39.67
38.25
36.35
34.05
31.58
29.23
27.20
25.52
24.05
22.52
20.71
18.46
15.79
12.82
9.66
6.44
3.20
-0.03
-3.24
-6.30
-9.06
-11.29
-12.73
-13.24
-12.76
-11.38
-9.32
-6.92
-4.54
-2.48
-0.96
-0.06
0.26
0.05
-0.63
-1.73
-3.20
-5.00
-7.06
-9.34
-11.78
-14.39
-17.14
-20.12
-23.36
-26.87
-30.58
-34.30
-37.69
-40.30
-41.61
-41.17
-38.73
-34.25
-27.91
-20.14
-11.40
-2.29
6.62
14.78
21.78
27.35
31.47
34.31
36.15
37.28
37.87
37.92
37.29
35.80
33.35
29.99
25.99
21.60
17.11
12.66
8.32
4.13
0.16
-3.47
-6.61
-9.19
-11.22
-12.82
-14.12
-15.19
-16.05
-16.67
-16.97
-16.97
-16.67
-16.14
-15.44
-14.66
-13.92
-13.31
-12.91
-12.71
-12.65
-12.56
-12.27
-11.60
-10.48
-8.93
-7.08
-5.11
-3.17
-1.38
0.25
1.74
3.14
4.51
5.90
7.37
8.92
10.54
12.12
13.51
14.53
15.00
14.84
14.06
12.79
11.24
9.66
8.21
6.97
5.94
5.08
4.38
3.87
3.52
3.22
2.73
1.78
0.24
-1.74
-3.65
-4.83
-4.77
-3.24
-0.51
2.85
6.15
8.85
10.64
11.46
11.38
10.49
8.90
6.68
3.92
0.82
-2.34
-5.24
-7.56
-9.11
-9.89
-10.11
-10.07
-10.06
-10.26
-10.61
-10.95
-11.04
-10.79
-10.25
-9.58
-8.94
-8.39
-7.84
-7.10
-6.11
-4.91
-3.75
-2.84
-2.31
-2.08
-1.89
-1.54
-0.93
-0.17
0.48
0.78
0.58
-0.08
-1.04
-2.02
-2.76
-3.02
-2.69
-1.88
-0.82
0.18
0.89
1.16
1.10
0.90
0.81
0.93
1.29
1.80
2.36
2.96
3.58
4.27
4.99
5.68
6.24
6.59
6.73
6.72
6.68
6.71
6.83
7.03
7.21
7.30
7.27
7.08
6.72
6.26
5.75
5.31
5.01
4.87
4.84
4.77
4.51
3.95
3.14
2.21
1.31
0.55
-0.07
-0.61
-1.13
-1.61
-1.99
-2.15
-2.01
-1.53
-0.73
0.32
1.52
2.82
4.12
5.34
6.40
7.22
7.78
8.12
8.27
8.34
8.44
8.70
9.21
10.06
11.24
12.67
14.16
15.48
16.42
16.83
16.68
16.09
15.23
14.29
13.34
12.41
11.43
10.32
9.06
7.66
6.19
4.73
3.29
1.83
0.30
-1.35
-3.08
-4.80
-6.43
-7.94
-9.36
-10.78
-12.21
-13.59
-14.71
-15.37
-15.38
-14.72
-13.50
-11.91
-10.13
-8.22
-6.16
-3.93
-1.61
0.58
2.30
3.19
3.07
1.95
0.11
-1.97
-3.76
-4.78
-4.70
-3.34
-0.75
2.83
6.98
11.20
14.95
17.81
19.54
20.04
19.39
17.72
15.22
12.17
8.99
6.19
4.35
3.96
5.22
8.06
12.11
16.82
21.63
26.05
29.79
32.72
34.86
36.27
37.00
37.07
36.45
35.08
32.91
29.95
26.18
21.59
16.09
9.58
2.05
-6.30
-15.00
-23.29
-30.33
-35.44
-38.26
-38.89
-37.78
-35.57
-32.84
-29.95
-27.12
-24.38
-21.71
-19.11
-16.57
-14.09
-11.64
-9.20
-6.79
-4.53
-2.53
-0.96
0.03
0.27
-0.37
-2.03
-4.82
-8.73
-13.60
-19.10
-24.80
-30.16
-34.59
-37.54
-38.52
-37.17
-33.40
-27.45
-19.85
-11.37
-2.89
4.78
10.97
15.19
17.18
16.86
14.37
10.10
4.64
-1.29
-6.99
-11.89
-15.58
-17.83
-18.53
-17.66
-15.38
-11.96
-7.87
-3.60
0.42
3.88
6.69
8.84
10.36
11.31
11.73
11.75
11.48
11.09
10.58
9.94
9.03
7.73
6.00
3.89
1.53
-0.95
-3.41
-5.77
-7.92
-9.79
-11.32
-12.48
-13.24
-13.58
-13.49
-12.94
-12.03
-10.89
-9.72
-8.70
-7.88
-7.22
-6.56
-5.74
-4.63
-3.19
-1.40
0.74
3.22
6.09
9.31
12.89
16.75
20.77
24.75
28.38
31.32
33.21
33.78
33.00
31.00
28.12
24.77
21.30
17.93
14.81
11.94
9.34
6.98
4.82
2.80
0.87
-1.01
-2.85
-4.62
-6.23
-7.58
-8.52
-8.95
-8.79
-8.10
-7.02
-5.83
-4.82
-4.16
-3.98
-4.22
-4.80
-5.61
-6.55
-7.45
-8.14
-8.42
-8.06
-6.96
-5.13
-2.72
0.03
2.82
5.37
7.49
9.05
10.02
10.39
10.22
9.58
8.54
7.29
6.00
4.92
4.20
3.90
4.00
4.38
4.85
5.22
5.28
4.82
3.70
1.89
-0.43
-2.95
-5.29
-7.12
-8.36
-9.06
-9.43
-9.64
-9.78
-9.81
-9.61
-9.08
-8.18
-6.98
-5.65
-4.31
-3.04
-1.79
-0.47
0.97
2.41
3.63
4.32
4.25
3.48
2.27
0.98
-0.12
-0.97
-1.80
-2.87
-4.38
-6.25
-8.21
-9.87
-10.87
-11.08
-10.51
-9.35
-7.79
-6.02
-4.21
-2.52
-1.09
-0.03
0.62
0.89
0.87
0.69
0.43
0.09
-0.33
-0.86
-1.47
-2.12
-2.74
-3.25
-3.56
-3.63
-3.46
-3.12
-2.75
-2.52
-2.58
-3.00
-3.75
-4.80
-6.13
-7.71
-9.54
-11.58
-13.70
-15.71
-17.41
-18.60
-19.11
-18.83
-17.56
-15.18
-11.61
-6.94
-1.42
4.50
10.35
15.69
20.20
23.77
26.39
28.12
29.03
29.17
28.62
27.43
25.69
23.50
20.92
18.04
14.91
11.63
8.34
5.26
2.57
0.46
-0.96
-1.71
-1.93
-1.80
-1.49
-1.13
-0.73
-0.29
0.21
0.75
1.20
1.42
1.30
0.81
-0.02
-1.03
-2.08
-3.10
-4.15
-5.32
-6.75
-8.42
-10.15
-11.68
-12.74
-13.25
-13.27
-13.03
-12.73
-12.42
-12.03
-11.39
-10.41
-9.13
-7.72
-6.35
-5.07
-3.82
-2.42
-0.75
1.16
3.17
5.05
6.56
7.58
8.13
8.28
8.20
8.03
7.91
7.96
8.20
8.61
9.11
9.57
9.92
10.11
10.18
10.17
10.13
10.09
10.03
9.91
9.65
9.17
8.41
7.38
6.13
4.77
3.40
2.15
1.03
0.04
-0.87
-1.71
-2.54
-3.38
-4.34
-5.47
-6.75
-8.04
-9.06
-9.49
-9.13
-7.96
-6.13
-3.88
-1.44
1.06
3.60
6.17
8.75
11.25
13.47
15.34
16.80
17.95
18.93
19.83
20.64
21.29
21.64
21.65
21.34
20.85
20.32
19.79
19.20
18.43
17.39
16.11
14.73
13.41
12.24
11.24
10.33
9.42
8.49
7.59
6.85
6.36
6.16
6.15
6.18
6.07
5.69
5.01
4.07
2.99
1.88
0.81
-0.17
-1.13
-2.14
-3.23
-4.42
-5.63
-6.73
-7.54
-7.97
-8.02
-7.83
-7.62
-7.59
-7.85
-8.35
-8.96
-9.50
-9.83
-9.89
-9.68
-9.27
-8.70
-8.05
-7.37
-6.67
-5.97
-5.30
-4.71
-4.29
-4.08
-4.06
-4.15
-4.23
-4.22
-4.12
-3.99
-3.87
-3.79
-3.71
-3.54
-3.28
-2.99
-2.75
-2.68
-2.78
-3.04
-3.38
-3.70
-3.95
-4.02
-3.82
-3.24
-2.27
-1.04
0.16
1.02
1.32
1.10
0.65
0.32
0.39
0.85
1.50
2.04
2.27
2.17
1.87
1.51
1.15
0.77
0.32
-0.20
-0.67
-0.94
-0.93
-0.71
-0.47
-0.42
-0.70
-1.25
-1.93
-2.52
-2.86
-2.89
-2.66
-2.27
-1.82
-1.40
-1.09
-0.94
-1.00
-1.34
-1.98
-2.83
-3.74
-4.52
-4.98
-5.05
-4.79
-4.35
-3.92
-3.57
-3.26
-2.90
-2.37
-1.66
-0.85
-0.15
0.30
0.43
0.33
0.18
0.18
0.46
0.97
1.61
2.24
2.74
3.16
3.59
4.13
4.76
5.40
5.91
6.19
6.22
6.07
5.83
5.51
5.07
4.42
3.56
2.59
1.68
1.05
0.79
0.85
1.08
1.34
1.56
1.82
2.23
2.80
3.40
3.76
3.64
2.98
1.89
0.66
-0.48
-1.42
-2.22
-2.99
-3.78
-4.52
-5.08
-5.36
-5.44
-5.45
-5.60
-6.01
-6.66
-7.42
-8.12
-8.61
-8.89
-9.08
-9.33
-9.77
-10.41
-11.12
-11.73
-12.03
-11.97
-11.58
-10.98
-10.29
-9.55
-8.73
-7.79
-6.75
-5.67
-4.59
-3.53
-2.42
-1.19
0.15
1.53
2.84
4.00
5.03
5.97
6.81
7.47
7.78
7.63
7.02
6.10
5.06
4.12
3.42
3.01
2.93
3.21
3.81
4.66
5.59
6.46
7.25
8.08
9.13
10.57
12.38
14.36
16.23
17.77
18.89
19.71
20.36
20.90
21.28
21.30
20.82
19.80
18.39
16.83
15.33
13.98
12.75
11.48
10.06
8.45
6.76
5.11
3.63
2.34
1.25
0.31
-0.50
-1.17
-1.69
-2.00
-2.09
-1.98
-1.71
-1.31
-0.85
-0.37
0.15
0.75
1.52
2.54
3.76
5.08
6.24
6.93
6.95
6.21
4.80
3.00
1.11
-0.61
-2.04
-3.19
-4.14
-4.99
-5.77
-6.46
-7.03
-7.46
-7.83
-8.24
-8.78
-9.45
-10.15
-10.74
-11.11
-11.25
-11.25
-11.25
-11.28
-11.31
-11.20
-10.78
-9.99
-8.89
-7.62
-6.37
-5.29
-4.46
-3.90
-3.59
-3.46
-3.46
-3.50
-3.52
-3.49
-3.41
-3.30
-3.18
-3.05
-2.91
-2.73
-2.54
-2.36
-2.25
-2.26
-2.43
-2.76
-3.27
-3.88
-4.46
-4.84
-4.87
-4.50
-3.75
-2.80
-1.79
-0.84
0.04
0.89
1.69
2.36
2.70
2.58
1.92
0.78
-0.67
-2.29
-3.97
-5.68
-7.40
-9.06
-10.48
-11.47
-11.85
-11.55
-10.59
-9.11
-7.27
-5.22
-3.15
-1.22
0.37
1.45
1.91
1.68
0.74
-0.86
-3.01
-5.54
-8.19
-10.74
-12.99
-14.88
-16.38
-17.54
-18.35
-18.69
-18.46
-17.58
-16.11
-14.15
-11.92
-9.53
-7.02
-4.41
-1.68
1.07
3.74
6.24
8.54
10.75
12.98
15.31
17.70
20.05
22.19
24.01
25.45
26.53
27.25
27.59
27.49
26.90
25.82
24.34
22.58
20.71
18.83
17.02
15.31
13.64
11.98
10.32
8.71
7.19
5.84
4.63
3.48
2.26
0.82
-0.87
-2.78
-4.75
-6.60
-8.08
-9.01
-9.32
-9.04
-8.31
-7.29
-6.20
-5.12
-4.13
-3.19
-2.28
-1.41
-0.62
0.08
0.68
1.24
1.88
2.64
3.52
4.42
5.13
5.55
5.57
5.23
4.67
4.06
3.54
3.19
2.99
2.82
2.56
2.09
1.42
0.68
0.03
-0.41
-0.59
-0.58
-0.46
-0.25
0.08
0.58
1.22
1.85
2.19
2.04
1.32
0.17
-1.22
-2.64
-4.03
-5.41
-6.85
-8.34
-9.77
-10.99
-11.92
-12.59
-13.11
-13.65
-14.26
-14.90
-15.48
-15.88
-16.04
-15.98
-15.76
-15.47
-15.20
-15.03
-15.00
-15.13
-15.43
-15.90
-16.52
-17.26
-18.03
-18.61
-18.72
-18.08
-16.51
-14.03
-10.81
-7.14
-3.22
0.80
4.86
8.87
12.65
15.95
18.51
20.18
20.91
20.78
19.89
18.26
15.91
12.88
9.38
5.77
2.47
-0.15
-1.90
-2.84
-3.18
-3.19
-3.06
-2.90
-2.81
-2.85
-3.14
-3.74
-4.64
-5.70
-6.66
-7.31
-7.52
-7.29
-6.73
-6.04
-5.38
-4.82
-4.41
-4.05
-3.69
-3.26
-2.76
-2.26
-1.85
-1.60
-1.50
-1.46
-1.28
-0.79
0.12
1.47
3.20
5.19
7.31
9.44
11.49
13.41
15.14
16.71
18.16
19.60
21.11
22.74
24.42
26.01
27.33
28.23
28.69
28.77
28.54
28.05
27.30
26.29
25.13
24.05
23.32
23.17
23.60
24.39
25.18
25.56
25.31
24.40
22.98
21.22
19.28
17.14
14.72
11.93
8.80
5.53
2.43
-0.16
-2.06
-3.28
-4.07
-4.73
-5.45
-6.27
-7.01
-7.45
-7.47
-7.11
-6.57
-6.07
-5.77
-5.69
-5.76
-5.88
-6.01
-6.13
-6.25
-6.34
-6.29
-5.96
-5.29
-4.31
-3.22
-2.25
-1.65
-1.49
-1.71
-2.08
-2.33
-2.27
-1.89
-1.34
-0.88
-0.71
-0.93
-1.46
-2.14
-2.71
-2.92
-2.64
-1.85
-0.68
0.59
1.66
2.25
2.22
1.64
0.72
-0.27
-1.10
-1.69
-2.09
-2.44
-2.91
-3.55
-4.33
-5.14
-5.88
-6.50
-6.98
-7.42
-7.91
-8.51
-9.32
-10.41
-11.83
-13.56
-15.50
-17.47
-19.29
-20.85
-22.13
-23.18
-24.12
-25.08
-26.13
-27.30
-28.55
-29.82
-30.97
-31.90
-32.54
-32.88
-32.97
-32.87
-32.60
-32.17
-31.56
-30.78
-29.86
-28.80
-27.48
-25.75
-23.46
-20.57
-17.18
-13.55
-10.00
-6.78
-4.03
-1.81
-0.08
1.16
1.97
2.42
2.63
2.70
2.70
2.58
2.19
1.38
0.10
-1.46
-2.99
-4.08
-4.46
-4.04
-2.99
-1.65
-0.34
0.64
1.18
1.24
0.92
0.37
-0.18
-0.43
-0.11
0.99
2.94
5.66
8.93
12.48
16.00
19.25
22.09
24.52
26.74
29.09
31.93
35.49
39.77
44.49
49.16
53.26
56.45
58.70
60.27
61.59
63.09
65.05
67.53
70.36
73.19
75.62
77.24
77.68
76.67
74.11
70.09
65.01
59.42
53.93
49.03
44.90
41.39
38.06
34.42
30.07
24.85
18.82
12.18
5.14
-2.19
-9.77
-17.63
-25.74
-34.04
-42.46
-51.01
-59.80
-68.97
-78.68
-88.94
-99.59
-110.38
-121.05
-131.39
-141.20
-150.26
-158.26
-164.81
-169.52
-172.12
-172.53
-170.81
-167.06
-161.33
-153.61
-143.86
-132.18
-118.82
-104.13
-88.51
-72.28
-55.61
-38.55
-21.16
-3.57
13.89
30.62
45.78
58.38
67.55
72.83
74.30
72.60
68.67
63.48
57.67
51.56
45.25
38.80
32.35
26.03
19.91
13.90
7.95
2.24
-2.67
-5.97
-6.89
-5.06
-0.65
5.75
13.44
21.91
30.92
40.40
50.21
60.01
69.34
77.79
85.16
91.47
96.86
101.32
104.66
106.60
106.80
105.11
101.67
96.81
91.04
84.88
78.78
73.10
68.03
63.66
60.01
56.98
54.46
52.25
50.13
47.90
45.46
42.89
40.39
38.22
36.60
35.63
35.28
35.48
36.16
37.28
38.75
40.41
41.98
43.12
43.50
42.92
41.35
38.93
35.98
32.88
29.99
27.52
25.47
23.73
22.13
20.58
19.17
18.04
17.32
16.99
16.84
16.61
16.11
15.33
14.39
13.53
12.99
12.96
13.49
14.63
16.29
18.31
20.46
22.47
24.11
25.31
26.15
26.78
27.33
27.79
28.00
27.71
26.73
25.03
22.80
20.33
17.95
15.88
14.14
12.43
10.17
6.64
1.20
-6.51
-16.28
-27.36
-38.68
-49.20
-58.15
-65.25
-70.56
-74.36
-76.93
-78.55
-79.54
-80.30
-81.23
-82.58
-84.35
-86.20
-87.68
-88.38
-88.21
-87.41
-86.41
-85.66
-85.42
-85.70
-86.34
-87.12
-87.82
-88.32
-88.54
-88.41
-87.95
-87.22
-86.35
-85.54
-84.96
-84.60
-84.36
-84.03
-83.35
-82.14
-80.30
-77.80
-74.69
-71.19
-67.63
-64.42
-62.04
-60.81
-60.90
-62.20
-64.46
-67.37
-70.58
-73.72
-76.44
-78.40
-79.38
-79.23
-78.00
-75.83
-73.00
-69.76
-66.33
-62.83
-59.28
-55.62
-51.74
-47.54
-43.01
-38.26
-33.50
-29.00
-24.99
-21.56
-18.55
-15.59
-12.21
-7.87
-2.29
4.55
12.37
20.78
29.43
38.15
47.04
56.28
66.07
76.43
87.20
97.93
107.82
115.66
120.03
119.57
113.60
102.48
87.77
71.96
57.83
47.84
43.73
46.51
56.54
73.77
97.64
126.96
159.87
194.10
227.38
257.87
284.19
305.21
319.74
326.36
323.78
311.38
289.77
260.87
227.58
192.98
159.44
128.18
99.02
70.63
40.84
6.94
-34.09
-85.31
-148.95
-225.12
-310.47
-397.87
-477.63
-540.28
-579.75
-595.36
-591.61
-575.73
-554.47
-531.67
-507.94
-482.08
-453.07
-421.23
-387.76
-353.68
-318.70
-281.28
-239.78
-193.64
-143.72
-91.67
-39.16
12.68
62.79
109.34
149.40
179.75
198.16
204.29
199.18
183.89
158.31
121.54
73.79
18.56
-36.55
-81.75
-108.79
-114.66
-102.89
-81.88
-61.00
-46.75
-40.99
-41.60
-44.57
-46.57
-46.16
-43.77
-40.70
-38.06
-36.11
-34.26
-31.54
-27.23
-21.03
-12.78
-1.87
12.91
32.86
58.07
86.04
111.45
127.42
128.16
111.76
81.29
43.86
7.87
-20.10
-37.03
-43.28
-41.01
-32.50
-19.28
-2.42
16.96
37.58
58.51
79.71
101.85
125.49
150.08
173.65
193.52
207.71
216.05
220.33
223.54
228.55
237.08
249.38
264.64
281.43
297.99
312.04
320.77
321.04
310.28
287.60
254.71
215.89
176.84
142.89
116.92
98.18
82.65
64.61
39.10
3.93
-39.61
-87.41
-134.16
-175.08
-206.94
-228.36
-239.48
-241.45
-236.18
-226.11
-214.09
-202.87
-194.57
-190.10
-188.97
-189.63
-190.08
-188.67
-184.52
-177.61
-168.63
-158.46
-147.75
-136.65
-124.72
-111.13
-94.90
-75.35
-52.51
-27.45
-2.24
20.48
38.34
50.10
56.27
58.99
61.27
65.97
74.77
87.91
104.36
122.55
141.06
158.87
175.42
190.31
203.16
213.54
221.13
225.78
227.55
226.69
223.47
218.12
210.91
202.27
192.84
183.40
174.72
167.27
161.13
155.98
151.15
145.65
138.19
127.40
112.27
92.69
69.75
45.58
22.39
1.42
-17.74
-36.90
-58.21
-82.52
-108.44
-132.30
-149.34
-155.66
-149.84
-133.52
-110.78
-86.55
-64.95
-48.23
-36.71
-29.35
-24.63
-21.08
-17.47
-12.72
-5.85
3.87
16.58
31.65
47.82
63.59
77.79
89.85
99.69
107.48
113.43
117.74
120.74
122.94
124.93
127.20
129.83
132.32
133.72
133.04
129.63
123.56
115.54
106.68
97.97
89.97
82.69
75.79
68.92
62.08
55.83
51.11
48.87
49.46
52.34
56.01
58.45
57.87
53.39
45.38
35.19
24.50
14.53
5.65
-2.58
-11.00
-20.33
-30.95
-43.00
-56.38
-70.67
-85.05
-98.16
-108.84
-117.07
-124.94
-136.60
-156.55
-186.92
-225.11
-263.34
-290.85
-297.98
-280.22
-240.32
-187.25
-132.69
-86.91
-55.66
-39.41
-34.43
-34.97
-35.39
-31.44
-20.99
-4.05
17.48
40.45
61.34
77.28
86.71
89.80
88.26
84.60
81.32
80.04
81.25
84.42
88.61
93.06
97.47
102.01
106.95
112.38
118.21
124.37
131.19
139.20
148.75
159.31
169.22
176.02
177.56
172.93
162.95
149.85
136.25
124.34
115.43
110.12
108.38
109.65
112.61
115.28
115.60
112.39
106.02
98.27
91.29
86.06
81.59
75.23
64.31
47.92
27.84
7.92
-7.82
-17.14
-20.57
-20.86
-21.37
-24.22
-29.28
-34.54
-37.61
-37.43
-35.11
-33.60
-36.07
-44.20
-57.19
-72.00
-84.86
-93.03
-96.09
-95.95
-95.59
-97.56
-102.72
-110.27
-118.60
-126.45
-133.50
-140.16
-146.88
-153.64
-159.87
-164.72
-167.49
-167.70
-164.80
-158.01
-146.41
-129.62
-108.36
-84.53
-60.53
-38.32
-18.61
-0.90
15.79
32.01
47.45
61.24
72.58
81.28
87.69
92.41
95.76
97.62
97.63
95.66
92.07
87.75
83.66
80.45
78.15
76.14
73.48
69.24
62.92
54.64
45.22
35.92
27.97
22.01
17.58
12.97
5.75
-6.26
-23.89
-45.90
-69.26
-90.09
-105.21
-113.33
-115.46
-114.44
-113.63
-115.57
-121.07
-129.08
-137.48
-144.09
-147.63
-148.01
-146.08
-143.05
-139.90
-137.00
-133.92
-129.28
-121.03
-107.06
-86.25
-59.48
-29.86
-2.04
19.63
32.77
37.80
37.33
34.55
31.69
29.45
27.56
25.84
24.85
25.65
28.98
34.56
40.95
46.25
48.89
48.24
44.73
39.52
33.93
28.92
24.68
20.51
15.12
7.26
-3.60
-16.74
-30.31
-41.92
-49.65
-52.68
-51.51
-47.69
-43.06
-39.11
-36.43
-34.47
-31.61
-25.50
-13.65
5.69
32.59
64.61
96.65
121.89
133.71
128.10
105.40
70.64
32.18
-0.88
-21.47
-26.37
-16.52
4.00
29.71
55.37
76.94
91.85
98.78
97.34
87.92
71.78
51.13
28.92
8.42
-7.68
-18.01
-23.00
-24.48
-24.71
-25.31
-26.55
-27.49
-26.83
-24.22
-21.05
-20.40
-25.84
-39.89
-62.42
-90.29
-118.18
-140.13
-151.12
-147.89
-129.35
-96.77
-53.85
-6.64
37.41
71.20
90.26
94.38
87.55
76.31
66.95
63.18
65.34
71.33
78.29
84.05
87.58
88.46
86.19
80.00
69.12
53.41
33.83
12.53
-7.46
-23.05
-31.90
-32.98
-26.76
-14.96
0.04
15.79
30.09
41.13
47.47
48.16
42.96
32.73
19.50
6.25
-3.81
-8.05
-5.08
5.12
21.38
41.94
64.96
88.76
112.08
134.09
154.50
173.57
192.10
211.17
231.80
254.56
279.26
304.71
328.85
349.00
362.53
367.53
363.36
350.87
332.08
309.40
284.88
259.68
234.03
207.72
180.78
153.96
128.65
106.42
88.30
74.23
63.08
52.99
41.85
27.67
8.95
-14.80
-42.22
-69.73
-91.96
-103.50
-101.27
-86.36
-64.12
-42.21
-27.59
-23.89
-30.62
-44.30
-60.58
-76.17
-89.35
-99.54
-106.51
-109.93
-109.70
-106.46
-101.75
-97.38
-94.66
-93.68
-93.19
-91.32
-86.39
-77.87
-66.55
-54.39
-43.79
-36.98
-35.44
-39.80
-49.70
-63.84
-79.94
-95.10
-106.55
-112.52
-113.00
-109.81
-105.80
-103.57
-104.33
-107.52
-111.38
-114.20
-115.48
-116.32
-118.96
-125.82
-138.51
-157.34
-181.21
-207.90
-234.37
-257.14
-272.86
-278.99
-274.48
-260.23
-238.84
-213.89
-188.79
-165.91
-146.19
-129.48
-115.36
-103.76
-95.41
-91.62
-93.83
-103.10
-119.60
-142.54
-170.06
-199.37
-226.90
-248.51
-260.18
-258.71
-242.65
-212.75
-171.98
-124.69
-75.58
-28.54
14.04
51.48
84.41
114.20
142.27
169.55
196.03
220.63
241.26
255.26
260.06
254.00
236.85
210.02
176.09
138.08
98.53
58.81
19.14
-20.72
-60.40
-98.14
-130.82
-154.98
-168.29
-170.63
-164.27
-152.90
-140.15
-128.37
-118.27
-109.46
-101.36
-93.87
-87.47
-82.68
-79.53
-77.31
-74.88
-71.22
-65.97
-59.47
-52.70
-46.62
-41.81
-38.20
-35.17
-31.92
-27.87
-22.88
-17.38
-12.07
-7.65
-4.52
-2.67
-1.75
-1.24
-0.72
0.04
1.00
1.98
2.77
3.22
3.37
3.36
3.35
3.47
3.77
4.20
4.66
5.07
5.39
5.60
5.71
5.73
5.65
5.51
5.32
5.12
4.90
4.65
4.32
3.93
3.55
3.30
3.26
3.43
3.71
3.93
3.97
3.80
3.52
3.35
3.45
3.84
4.43
5.00
5.33
5.34
5.00
4.46
3.89
3.40
3.03
2.79
2.60
2.46
2.34
2.20
1.98
1.66
1.23
0.80
0.52
0.59
1.08
1.98
3.13
4.29
5.29
6.07
6.69
7.26
7.81
8.33
8.74
8.98
9.13
9.33
9.69
10.26
10.87
11.28
11.27
10.80
9.99
9.07
8.26
7.60
7.09
6.61
6.07
5.44
4.72
3.95
3.13
2.26
1.35
0.43
-0.39
-1.05
-1.46
-1.58
-1.48
-1.22
-0.94
-0.77
-0.79
-1.00
-1.35
-1.76
-2.16
-2.58
-3.10
-3.90
-5.14
-6.87
-8.98
-11.16
-12.98
-14.08
-14.24
-13.44
-11.92
-9.99
-7.96
-6.11
-4.54
-3.31
-2.35
-1.57
-0.83
-0.05
0.87
1.92
3.05
4.12
4.98
5.50
5.58
5.23
4.56
3.76
3.07
2.63
2.46
2.47
2.51
2.45
2.27
1.92
1.38
0.60
-0.46
-1.75
-3.09
-4.16
-4.65
-4.43
-3.53
-2.15
-0.52
1.20
2.99
4.85
6.77
8.58
10.02
10.89
11.08
10.75
10.16
9.58
9.18
8.89
8.55
7.95
6.97
5.60
3.91
2.05
0.24
-1.30
-2.28
-2.45
-1.69
-0.06
2.16
4.60
6.89
8.81
10.28
11.31
11.95
12.19
12.07
11.61
10.90
10.08
9.31
8.70
8.34
8.27
8.51
8.96
9.48
9.84
9.83
9.34
8.42
7.24
6.03
4.92
3.92
2.91
1.79
0.58
-0.61
-1.55
-2.11
-2.31
-2.27
-2.23
-2.34
-2.66
-3.16
-3.79
-4.56
-5.58
-6.96
-8.69
-10.69
-12.79
-14.78
-16.56
-18.03
-19.16
-19.87
-20.11
-19.85
-19.20
-18.35
-17.61
-17.20
-17.07
-16.94
-16.33
-14.78
-12.04
-8.25
-3.84
0.56
4.35
7.15
8.79
9.34
8.93
7.59
5.18
1.44
-3.90
-10.93
-19.37
-28.59
-37.65
-45.56
-51.63
-55.74
-58.59
-61.69
-67.19
-77.26
-93.25
-114.64
-138.66
-160.45
-174.40
-175.83
-162.51
-135.31
-97.80
-55.08
-12.34
26.10
57.24
79.38
91.87
94.91
89.44
77.05
59.72
39.53
18.50
-1.52
-18.75
-31.49
-38.24
-37.89
-30.04
-15.10
5.73
30.69
57.79
85.17
111.30
135.14
156.17
174.30
189.74
202.79
213.61
222.18
228.18
231.18
230.88
227.37
221.17
213.21
204.53
195.98
188.10
181.07
174.86
169.37
164.37
159.49
154.08
147.24
138.03
125.89
110.76
93.21
74.07
54.03
33.39
12.06
-10.03
-32.62
-54.95
-75.97
-94.74
-110.75
-123.98
-134.62
-142.80
-148.39
-151.11
-150.87
-148.07
-143.55
-138.38
-133.46
-129.17
-125.37
-121.55
-117.14
-111.83
-105.60
-98.72
-91.52
-84.31
-77.31
-70.62
-64.35
-58.57
-53.38
-48.86
-45.02
-41.77
-38.95
-36.34
-33.70
-30.93
-28.05
-25.21
-22.62
-20.44
-18.67
-17.18
-15.74
-14.19
-12.52
-10.82
-9.24
-7.90
-6.80
-5.87
-5.04
-4.25
-3.49
-2.78
-2.10
-1.45
-0.80
-0.15
0.48
1.02
1.47
1.85
2.23
2.72
3.40
4.29
5.37
6.57
7.81
9.02
10.10
10.97
11.50
11.67
11.53
11.30
11.27
11.73
12.86
14.68
17.06
19.87
23.11
26.85
31.21
36.10
41.11
45.56
48.68
50.04
49.76
48.56
47.53
47.66
49.48
52.80
56.70
59.80
60.57
57.67
50.29
38.48
23.49
7.67
-5.92
-14.44
-16.40
-12.52
-5.81
-0.77
-1.83
-11.79
-30.71
-55.83
-82.50
-105.68
-121.50
-128.20
-126.36
-118.30
-107.10
-95.63
-85.83
-78.53
-73.56
-70.11
-67.12
-63.59
-59.16
-54.53
-51.83
-54.23
-64.75
-84.46
-110.97
-138.26
-158.16
-162.97
-148.11
-113.55
-63.56
-5.14
54.19
108.20
153.01
187.37
212.31
230.28
243.99
255.38
264.85
271.38
273.33
269.47
259.81
245.62
228.80
211.15
193.72
176.68
159.31
140.25
117.64
89.78
55.70
15.90
-27.37
-70.52
-109.62
-141.40
-163.98
-177.02
-181.29
-178.21
-169.38
-156.56
-141.65
-126.54
-112.88
-101.62
-92.88
-85.88
-79.53
-72.83
-65.40
-57.53
-50.07
-44.01
-40.04
-38.28
-38.12
-38.54
-38.50
-37.32
-35.06
-32.46
-30.62
-30.52
-32.55
-36.18
-40.18
-43.10
-43.89
-42.47
-39.84
-37.70
-37.72
-40.80
-46.62
-53.81
-60.48
-64.97
-66.44
-65.02
-61.69
-58.14
-56.80
-60.68
-72.81
-95.04
-126.60
-163.21
-197.72
-222.09
-230.18
-219.79
-193.00
-154.49
-109.19
-60.41
-9.79
41.45
90.96
134.88
168.90
190.35
199.61
200.11
196.71
193.52
192.25
192.06
190.59
185.53
175.94
162.49
146.98
131.50
117.66
106.20
97.02
89.47
82.67
76.03
69.31
62.78
56.88
51.96
47.85
43.77
38.59
31.32
21.56
9.79
-2.77
-14.52
-23.92
-30.02
-32.70
-32.73
-31.59
-30.94
-32.16
-36.07
-42.84
-52.26
-63.97
-77.46
-91.93
-106.08
-118.26
-127.11
-132.20
-134.30
-134.95
-135.26
-134.90
-131.77
-122.84
-105.71
-79.90
-47.13
-10.47
27.01
63.09
96.43
125.70
148.83
163.15
166.46
158.67
142.69
123.97
108.60
100.93
101.93
109.11
118.10
124.74
126.69
123.66
116.65
106.76
94.39
79.28
61.04
39.69
15.86
-9.35
-34.67
-58.69
-79.88
-96.67
-107.72
-112.38
-110.95
-104.59
-94.84
-83.06
-69.82
-54.86
-37.45
-16.99
6.28
30.98
54.80
75.13
89.99
98.55
101.32
99.72
95.41
89.70
83.40
76.96
70.79
65.34
60.99
57.72
54.92
51.47
45.95
37.15
24.27
7.00
-14.64
-40.60
-70.96
-105.88
-145.40
-189.12
-235.74
-282.73
-326.23
-361.41
-383.27
-388.05
-374.48
-344.56
-303.12
-256.47
-210.43
-168.61
-131.77
-98.16
-64.65
-27.95
14.36
62.88
115.81
168.81
215.70
250.11
267.46
266.53
249.72
221.79
187.99
152.29
116.75
81.89
47.77
14.75
-16.19
-43.58
-65.55
-80.03
-85.01
-79.12
-62.70
-38.27
-10.17
16.85
39.52
57.29
72.20
87.41
105.19
125.61
146.64
165.56
180.25
189.84
194.08
192.15
181.88
160.30
125.34
77.84
22.60
-32.45
-78.65
-109.49
-122.67
-120.32
-107.43
-89.47
-70.23
-51.03
-31.18
-9.46
14.45
39.14
61.65
78.53
87.07
86.31
77.27
62.36
44.50
25.94
7.80
-9.89
-27.42
-44.68
-60.76
-74.19
-83.69
-88.88
-90.50
-90.01
-88.82
-87.61
-86.14
-83.46
-78.54
-70.83
-60.61
-48.92
-37.33
-27.43
-20.28
-16.02
-13.76
-11.93
-9.04
-4.57
0.56
4.32
4.51
0.15
-7.75
-16.37
-22.12
-22.21
-15.82
-4.43
8.65
19.04
22.04
13.30
-10.45
-50.24
-103.54
-163.72
-220.72
-263.56
-283.92
-279.21
-253.49
-215.76
-176.32
-143.13
-119.74
-105.51
-97.40
-92.11
-87.40
-82.04
-75.28
-66.09
-53.28
-35.77
-13.27
13.21
41.31
67.46
87.67
98.56
98.53
88.59
72.19
54.05
38.19
26.20
16.79
6.60
-7.87
-28.14
-52.80
-78.10
-99.57
-113.99
-120.42
-119.96
-114.54
-105.84
-94.94
-82.65
-70.20
-59.19
-51.10
-46.36
-44.11
-42.52
-39.73
-34.70
-27.34
-18.22
-8.08
2.28
11.82
19.07
22.35
20.47
13.40
2.47
-10.18
-22.47
-33.14
-41.81
-48.65
-53.95
-57.73
-59.77
-59.67
-57.29
-52.77
-46.65
-39.71
-32.75
-26.45
-21.20
-17.10
-14.06
-11.93
-10.60
-10.03
-10.24
-11.19
-12.81
-14.88
-17.16
-19.39
-21.45
-23.37
-25.28
-27.23
-29.11
-30.49
-30.76
-29.20
-25.20
-18.47
-9.09
2.56
15.93
30.53
45.99
62.02
78.27
94.20
109.06
122.01
132.50
140.46
146.42
151.34
156.12
161.18
166.32
171.04
175.13
179.02
183.65
189.62
196.40
201.84
202.81
196.66
182.72
162.79
140.23
118.25
98.59
81.95
68.28
57.05
48.81
44.55
43.88
44.60
43.77
39.74
34.36
32.30
38.14
54.97
82.39
115.76
148.04
172.52
185.18
187.32
183.29
176.34
169.90
166.79
167.61
171.67
177.84
185.39
197.72
217.38
239.16
259.04
276.33
289.98
299.43
304.34
304.80
308.85
323.14
339.20
351.79
362.26
370.22
375.88
379.66
382.90
399.42
439.21
485.36
523.41
548.98
557.97
552.89
540.95
532.11
550.22
609.67
686.65
760.17
824.83
877.65
923.70
968.99
920.20
723.52
519.42
368.94
242.63
136.01
47.39
-19.87
-66.92
-99.68
-111.34
-98.33
-84.72
-83.40
-89.72
-136.15
-236.20
-384.66
-557.47
-712.23
-818.00
-881.80
-916.17
-927.21
-922.80
-903.96
-871.81
-829.07
-773.62
-707.49
-646.98
-601.82
-571.21
-552.96
-539.80
-526.83
-512.80
-493.24
-468.36
-445.68
-429.12
-416.98
-406.87
-393.87
-375.25
-351.14
-322.83
-293.57
-268.67
-251.41
-242.02
-238.71
-236.00
-227.15
-206.16
-170.30
-122.15
-68.58
-18.47
20.61
45.10
56.73
60.22
60.52
60.49
60.26
58.80
55.52
51.14
47.27
45.36
45.70
47.28
48.47
47.62
44.21
38.95
33.35
28.97
26.70
26.48
27.35
28.01
27.38
25.12
21.67
17.99
15.07
13.47
13.14
13.54
13.91
13.65
12.59
10.94
9.12
7.64
6.78
6.50
6.55
6.63
6.49
6.10
5.56
5.05
4.71
4.55
4.51
4.50
4.46
4.38
4.34
4.39
4.54
4.77
4.95
4.98
4.83
4.54
4.25
4.13
4.26
4.63
5.04
5.24
4.95
4.11
2.86
1.59
0.70
0.47
0.83
1.34
1.33
0.22
-2.22
-5.64
-9.25
-12.11
-13.63
-13.90
-13.73
-14.39
-17.01
-22.02
-28.85
-36.16
-42.38
-46.49
-48.60
-49.96
-52.37
-57.46
-65.90
-77.10
-89.38
-100.48
-107.91
-109.17
-102.25
-86.59
-63.91
-38.71
-17.44
-6.16
-7.74
-19.99
-36.12
-47.64
-48.10
-35.70
-13.37
13.44
39.61
62.30
80.89
95.75
106.86
113.43
114.54
110.10
101.38
90.64
80.53
72.85
68.02
65.08
62.34
58.29
52.21
44.51
36.41
29.35
24.30
21.42
20.00
18.95
17.26
14.45
10.69
6.66
3.14
0.69
-0.59
-1.06
-1.25
-1.66
-2.56
-3.88
-5.35
-6.61
-7.44
-7.78
-7.76
-7.57
-7.39
-7.33
-7.39
-7.51
-7.60
-7.62
-7.54
-7.39
-7.17
-6.91
-6.63
-6.34
-6.04
-5.75
-5.46
-5.19
-4.92
-4.68
-4.45
-4.23
