1680088122.00
64.000000
-0.00
-0.00
-0.00
-0.00
-0.00
-0.00
-0.00
-0.00
-0.00
-0.00
0.00
0.01
0.01
-0.00
-0.03
-0.05
-0.05
0.00
0.13
0.36
0.66
1.01
1.37
1.72
2.06
2.40
2.79
3.24
3.80
4.42
5.06
5.66
6.20
6.68
7.15
7.68
8.31
9.14
10.09
11.04
11.88
12.56
13.14
13.76
14.65
15.96
17.91
20.32
22.90
25.38
27.58
29.57
31.68
34.32
37.81
42.54
48.15
54.10
59.83
64.97
69.58
74.14
79.34
85.71
93.76
103.00
112.62
121.73
129.77
136.75
143.30
150.75
157.77
166.64
177.95
191.79
206.97
220.57
228.25
225.36
208.53
176.87
132.76
80.05
23.07
-34.94
-92.44
-149.16
-205.23
-260.37
-313.74
-363.87
-409.83
-450.91
-486.50
-515.74
-537.23
-549.22
-549.96
-538.37
-514.21
-478.67
-433.88
-382.45
-327.02
-269.84
-212.63
-156.66
-102.95
-52.37
-5.90
35.58
71.43
101.35
125.50
144.38
158.69
169.15
176.37
180.75
182.57
182.07
179.51
175.23
169.65
163.18
156.14
148.81
141.30
133.70
126.04
118.37
110.74
103.23
95.92
88.84
82.03
75.51
69.28
63.35
57.73
52.43
47.44
42.78
38.43
34.39
30.64
27.19
24.02
21.13
18.51
16.18
14.12
12.34
10.82
9.53
8.41
7.44
6.57
5.82
5.24
4.86
4.73
4.84
5.14
5.53
5.92
6.27
6.59
6.96
7.49
8.26
9.26
10.38
11.45
12.34
13.00
13.55
14.21
15.22
16.73
18.69
20.80
22.68
23.98
24.58
24.73
24.92
25.69
27.32
29.56
31.64
32.47
31.03
26.89
20.38
12.54
4.54
-2.76
-9.41
-16.31
-24.88
-36.20
-50.28
-65.76
-80.26
-91.31
-97.36
-98.50
-96.37
-93.44
-91.98
-93.25
-97.27
-102.80
-107.72
-109.25
-104.46
-90.78
-67.18
-35.06
1.46
36.33
63.26
77.98
79.61
70.85
56.66
42.05
30.15
21.48
14.74
8.70
3.80
2.36
7.25
19.26
35.15
48.01
50.33
38.03
12.88
-17.78
-44.86
-61.96
-68.71
-70.60
-75.77
-90.61
-116.67
-149.83
-182.06
-204.47
-210.03
-195.83
-163.83
-119.74
-70.91
-23.69
18.49
55.81
88.89
119.53
149.44
179.44
209.41
238.59
265.75
289.01
305.82
313.48
310.63
298.29
280.04
261.36
247.81
243.01
247.41
258.27
270.89
280.38
282.81
275.83
258.79
232.48
198.78
160.42
120.18
80.56
42.88
6.99
-28.72
-66.33
-106.97
-149.84
-192.06
-229.91
-260.51
-282.93
-298.10
-307.53
-311.64
-309.01
-297.24
-274.90
-243.17
-206.08
-169.18
-137.12
-111.85
-92.04
-74.07
-53.61
-27.21
6.45
46.02
87.04
122.52
144.28
145.22
122.54
79.56
26.31
-22.59
-51.72
-49.53
-11.97
56.02
141.93
229.55
303.82
354.85
379.53
380.46
363.06
332.64
292.71
245.26
191.97
135.05
77.26
20.73
-34.04
-88.72
-146.45
-210.45
-282.66
-362.58
-446.83
-528.87
-600.09
-651.67
-677.02
-674.03
-645.87
-599.83
-544.70
-487.77
-432.99
-381.12
-331.14
-282.09
-234.13
-188.25
-145.43
-105.68
-68.14
-31.54
4.89
41.08
76.48
110.94
145.77
183.56
226.66
274.92
324.03
365.92
391.29
393.50
371.65
330.93
280.50
229.50
183.71
144.34
108.96
73.47
33.67
-13.74
-70.47
-135.80
-205.74
-273.07
-328.87
-365.48
-379.58
-373.26
-352.98
-326.49
-299.80
-275.55
-253.52
-232.22
-210.09
-186.48
-161.32
-134.41
-104.94
-71.80
-34.18
7.83
53.31
101.72
152.62
205.58
259.76
313.51
364.33
409.08
444.71
468.88
482.01
485.78
482.37
473.56
460.64
444.60
426.54
407.70
389.22
373.99
364.15
360.32
361.15
363.84
365.27
363.17
356.68
337.27
301.99
253.14
197.79
144.41
99.04
63.89
38.61
23.08
14.06
10.11
9.62
10.32
9.49
4.74
-5.34
-19.47
-35.88
-53.44
-70.41
-86.34
-101.89
-118.19
-135.90
-154.55
-172.72
-189.13
-203.56
-216.05
-227.83
-240.72
-256.17
-274.37
-294.02
-312.70
-328.19
-339.47
-346.60
-351.36
-356.88
-366.83
-383.94
-408.28
-435.96
-459.46
-469.45
-457.78
-420.96
-361.59
-287.43
-208.07
-131.12
-59.91
6.53
71.66
139.16
211.08
287.03
364.08
437.09
499.65
545.42
569.85
571.65
553.18
519.27
475.53
426.61
375.50
323.92
273.13
224.68
180.36
141.78
109.68
83.52
61.58
41.51
21.17
-0.43
-22.32
-42.00
-56.68
-65.02
-68.34
-70.39
-75.53
-86.29
-101.96
-118.98
-133.14
-142.15
-147.09
-151.87
-161.23
-178.23
-202.90
-232.17
-261.49
-286.61
-305.05
-316.57
-322.71
-325.93
-328.47
-331.60
-335.17
-337.80
-337.49
-332.42
-321.78
-306.08
-286.82
-265.86
-244.76
-224.32
-204.61
-185.30
-165.97
-146.29
-125.86
-104.17
-80.52
-54.36
-25.63
5.14
37.00
68.88
99.77
128.87
155.20
177.56
194.55
204.96
208.29
204.87
195.66
181.66
163.45
141.13
114.86
85.71
56.04
29.24
8.70
-3.54
-7.54
-5.45
-0.57
4.02
6.51
6.67
5.44
4.07
3.42
3.62
4.23
4.52
3.85
1.84
-1.59
-6.33
-12.08
-18.39
-24.46
-29.04
-30.48
-27.06
-17.63
-2.18
17.87
39.96
61.22
79.33
93.07
102.37
107.84
110.19
109.92
107.29
102.57
96.21
88.83
80.94
72.85
64.68
56.60
49.14
43.19
39.86
40.02
43.96
51.15
60.29
69.62
77.39
82.28
83.70
81.89
77.75
72.48
67.10
62.13
57.51
52.79
47.77
42.88
39.28
38.48
41.58
48.73
58.84
69.83
79.31
85.00
84.84
76.94
59.57
31.76
-5.91
-50.76
-98.32
-143.52
-182.26
-212.53
-234.50
-249.65
-259.55
-265.03
-266.28
-263.38
-256.93
-248.03
-237.73
-226.41
-213.45
-197.66
-178.07
-154.72
-129.03
-103.41
-80.47
-61.86
-47.55
-35.91
-24.54
-11.57
3.17
17.85
29.43
35.12
34.01
27.73
19.82
14.07
12.75
15.56
20.01
22.78
21.55
16.33
9.75
6.14
10.22
25.68
54.28
95.07
144.20
195.31
240.85
274.28
292.02
294.63
286.08
271.77
255.99
240.42
224.30
206.09
185.14
162.47
139.88
118.64
98.48
78.07
56.26
33.28
11.03
-7.89
-21.31
-28.57
-30.70
-29.80
-28.16
-27.57
-29.12
-33.46
-41.15
-52.71
-68.37
-87.60
-108.74
-128.96
-144.89
-153.77
-154.61
-148.98
-140.70
-134.65
-134.92
-143.39
-159.11
-178.96
-199.03
-216.05
-228.31
-235.71
-239.26
-240.27
-239.74
-238.32
-236.58
-235.31
-235.57
-238.09
-242.46
-246.89
-248.87
-246.58
-240.26
-232.43
-226.67
-225.62
-229.22
-234.47
-236.77
-232.33
-219.94
-201.31
-179.93
-159.15
-140.86
-125.26
-111.62
-99.24
-87.90
-77.59
-68.08
-58.62
-48.13
-35.69
-21.07
-4.86
11.82
27.91
43.00
57.57
72.75
89.83
109.56
131.88
155.97
180.68
205.14
229.22
253.65
279.94
309.95
345.32
386.64
432.69
480.10
523.89
558.75
580.90
589.50
586.95
577.81
566.87
557.30
549.86
543.33
535.85
526.36
515.21
503.92
494.35
487.83
484.68
484.12
484.48
483.45
478.58
467.79
449.97
425.40
395.77
363.75
332.22
303.56
279.20
259.56
244.32
232.66
223.47
215.37
206.79
196.23
182.61
165.68
146.06
125.07
104.19
84.63
66.93
50.89
35.83
20.92
5.61
-10.16
-25.91
-40.95
-54.59
-66.55
-77.10
-86.96
-97.06
-108.19
-120.65
-134.21
-148.20
-161.87
-174.79
-187.06
-199.30
-212.39
-227.13
-243.91
-262.79
-283.51
-305.51
-327.92
-349.52
-368.88
-384.63
-395.76
-401.71
-402.21
-396.90
-385.32
-366.84
-341.44
-310.24
-275.69
-241.54
-212.09
-191.23
-181.42
-182.79
-192.85
-207.10
-220.25
-227.91
-227.94
-220.73
-208.52
-193.93
-178.83
-163.85
-148.79
-133.36
-117.76
-102.65
-88.78
-76.53
-65.82
-56.36
-47.90
-40.44
-34.09
-28.95
-25.17
-22.66
-21.24
-20.64
-20.52
-20.67
-21.17
-22.54
-25.53
-30.77
-38.27
-47.20
-56.01
-62.97
-66.78
-67.08
-64.39
-59.83
-54.58
-49.53
-45.15
-41.67
-39.19
-37.84
-37.61
-38.30
-39.48
-40.59
-41.25
-41.42
-41.33
-41.31
-41.40
-41.21
-39.89
-36.53
-30.51
-21.76
-10.84
1.26
13.37
24.34
33.25
39.55
43.06
44.08
43.20
41.09
38.29
35.08
31.58
27.96
24.54
21.84
20.29
20.09
21.08
22.85
24.93
26.97
28.69
29.76
29.78
28.31
25.09
20.31
14.57
8.70
3.37
-1.17
-5.17
-9.19
-13.66
-18.55
-23.31
-27.02
-28.97
-28.95
-27.46
-25.45
-23.87
-23.28
-23.73
-24.88
-26.38
-28.08
-30.04
-32.40
-35.10
-37.89
-40.51
-42.87
-45.26
-48.17
-52.08
-57.06
-62.68
-68.02
-72.01
-73.71
-72.64
-68.84
-62.84
-55.38
-47.29
-39.26
-31.95
-25.94
-21.73
-19.70
-19.98
-22.49
-26.93
-32.86
-39.66
-46.44
-51.93
-54.53
-52.65
-45.25
-32.38
-15.46
3.00
20.08
33.28
41.27
44.08
42.81
39.21
35.06
31.86
30.64
32.00
36.04
42.29
49.64
56.43
60.74
60.89
55.92
46.01
32.44
17.32
3.06
-8.11
-14.50
-15.08
-9.50
1.95
18.17
37.22
56.35
72.57
83.33
87.46
85.78
80.94
76.53
75.63
79.60
87.51
96.58
103.38
105.13
100.45
89.48
73.41
53.90
32.72
11.60
-7.82
-24.31
-37.22
-46.67
-53.40
-58.26
-61.64
-63.05
-61.25
-54.90
-43.23
-26.74
-7.23
12.69
30.35
43.85
52.49
56.87
58.54
59.41
61.33
65.87
74.03
85.94
100.66
116.29
130.43
140.94
146.77
148.00
145.36
139.33
129.50
114.64
93.27
64.63
29.31
-10.43
-51.11
-88.79
-119.94
-142.06
-154.08
-156.49
-151.08
-140.49
-127.54
-114.81
-104.16
-96.64
-92.41
-90.90
-91.08
-91.76
-91.92
-90.94
-88.69
-85.27
-80.75
-75.03
-67.89
-59.23
-49.18
-38.19
-27.02
-16.46
-7.17
0.53
6.68
11.69
16.19
20.82
26.09
32.27
39.30
46.90
54.53
61.52
67.14
70.68
71.56
69.56
65.01
58.85
52.47
47.28
44.18
43.22
43.67
44.41
44.64
44.19
43.50
43.27
43.96
45.57
47.75
49.99
52.02
53.86
55.68
57.60
59.55
61.32
62.59
63.02
62.39
60.55
57.44
53.07
47.42
40.53
32.44
23.37
13.76
4.29
-4.35
-11.68
-17.59
-22.26
-25.92
-28.65
-30.30
-30.60
-29.44
-26.96
-23.60
-19.83
-15.98
-12.11
-8.07
-3.71
1.00
5.87
10.52
14.53
17.54
19.25
19.48
18.17
15.44
11.67
7.49
3.65
0.81
-0.71
-1.02
-0.47
0.62
2.19
4.48
7.75
12.07
17.12
22.21
26.60
29.80
31.74
32.73
33.31
34.01
35.17
36.87
39.03
41.51
44.27
47.47
51.42
56.45
62.80
70.37
78.66
86.50
92.01
92.77
86.44
71.63
48.72
20.04
-10.83
-40.31
-66.16
-88.10
-107.41
-125.82
-144.33
-162.60
-179.09
-191.82
-199.06
-199.75
-193.62
-181.01
-162.83
-140.47
-115.76
-90.74
-67.44
-47.48
-31.80
-20.58
-13.45
-9.79
-9.12
-11.32
-16.58
-25.06
-36.47
-49.76
-63.16
-74.62
-82.41
-85.65
-84.27
-78.85
-69.95
-57.76
-42.11
-22.90
-0.65
23.26
46.89
68.44
86.91
102.25
114.84
124.78
131.28
132.90
128.24
116.72
99.21
77.66
54.55
32.05
11.63
-5.92
-20.40
-31.97
-41.23
-49.14
-57.00
-66.05
-77.04
-89.86
-103.25
-114.92
-121.81
-120.68
-108.93
-85.28
-50.47
-7.28
39.80
85.51
124.79
153.74
170.11
173.37
164.44
145.39
119.06
88.65
57.62
29.21
6.10
-9.99
-18.50
-19.87
-15.35
-6.50
5.02
17.67
29.94
40.49
48.31
52.86
54.21
52.90
49.80
45.79
41.62
37.73
34.22
30.83
27.01
22.18
15.93
8.41
0.29
-7.45
-13.94
-18.77
-22.08
-24.28
-25.70
-26.34
-25.88
-24.11
-21.20
-17.79
-14.80
-12.98
-12.61
-13.46
-15.06
-17.00
-19.16
-21.63
-24.37
-26.90
-28.38
-27.83
-24.74
-19.38
-12.75
-6.16
-0.59
3.70
7.20
10.62
14.36
18.12
20.99
22.02
20.72
17.43
13.06
8.58
4.56
1.00
-2.36
-5.49
-7.90
-8.73
-7.28
-3.49
1.83
7.34
11.71
14.14
14.54
13.47
11.75
10.08
8.92
8.39
8.36
8.58
8.80
8.76
8.23
7.03
4.99
2.02
-1.72
-5.87
-9.76
-12.66
-13.96
-13.41
-11.15
-7.60
-3.25
1.43
5.91
9.58
11.73
11.72
9.32
4.87
-0.70
-6.15
-10.27
-12.21
-11.59
-8.53
-3.48
2.88
9.74
16.23
21.48
24.83
25.89
24.70
21.73
17.77
13.73
10.39
8.17
7.04
6.56
6.16
5.36
3.99
2.16
0.22
-1.42
-2.35
-2.26
-0.95
1.54
4.83
8.19
10.70
11.57
10.39
7.25
2.65
-2.77
-8.46
-14.09
-19.48
-24.51
-28.98
-32.61
-35.19
-36.67
-37.30
-37.57
-38.05
-39.17
-40.99
-43.14
-44.96
-45.77
-45.05
-42.63
-38.65
-33.47
-27.56
-21.47
-15.78
-10.93
-7.13
-4.19
-1.55
1.46
5.34
10.19
15.65
21.14
26.07
30.07
32.97
34.69
35.19
34.41
32.39
29.29
25.34
20.85
16.10
11.41
7.14
3.76
1.71
1.31
2.61
5.32
8.87
12.53
15.58
17.44
17.77
16.56
14.06
10.73
7.15
3.80
0.97
-1.30
-3.16
-4.78
-6.26
-7.62
-8.79
-9.73
-10.46
-11.08
-11.70
-12.43
-13.42
-14.79
-16.62
-18.82
-21.07
-22.84
-23.47
-22.46
-19.68
-15.49
-10.63
-5.96
-2.19
0.41
1.89
2.62
2.99
3.28
3.56
3.69
3.42
2.53
0.90
-1.46
-4.38
-7.62
-10.90
-13.97
-16.57
-18.47
-19.45
-19.25
-17.68
-14.66
-10.31
-5.00
0.71
6.22
10.96
14.62
17.08
18.35
18.48
17.50
15.46
12.54
9.11
5.69
2.88
1.18
0.80
1.67
3.42
5.57
7.71
9.64
11.34
12.85
14.03
14.54
13.97
12.13
9.41
6.72
5.19
5.70
8.34
12.39
16.62
19.95
21.87
22.54
22.55
22.35
22.01
21.10
18.98
15.17
9.61
2.65
-5.12
-13.10
-20.90
-28.21
-34.76
-40.22
-44.17
-46.26
-46.30
-44.41
-40.97
-36.53
-31.66
-26.76
-22.09
-17.71
-13.63
-9.91
-6.78
-4.66
-3.97
-4.94
-7.33
-10.49
-13.60
-16.03
-17.65
-18.71
-19.66
-20.63
-21.36
-21.20
-19.60
-16.46
-12.27
-7.90
-4.21
-1.66
-0.21
0.48
0.81
0.96
1.01
1.04
1.34
2.41
4.72
8.49
13.45
18.97
24.23
28.57
31.66
33.49
34.23
34.03
32.96
31.04
28.36
25.13
21.65
18.23
15.06
12.17
9.49
6.98
4.71
2.99
2.19
2.65
4.43
7.28
10.62
13.84
16.47
18.37
19.71
20.79
21.87
23.06
24.26
25.36
26.21
26.67
26.55
25.67
23.87
21.23
18.07
14.91
12.21
10.19
8.60
6.92
4.55
1.23
-2.84
-7.06
-10.67
-13.06
-13.99
-13.55
-12.08
-9.97
-7.53
-5.02
-2.64
-0.61
0.83
1.53
1.49
0.92
0.16
-0.37
-0.43
-0.04
0.52
0.78
0.36
-0.93
-2.98
-5.47
-8.00
-10.22
-12.03
-13.48
-14.81
-16.22
-17.87
-19.75
-21.64
-23.20
-23.98
-23.62
-22.02
-19.46
-16.55
-14.19
-13.25
-14.40
-17.93
-23.58
-30.59
-37.82
-44.05
-48.30
-50.10
-49.63
-47.47
-44.41
-41.08
-37.85
-34.83
-32.04
-29.45
-27.06
-24.76
-22.31
-19.43
-16.04
-12.41
-9.13
-6.79
-5.68
-5.57
-5.76
-5.39
-3.73
-0.51
4.13
9.67
15.45
20.87
25.44
28.88
31.02
31.83
31.34
29.73
27.24
24.23
21.09
18.14
15.59
13.48
11.75
10.43
9.73
10.00
11.56
14.45
18.33
22.47
26.07
28.43
29.22
28.49
26.54
23.79
20.60
17.25
13.93
10.82
8.09
5.86
4.18
2.93
1.87
0.78
-0.46
-1.75
-2.88
-3.61
-3.85
-3.67
-3.26
-2.88
-2.81
-3.29
-4.57
-6.78
-9.79
-13.15
-15.99
-17.31
-16.33
-12.76
-7.06
-0.20
6.64
12.44
16.57
18.88
19.57
19.03
17.66
15.80
13.74
11.77
10.13
8.98
8.36
8.12
7.94
7.49
6.59
5.35
4.19
3.71
4.46
6.66
10.03
13.81
17.05
18.93
19.04
17.46
14.66
11.30
7.95
4.97
2.49
0.41
-1.47
-3.35
-5.38
-7.62
-9.96
-12.20
-14.10
-15.47
-16.25
-16.53
-16.54
-16.51
-16.67
-17.14
-17.91
-18.83
-19.73
-20.45
-21.00
-21.53
-22.25
-23.27
-24.50
-25.59
-26.04
-25.35
-23.22
-19.65
-14.95
-9.58
-4.06
1.18
5.90
9.92
13.16
15.46
16.63
16.56
15.31
13.13
10.46
7.76
5.34
3.30
1.59
0.16
-0.94
-1.49
-1.21
0.10
2.39
5.38
8.55
11.34
13.29
14.15
13.91
12.82
11.25
9.57
8.09
6.92
6.06
5.46
5.10
5.02
5.26
5.79
6.50
7.25
7.90
8.35
8.55
8.45
7.98
7.02
5.52
3.54
1.30
-0.88
-2.73
-4.09
-4.95
-5.35
-5.45
-5.46
-5.74
-6.75
-8.87
-12.19
-16.33
-20.51
-23.85
-25.77
-26.13
-25.24
-23.54
-21.36
-18.79
-15.85
-12.62
-9.27
-6.08
-3.12
-0.34
2.35
4.88
6.89
7.94
7.71
6.27
4.03
1.52
-0.89
-3.13
-5.36
-7.68
-9.99
-11.89
-12.84
-12.46
-10.69
-7.79
-4.33
-0.92
1.89
3.67
4.10
2.97
0.13
-4.35
-10.06
-16.30
-22.19
-26.95
-30.15
-31.77
-32.14
-31.72
-30.88
-29.77
-28.38
-26.60
-24.35
-21.61
-18.37
-14.61
-10.30
-5.47
-0.29
4.91
9.68
13.56
16.16
17.26
16.81
14.95
11.98
8.37
4.66
1.45
-0.62
-1.06
0.49
4.00
9.07
14.95
20.67
25.36
28.41
29.74
29.60
28.53
27.04
25.49
24.04
22.68
21.31
19.78
17.89
15.54
12.76
9.78
6.98
4.76
3.42
3.04
3.49
4.54
5.93
7.40
8.74
9.79
10.39
10.44
9.99
9.18
8.20
7.18
6.12
4.92
3.47
1.81
0.17
-1.08
-1.67
-1.57
-1.00
-0.34
0.09
0.16
-0.06
-0.43
-0.94
-1.70
-2.87
-4.47
-6.34
-8.18
-9.76
-11.08
-12.33
-13.76
-15.50
-17.36
-18.89
-19.63
-19.16
-17.38
-14.41
-10.55
-6.18
-1.71
2.48
6.07
8.87
10.81
11.96
12.42
12.27
11.56
10.32
8.66
6.70
4.56
2.33
0.02
-2.28
-4.41
-5.97
-6.50
-5.59
-3.14
0.53
4.80
8.85
12.06
13.98
14.47
13.60
11.61
8.86
5.78
2.82
0.32
-1.53
-2.77
-3.57
-4.13
-4.55
-4.79
-4.80
-4.56
-4.24
-4.08
-4.23
-4.69
-5.18
-5.38
-5.12
-4.50
-3.84
-3.53
-3.79
-4.56
-5.55
-6.45
-7.16
-7.80
-8.73
-10.17
-12.19
-14.50
-16.62
-18.02
-18.25
-17.03
-14.27
-10.02
-4.51
1.90
8.68
15.22
20.88
25.10
27.55
28.12
26.95
24.40
20.92
17.07
13.36
10.15
7.56
5.48
3.61
1.79
0.08
-1.15
-1.39
-0.22
2.45
6.28
10.60
14.64
17.70
19.34
19.32
17.65
14.50
10.21
5.28
0.37
-3.86
-6.81
-8.17
-7.96
-6.54
-4.50
-2.42
-0.71
0.48
1.25
1.76
2.08
2.13
1.76
0.82
-0.70
-2.64
-4.82
-7.03
-9.15
-11.05
-12.63
-13.74
-14.36
-14.63
-14.88
-15.52
-16.82
-18.77
-21.04
-23.07
-24.23
-24.02
-22.17
-18.68
-13.90
-8.43
-3.02
1.54
4.62
5.83
5.16
2.94
-0.33
-4.08
-7.86
-11.42
-14.76
-17.94
-21.05
-23.98
-26.43
-27.87
-27.70
-25.46
-21.01
-14.72
-7.33
0.13
6.66
11.48
14.16
14.61
12.98
9.63
5.05
-0.10
-5.09
-9.21
-11.94
-13.05
-12.67
-11.20
-9.17
-7.11
-5.36
-4.04
-2.93
-1.61
0.37
3.16
6.51
9.79
12.26
13.43
13.31
12.35
11.14
10.06
9.16
8.18
6.86
5.24
3.70
2.86
3.23
5.02
7.96
11.51
15.02
18.01
20.22
21.61
22.14
21.80
20.49
18.25
15.26
11.96
8.88
6.40
4.63
3.37
2.34
1.40
0.67
0.54
1.39
3.38
6.30
9.58
12.56
14.68
15.66
15.52
14.47
12.76
10.64
8.27
5.82
3.48
1.44
-0.13
-1.13
-1.55
-1.54
-1.28
-0.99
-0.79
-0.71
-0.73
-0.81
-0.99
-1.44
-2.32
-3.74
-5.76
-8.28
-11.19
-14.32
-17.48
-20.37
-22.64
-23.96
-24.09
-22.97
-20.61
-17.11
-12.61
-7.38
-1.83
3.43
7.84
10.99
12.86
13.66
13.73
13.26
12.25
10.62
8.42
5.88
3.37
1.18
-0.49
-1.62
-2.19
-2.09
-1.17
0.69
3.37
6.58
9.88
12.87
15.24
16.78
17.25
16.50
14.45
11.26
7.36
3.37
-0.09
-2.57
-3.92
-4.34
-4.14
-3.68
-3.22
-2.87
-2.66
-2.62
-2.80
-3.25
-4.04
-5.14
-6.44
-7.71
-8.72
-9.33
-9.55
-9.58
-9.70
-10.21
-11.24
-12.73
-14.49
-16.33
-18.11
-19.80
-21.34
-22.48
-22.83
-21.92
-19.44
-15.48
-10.45
-5.05
0.11
4.66
8.47
11.64
14.20
16.13
17.30
17.59
16.97
15.56
13.56
11.23
8.90
6.88
5.50
5.08
5.89
8.04
11.43
15.71
20.29
24.48
27.67
29.45
29.74
28.74
26.75
24.14
21.19
18.13
15.14
12.34
9.84
7.65
5.76
4.15
2.79
1.69
0.82
0.10
-0.65
-1.61
-2.92
-4.58
-6.51
-8.53
-10.49
-12.32
-13.96
-15.43
-16.77
-18.00
-19.15
-20.29
-21.54
-23.03
-24.87
-27.02
-29.27
-31.35
-33.03
-34.24
-35.10
-35.75
-36.15
-35.93
-34.53
-31.41
-26.41
-19.86
-12.59
-5.58
0.24
4.31
6.39
6.51
4.86
1.73
-2.45
-7.15
-11.75
-15.70
-18.51
-19.84
-19.51
-17.46
-13.85
-9.12
-3.92
1.01
5.00
7.67
9.05
9.41
9.24
9.03
9.14
9.72
10.70
11.84
12.76
13.17
12.88
11.99
10.73
9.49
8.59
8.16
8.23
8.70
9.48
10.47
11.59
12.68
13.54
13.92
13.61
12.48
10.55
7.95
4.97
1.85
-1.17
-3.94
-6.38
-8.41
-9.96
-10.88
-11.02
-10.31
-8.72
-6.29
-3.11
0.77
5.27
10.24
15.42
20.38
24.59
27.58
29.05
28.94
27.44
24.86
21.54
17.75
13.71
9.63
5.81
2.70
0.77
0.42
1.85
4.85
8.95
13.37
17.34
20.22
21.65
21.58
20.18
17.82
14.86
11.65
8.44
5.40
2.60
0.08
-2.13
-4.02
-5.54
-6.68
-7.49
-8.02
-8.31
-8.37
-8.22
-7.88
-7.52
-7.35
-7.58
-8.28
-9.32
-10.51
-11.73
-13.10
-14.85
-17.23
-20.17
-23.23
-25.74
-27.02
-26.70
-24.82
-21.75
-17.97
-13.86
-9.64
-5.41
-1.25
2.80
6.61
10.04
12.89
14.89
15.78
15.43
13.97
11.78
9.36
7.15
5.36
3.99
2.94
2.18
1.81
2.06
3.13
5.05
7.58
10.30
12.70
14.39
15.16
15.02
14.12
12.68
10.83
8.66
6.23
3.64
1.06
-1.25
-3.05
-4.18
-4.67
-4.65
-4.34
-3.96
-3.67
-3.50
-3.39
-3.26
-3.08
-2.97
-3.10
-3.60
-4.44
-5.45
-6.42
-7.20
-7.87
-8.64
-9.66
-10.98
-12.38
-13.54
-14.13
-13.91
-12.76
-10.68
-7.71
-3.96
0.41
5.16
9.96
14.48
18.35
21.31
23.15
23.82
23.40
22.03
19.91
17.21
14.08
10.74
7.52
4.88
3.34
3.33
5.01
8.14
11.99
15.46
17.34
16.67
13.12
7.14
-0.08
-7.13
-12.86
-16.74
-18.95
-20.00
-20.33
-20.06
-18.97
-16.86
-13.84
-10.38
-7.25
-5.14
-4.32
-4.63
-5.61
-6.73
-7.69
-8.41
-8.94
-9.27
-9.28
-8.84
-8.01
-7.19
-6.99
-8.00
-10.47
-14.22
-18.73
-23.35
-27.49
-30.63
-32.30
-32.06
-29.67
-25.27
-19.46
-13.17
-7.36
-2.71
0.43
2.00
2.01
0.48
-2.47
-6.48
-10.98
-15.29
-18.86
-21.41
-22.86
-23.14
-22.09
-19.47
-15.16
-9.36
-2.68
4.03
9.91
14.33
16.99
17.92
17.30
15.52
13.05
10.46
8.32
7.06
6.85
7.55
8.77
10.08
11.13
11.73
11.80
11.36
10.47
9.25
7.96
6.91
6.33
6.29
6.54
6.67
6.30
5.22
3.52
1.58
-0.08
-0.90
-0.47
1.38
4.50
8.49
12.71
16.54
19.54
21.55
22.68
23.13
23.03
22.42
21.29
19.68
17.73
15.67
13.68
11.86
10.24
8.89
7.96
7.72
8.39
10.06
12.54
15.38
17.99
19.83
20.60
20.36
19.42
18.18
16.85
15.39
13.62
11.38
8.75
6.03
3.60
1.66
0.14
-1.27
-2.91
-4.92
-7.15
-9.28
-10.95
-11.93
-12.22
-12.08
-11.93
-12.20
-13.22
-15.02
-17.33
-19.69
-21.58
-22.62
-22.61
-21.52
-19.46
-16.58
-13.06
-9.15
-5.20
-1.52
1.61
4.05
5.75
6.70
6.87
6.21
4.79
2.79
0.49
-1.71
-3.45
-4.47
-4.69
-4.19
-3.16
-1.81
-0.23
1.59
3.72
6.11
8.46
10.25
10.90
10.13
8.20
5.85
4.03
3.48
4.31
6.02
7.74
8.71
8.51
7.27
5.37
3.25
1.19
-0.74
-2.57
-4.30
-5.79
-6.90
-7.50
-7.64
-7.62
-7.81
-8.59
-10.14
-12.37
-15.08
-17.92
-20.61
-22.92
-24.62
-25.52
-25.43
-24.32
-22.29
-19.61
-16.59
-13.48
-10.39
-7.30
-4.14
-0.89
2.35
5.39
7.97
9.94
11.29
12.19
12.90
13.63
14.44
15.18
15.60
15.47
14.80
13.76
12.65
11.77
11.32
11.43
12.18
13.61
15.58
17.86
20.10
22.00
23.37
24.18
24.42
24.02
22.78
20.55
17.31
13.32
9.05
5.00
1.52
-1.29
-3.54
-5.33
-6.69
-7.45
-7.42
-6.56
-5.12
-3.64
-2.75
-2.97
-4.50
-7.19
-10.59
-14.16
-17.41
-20.03
-21.98
-23.43
-24.73
-26.17
-27.80
-29.27
-29.97
-29.24
-26.73
-22.66
-17.72
-12.79
-8.57
-5.29
-2.77
-0.60
1.55
3.73
5.69
7.00
7.32
6.55
4.93
2.97
1.27
0.14
-0.49
-1.07
-2.15
-3.92
-5.99
-7.51
-7.60
-5.82
-2.45
1.60
5.26
7.72
8.76
8.65
7.86
6.75
5.43
3.81
1.91
-0.06
-1.66
-2.40
-2.02
-0.61
1.33
3.08
3.96
3.56
1.82
-0.95
-4.26
-7.63
-10.74
-13.44
-15.73
-17.56
-18.81
-19.26
-18.71
-17.18
-14.99
-12.64
-10.59
-8.97
-7.50
-5.70
-3.16
0.05
3.42
6.22
7.91
8.51
8.47
8.43
8.82
9.69
10.75
11.75
12.73
14.10
16.42
20.01
24.64
29.55
33.65
35.91
35.82
33.45
29.39
24.50
19.57
15.23
11.84
9.61
8.67
9.06
10.67
13.12
15.79
17.89
18.72
17.90
15.51
12.12
8.48
5.28
2.84
1.11
-0.16
-1.23
-2.19
-2.99
-3.55
-3.91
-4.26
-4.89
-5.96
-7.47
-9.11
-10.53
-11.41
-11.68
-11.56
-11.39
-11.55
-12.25
-13.47
-15.02
-16.65
-18.28
-19.94
-21.75
-23.63
-25.24
-25.98
-25.23
-22.60
-18.22
-12.65
-6.75
-1.38
2.84
5.65
7.11
7.41
6.89
5.92
5.06
4.96
6.06
8.49
11.76
14.93
16.87
16.80
14.61
10.96
6.98
3.84
2.30
2.53
4.20
6.71
9.48
11.99
13.91
15.06
15.44
15.13
14.24
12.86
11.03
8.78
6.24
3.61
1.11
-1.06
-2.86
-4.38
-5.75
-7.00
-8.03
-8.65
-8.75
-8.38
-7.77
-7.20
-6.87
-6.90
-7.34
-8.23
-9.61
-11.43
-13.47
-15.43
-17.03
-18.16
-18.98
-19.73
-20.60
-21.49
-22.10
-22.02
-20.96
-18.84
-15.81
-12.12
-8.04
-3.80
0.41
4.37
7.89
10.82
13.09
14.68
15.52
15.55
14.74
13.20
11.26
9.27
7.53
6.08
4.83
3.61
2.47
1.70
1.67
2.64
4.51
6.85
9.08
10.72
11.57
11.73
11.48
11.13
10.96
11.12
11.64
12.36
12.95
13.01
12.21
10.47
7.97
5.11
2.25
-0.34
-2.56
-4.46
-6.09
-7.53
-8.77
-9.82
-10.67
-11.34
-11.89
-12.42
-13.13
-14.23
-15.88
-18.13
-20.81
-23.59
-25.97
-27.42
-27.42
-25.71
-22.30
-17.60
-12.28
-7.11
-2.70
0.60
2.76
3.92
4.30
4.08
3.39
2.32
0.93
-0.64
-2.17
-3.41
-4.16
-4.41
-4.40
-4.54
-5.24
-6.68
-8.68
-10.74
-12.23
-12.62
-11.73
-9.69
-6.88
-3.68
-0.37
2.79
5.60
7.78
9.08
9.31
8.50
6.87
4.84
2.85
1.22
0.12
-0.44
-0.47
-0.04
0.77
1.79
2.78
3.49
3.78
3.68
3.39
3.16
3.15
3.33
3.49
3.32
2.55
1.09
-0.96
-3.39
-5.95
-8.38
-10.39
-11.62
-11.75
-10.54
-8.00
-4.39
-0.17
4.14
8.12
11.43
13.89
15.36
15.77
15.16
13.72
11.77
9.70
7.80
6.19
4.82
3.63
2.64
2.05
2.13
3.08
4.90
7.35
9.93
12.12
13.54
14.13
14.07
13.65
13.07
12.31
11.17
9.43
6.99
4.01
0.88
-1.97
-4.12
-5.33
-5.55
-4.94
-3.81
-2.65
-1.95
-2.17
-3.55
-5.99
-9.12
-12.36
-15.20
-17.34
-18.77
-19.65
-20.11
-20.17
-19.71
-18.57
-16.73
-14.29
-11.41
-8.28
-4.99
-1.60
1.84
5.28
8.61
11.74
14.60
17.13
19.20
20.54
20.76
19.56
16.91
13.23
9.26
5.81
3.43
2.19
1.72
1.51
1.19
0.80
0.66
1.15
2.41
4.22
6.06
7.36
7.72
7.05
5.49
3.38
1.11
-0.99
-2.64
-3.70
-4.15
-4.10
-3.73
-3.26
-2.92
-2.88
-3.24
-4.05
-5.27
-6.73
-8.15
-9.22
-9.74
-9.70
-9.36
-9.15
-9.44
-10.41
-11.92
-13.61
-15.06
-16.01
-16.36
-16.11
-15.18
-13.40
-10.61
-6.80
-2.23
2.60
7.13
10.91
13.76
15.68
16.81
17.26
17.09
16.22
14.53
11.95
8.57
4.79
1.23
-1.34
-2.28
-1.33
1.34
5.23
9.76
14.45
18.91
22.72
25.37
26.27
25.00
21.58
16.55
10.79
5.24
0.57
-2.95
-5.39
-6.92
-7.71
-7.81
-7.26
-6.17
-4.75
-3.41
-2.53
-2.43
-3.15
-4.47
-5.97
-7.23
-8.05
-8.55
-9.05
-9.93
-11.33
-13.13
-14.97
-16.50
-17.47
-17.87
-17.82
-17.50
-16.99
-16.27
-15.25
-13.91
-12.32
-10.63
-9.02
-7.61
-6.41
-5.35
-4.29
-3.09
-1.63
0.18
2.44
5.19
8.35
11.66
14.67
16.90
18.04
18.06
17.17
15.68
13.84
11.69
9.17
6.25
3.07
-0.10
-3.01
-5.57
-7.92
-10.37
-13.10
-16.07
-18.95
-21.36
-23.07
-24.11
-24.76
-25.24
-25.58
-25.59
-24.95
-23.51
-21.46
-19.25
-17.42
-16.40
-16.36
-17.12
-18.28
-19.24
-19.41
-18.30
-15.59
-11.29
-5.76
0.33
6.15
10.95
14.19
15.67
15.48
13.97
11.66
9.00
6.40
4.04
2.04
0.50
-0.40
-0.38
0.84
3.44
7.25
11.83
16.47
20.42
23.15
24.48
24.59
23.85
22.56
20.85
18.67
15.90
12.52
8.71
4.83
1.24
-1.85
-4.26
-5.82
-6.23
-5.18
-2.65
0.80
4.06
5.86
5.41
2.80
-1.05
-4.78
-7.25
-8.00
-7.24
-5.57
-3.55
-1.47
0.66
2.96
5.46
7.99
10.31
12.18
13.46
14.09
14.10
13.59
12.71
11.64
10.51
9.45
8.48
7.64
6.91
6.37
6.18
6.53
7.62
9.45
11.78
14.18
16.10
17.10
16.99
15.84
13.93
11.64
9.27
7.01
4.89
2.87
0.88
-1.09
-3.03
-4.89
-6.70
-8.49
-10.31
-12.10
-13.78
-15.25
-16.52
-17.74
-19.10
-20.70
-22.39
-23.78
-24.41
-23.97
-22.46
-20.10
-17.25
-14.05
-10.49
-6.47
-1.95
2.86
7.50
11.44
14.21
15.61
15.76
14.91
13.34
11.31
9.02
6.75
4.85
3.65
3.38
4.10
5.73
8.10
10.99
14.14
17.14
19.50
20.73
20.57
19.09
16.62
13.65
10.47
7.22
3.89
0.60
-2.33
-4.49
-5.63
-5.86
-5.62
-5.46
-5.73
-6.42
-7.29
-8.08
-8.78
-9.54
-10.58
-11.97
-13.52
-14.89
-15.78
-16.11
-16.11
-16.20
-16.81
-18.15
-20.09
-22.19
-23.82
-24.41
-23.57
-21.24
-17.58
-12.83
-7.27
-1.17
5.13
11.16
16.34
20.15
22.29
22.84
22.18
20.88
19.47
18.33
17.68
17.57
17.98
18.79
19.81
20.81
21.58
22.02
22.20
22.28
22.42
22.61
22.67
22.35
21.49
20.10
18.39
16.57
14.68
12.61
10.19
7.37
4.36
1.53
-0.71
-2.18
-2.94
-3.30
-3.65
-4.36
-5.65
-7.60
-10.06
-12.63
-14.81
-16.06
-16.14
-15.21
-13.79
-12.51
-11.89
-12.22
-13.58
-15.97
-19.33
-23.54
-28.30
-33.10
-37.32
-40.36
-41.80
-41.34
-38.87
-34.32
-27.84
-19.94
-11.49
-3.62
2.63
6.60
8.19
7.77
5.97
3.45
0.75
-1.74
-3.75
-5.08
-5.61
-5.29
-4.27
-2.79
-1.15
0.43
1.85
3.20
4.75
6.74
9.32
12.33
15.40
17.98
19.51
19.64
18.35
15.96
13.05
10.32
8.29
7.18
6.88
7.11
7.64
8.37
9.33
10.44
11.44
11.81
11.08
9.12
6.28
3.30
0.92
-0.49
-1.09
-1.36
-1.73
-2.34
-2.99
-3.38
-3.33
-2.92
-2.35
-1.72
-0.95
0.13
1.65
3.59
5.73
7.89
9.99
12.06
14.16
16.15
17.75
18.63
18.63
17.84
16.48
14.86
13.13
11.35
9.53
7.77
6.31
5.42
5.28
5.91
7.09
8.49
9.73
10.50
10.59
9.91
8.54
6.63
4.50
2.43
0.71
-0.49
-1.08
-1.12
-0.76
-0.20
0.34
0.70
0.80
0.55
-0.10
-1.17
-2.65
-4.38
-6.08
-7.46
-8.37
-8.94
-9.53
-10.56
-12.23
-14.41
-16.62
-18.33
-19.15
-18.95
-17.85
-16.03
-13.59
-10.58
-7.06
-3.17
0.81
4.54
7.73
10.22
11.93
12.85
13.03
12.51
11.38
9.82
8.04
6.27
4.70
3.46
2.68
2.43
2.81
3.91
5.77
8.34
11.32
14.21
16.36
17.17
16.35
14.07
10.92
7.71
5.06
3.24
2.06
1.11
0.06
-1.17
-2.32
-3.07
-3.20
-2.82
-2.23
-1.82
-1.80
-2.12
-2.55
-2.90
-3.12
-3.37
-3.90
-4.89
-6.34
-8.13
-10.03
-11.85
-13.41
-14.59
-15.24
-15.29
-14.70
-13.53
-11.87
-9.79
-7.31
-4.37
-0.99
2.69
6.33
9.59
12.20
14.04
15.22
15.87
16.12
16.01
15.51
14.56
13.19
11.50
9.64
7.76
5.94
4.17
2.43
0.77
-0.53
-0.96
0.01
2.64
6.68
11.28
15.24
17.47
17.42
15.30
11.83
7.95
4.36
1.33
-1.26
-3.60
-5.84
-7.98
-9.97
-11.86
-13.84
-16.15
-18.91
-22.08
-25.38
-28.48
-31.13
-33.20
-34.67
-35.60
-36.04
-36.05
-35.66
-34.95
-33.97
-32.78
-31.43
-30.05
-28.87
-28.13
-27.91
-27.93
-27.56
-25.99
-22.64
-17.44
-10.93
-4.08
2.05
6.63
9.20
9.70
8.38
5.79
2.66
-0.22
-2.17
-2.90
-2.56
-1.62
-0.57
0.36
1.30
2.61
4.60
7.36
10.65
14.07
17.25
19.92
22.01
23.41
24.03
23.76
22.62
20.80
18.63
16.50
14.64
13.10
11.81
10.65
9.62
8.78
8.18
7.75
7.25
6.41
5.06
3.33
1.50
-0.06
-1.17
-1.85
-2.35
-2.88
-3.57
-4.40
-5.24
-5.93
-6.30
-6.16
-5.36
-3.84
-1.65
0.95
3.63
6.05
8.04
9.54
10.51
10.90
10.60
9.59
8.02
6.22
4.59
3.45
2.87
2.69
2.66
2.61
2.51
2.46
2.68
3.33
4.51
6.17
8.16
10.16
11.84
12.90
13.21
12.78
11.78
10.35
8.60
6.63
4.55
2.57
0.91
-0.31
-1.19
-1.97
-2.93
-4.20
-5.72
-7.25
-8.56
-9.58
-10.39
-11.17
-12.00
-12.87
-13.74
-14.58
-15.51
-16.65
-18.04
-19.42
-20.27
-19.97
-18.12
-14.77
-10.40
-5.75
-1.53
1.92
4.60
6.68
8.23
9.09
9.02
7.90
5.98
3.85
2.11
1.10
0.70
0.49
0.05
-0.69
-1.47
-1.80
-1.30
0.22
2.62
5.61
8.78
11.68
13.83
14.82
14.40
12.64
9.87
6.62
3.42
0.65
-1.45
-2.86
-3.68
-4.09
-4.30
-4.50
-4.77
-5.02
-5.10
-4.86
-4.31
-3.58
-2.87
-2.30
-1.87
-1.50
-1.10
-0.76
-0.70
-1.12
-2.12
-3.61
-5.38
-7.17
-8.80
-10.14
-11.02
-11.17
-10.25
-7.98
-4.33
0.35
5.42
10.12
13.76
15.93
16.47
15.44
13.05
9.55
5.27
0.63
-3.84
-7.54
-9.91
-10.55
-9.43
-6.85
-3.41
0.15
3.22
5.45
6.70
7.01
6.36
4.69
1.90
-1.96
-6.52
-11.11
-14.84
-16.87
-16.66
-14.18
-10.02
-5.21
-1.02
1.46
1.73
-0.04
-3.13
-6.61
-9.79
-12.36
-14.42
-16.20
-17.80
-19.11
-19.86
-19.91
-19.31
-18.38
-17.59
-17.28
-17.67
-18.83
-20.66
-22.98
-25.39
-27.33
-28.14
-27.24
-24.34
-19.50
-13.19
-6.09
0.97
7.18
11.84
14.47
14.92
13.43
10.57
7.07
3.59
0.64
-1.47
-2.47
-2.19
-0.52
2.44
6.38
10.78
15.17
19.23
22.87
26.11
28.84
30.77
31.45
30.58
28.08
24.28
19.78
15.24
11.25
8.16
6.09
4.96
4.51
4.42
4.37
4.09
3.46
2.49
1.25
-0.17
-1.69
-3.20
-4.47
-5.22
-5.31
-4.78
-3.92
-3.04
-2.29
-1.49
-0.25
1.81
4.74
8.25
11.76
14.71
16.71
17.65
17.66
16.96
15.82
14.38
12.69
10.70
8.32
5.58
2.69
0.07
-1.86
-2.79
-2.64
-1.52
0.37
2.79
5.46
7.99
9.91
10.77
10.34
8.69
6.22
3.40
0.62
-1.94
-4.27
-6.41
-8.38
-10.16
-11.70
-13.00
-14.00
-14.63
-14.85
-14.68
-14.28
-13.97
-14.04
-14.61
-15.61
-16.75
-17.69
-18.14
-17.92
-16.94
-15.19
-12.67
-9.47
-5.78
-1.91
1.73
4.83
7.18
8.76
9.67
10.08
10.12
9.97
9.72
9.47
9.21
8.81
8.07
6.86
5.22
3.47
1.99
1.15
1.08
1.66
2.59
3.59
4.48
5.16
5.59
5.65
5.16
3.97
2.08
-0.38
-3.11
-5.76
-8.02
-9.64
-10.47
-10.52
-9.98
-9.21
-8.63
-8.55
-9.04
-9.96
-11.01
-11.92
-12.61
-13.14
-13.66
-14.28
-14.97
-15.52
-15.62
-14.99
-13.45
-11.03
-7.87
-4.20
-0.18
4.09
8.57
13.10
17.38
20.89
23.14
23.82
23.04
21.22
18.92
16.57
14.31
12.06
9.76
7.53
5.67
4.59
4.50
5.35
6.82
8.52
10.13
11.49
12.53
13.16
13.21
12.53
11.04
8.75
5.88
2.63
-0.81
-4.33
-7.87
-11.33
-14.52
-17.19
-19.07
-19.98
-19.87
-18.89
-17.33
-15.63
-14.22
-13.50
-13.75
-15.02
-17.21
-20.01
-23.02
-25.85
-28.13
-29.59
-29.99
-29.10
-26.81
-23.15
-18.39
-13.06
-7.82
-3.26
0.21
2.47
3.65
3.95
3.54
2.42
0.47
-2.42
-6.11
-10.19
-13.99
-16.79
-18.14
-17.86
-16.17
-13.41
-9.93
-6.01
-1.90
2.07
5.45
7.80
8.89
8.81
7.99
6.92
6.00
5.40
5.21
5.46
6.21
7.44
8.95
10.34
11.21
11.35
10.84
10.03
9.30
8.84
8.55
8.14
7.30
5.99
4.47
3.22
2.73
3.33
5.07
7.67
10.69
13.66
16.19
18.10
19.38
20.15
20.58
20.74
20.63
20.14
19.15
17.59
15.53
13.15
10.71
8.45
6.63
5.45
5.04
5.46
6.62
8.26
10.02
11.49
12.32
12.34
11.47
9.71
7.06
3.63
-0.34
-4.32
-7.71
-9.98
-10.97
-10.98
-10.56
-10.31
-10.61
-11.52
-12.89
-14.51
-16.28
-18.17
-20.13
-21.94
-23.22
-23.53
-22.52
-20.07
-16.34
-11.71
-6.68
-1.68
2.97
7.12
10.69
13.59
15.72
16.91
17.09
16.28
14.66
12.50
10.09
7.69
5.57
4.02
3.32
3.63
4.92
6.87
9.01
10.85
12.06
12.56
12.41
11.72
10.54
8.83
6.59
3.90
1.01
-1.70
-3.84
-5.16
-5.73
-5.88
-6.03
-6.50
-7.25
-7.91
-8.12
-7.81
-7.38
-7.53
-8.89
-11.59
-15.14
-18.68
-21.37
-22.78
-22.92
-22.05
-20.36
-17.89
-14.59
-10.47
-5.78
-0.86
3.94
8.36
12.24
15.40
17.60
18.57
18.10
16.13
12.84
8.62
4.00
-0.35
-3.76
-5.61
-5.50
-3.45
0.12
4.52
8.99
12.91
15.87
17.60
17.98
16.98
14.75
11.61
8.08
4.74
2.03
0.19
-0.84
-1.27
-1.39
-1.44
-1.57
-1.85
-2.33
-3.00
-3.85
-4.82
-5.86
-6.99
-8.34
-10.07
-12.33
-15.05
-17.93
-20.46
-22.07
-22.34
-21.13
-18.61
-15.19
-11.36
-7.57
-4.08
-0.93
2.02
5.06
8.43
12.26
16.47
20.77
24.81
28.30
31.02
32.79
33.37
32.39
29.55
24.82
18.62
11.85
5.62
0.91
-1.80
-2.58
-1.99
-0.77
0.41
1.12
1.20
0.67
-0.32
-1.55
-2.74
-3.67
-4.17
-4.28
-4.15
-3.96
-3.78
-3.59
-3.29
-2.89
-2.65
-2.90
-3.86
-5.47
-7.31
-8.86
-9.76
-10.07
-10.22
-10.73
-11.98
-14.01
-16.53
-19.18
-21.61
-23.54
-24.66
-24.62
-23.04
-19.69
-14.71
-8.65
-2.38
3.20
7.42
10.08
11.43
11.94
12.01
11.75
11.04
9.74
7.92
6.04
4.87
5.11
7.12
10.78
15.54
20.68
25.42
29.08
31.11
31.15
29.17
25.50
20.79
15.76
10.97
6.71
3.00
-0.20
-2.88
-4.97
-6.40
-7.30
-7.96
-8.76
-9.96
-11.61
-13.57
-15.64
-17.64
-19.35
-20.56
-21.07
-20.84
-20.03
-18.96
-17.97
-17.19
-16.46
-15.41
-13.68
-11.09
-7.66
-3.58
0.95
5.71
10.43
14.83
18.57
21.34
22.94
23.25
22.28
20.10
16.96
13.28
9.73
7.04
5.83
6.29
8.20
10.93
13.78
16.10
17.59
18.22
18.23
17.92
17.48
16.88
15.87
14.19
11.69
8.46
4.78
1.01
-2.51
-5.52
-7.90
-9.60
-10.62
-11.06
-11.08
-10.97
-11.06
-11.62
-12.80
-14.55
-16.75
-19.21
-21.72
-24.12
-26.34
-28.36
-30.19
-31.84
-33.19
-34.05
-34.06
-32.79
-29.82
-24.94
-18.26
-10.26
-1.71
6.53
13.77
19.57
23.80
26.52
27.84
27.87
26.74
24.64
21.88
18.85
15.95
13.52
11.77
10.84
10.87
11.94
14.04
16.94
20.17
23.09
25.08
25.85
25.47
24.33
22.87
21.41
19.99
18.46
16.69
14.65
12.43
10.13
7.78
5.29
2.62
-0.13
-2.63
-4.51
-5.60
-6.04
-6.27
-6.76
-7.78
-9.30
-11.07
-12.83
-14.43
-15.93
-17.46
-19.13
-21.01
-23.04
-25.13
-27.16
-28.99
-30.48
-31.53
-32.03
-31.94
-31.17
-29.55
-26.76
-22.53
-16.77
-9.71
-1.95
5.81
12.92
18.97
23.84
27.56
30.14
31.51
31.53
30.16
27.57
24.22
20.73
17.70
15.51
14.17
13.49
13.20
13.18
13.45
14.16
15.38
16.99
18.65
19.90
20.36
19.80
18.19
15.62
12.20
8.09
3.63
-0.60
-3.86
-5.46
-5.12
-3.11
-0.25
2.41
3.97
3.91
2.20
-0.82
-4.59
-8.54
-12.16
-15.05
-17.02
-18.02
-18.20
-17.86
-17.34
-16.93
-16.86
-17.28
-18.21
-19.61
-21.33
-23.24
-25.30
-27.58
-30.13
-32.82
-35.20
-36.50
-35.88
-32.77
-27.13
-19.49
-10.74
-1.89
6.22
13.03
18.18
21.45
22.68
21.88
19.31
15.47
11.05
6.75
3.15
0.68
-0.49
-0.33
1.01
3.27
6.13
9.18
12.04
14.42
16.19
17.35
18.03
18.35
18.29
17.76
16.57
14.67
12.20
9.57
7.29
5.74
4.99
4.75
4.59
4.16
3.33
2.21
1.00
-0.24
-1.56
-3.16
-5.14
-7.45
-9.85
-12.02
-13.70
-14.78
-15.35
-15.65
-15.95
-16.57
-17.68
-19.26
-21.04
-22.58
-23.32
-22.74
-20.47
-16.36
-10.57
-3.53
4.05
11.30
17.44
21.89
24.50
25.55
25.56
25.07
24.36
23.37
21.87
19.63
16.69
13.36
10.22
7.87
6.76
7.05
8.51
10.67
12.88
14.59
15.40
15.19
14.02
12.02
9.37
6.27
2.99
-0.09
-2.57
-4.17
-4.84
-4.88
-4.80
-5.06
-5.91
-7.32
-9.08
-10.96
-12.84
-14.69
-16.55
-18.39
-20.18
-21.95
-23.76
-25.75
-27.96
-30.33
-32.58
-34.33
-35.20
-34.90
-33.31
-30.43
-26.32
-21.05
-14.77
-7.74
-0.37
6.79
13.14
18.18
21.65
23.55
24.15
23.83
22.87
21.34
19.19
16.39
13.11
9.89
7.37
6.18
6.62
8.58
11.65
15.23
18.72
21.63
23.61
24.46
24.22
23.14
21.57
19.83
18.04
16.09
13.82
11.21
8.48
5.96
3.88
2.20
0.65
-1.07
-3.05
-5.06
-6.73
-7.79
-8.27
-8.64
-9.51
-11.42
-14.46
-18.30
-22.28
-25.80
-28.52
-30.46
-31.93
-33.26
-34.56
-35.64
-36.06
-35.38
-33.30
-29.78
-24.95
-19.06
-12.37
-5.18
2.15
9.20
15.56
20.93
25.18
28.32
30.34
31.14
30.53
28.37
24.76
20.24
15.61
11.74
9.30
8.58
9.54
11.90
15.25
19.06
22.69
25.42
26.59
25.94
23.66
20.37
16.87
13.79
11.41
9.62
8.11
6.59
4.90
2.99
0.92
-1.24
-3.39
-5.38
-6.96
-7.87
-7.93
-7.23
-6.23
-5.62
-6.10
-8.15
-11.76
-16.51
-21.70
-26.59
-30.68
-33.70
-35.70
-36.93
-37.78
-38.56
-39.38
-39.96
-39.72
-38.00
-34.37
-28.86
-21.93
-14.29
-6.64
0.50
6.77
11.79
15.18
16.59
15.90
13.38
9.57
5.15
0.73
-3.22
-6.35
-8.36
-9.02
-8.19
-5.93
-2.49
1.72
6.25
10.73
14.84
18.33
20.97
22.49
22.74
21.76
19.89
17.62
15.48
13.77
12.52
11.49
10.37
8.98
7.35
5.73
4.40
3.51
3.00
2.64
2.15
1.23
-0.26
-2.34
-4.89
-7.69
-10.45
-12.93
-14.97
-16.52
-17.57
-18.17
-18.29
-17.92
-16.98
-15.36
-12.92
-9.53
-5.11
0.24
6.20
12.20
17.52
21.48
23.66
24.06
23.00
20.99
18.48
15.66
12.57
9.24
5.93
3.16
1.65
1.93
4.15
7.93
12.49
16.96
20.64
23.21
24.58
24.82
23.98
22.12
19.37
16.04
12.56
9.39
6.84
5.00
3.71
2.70
1.70
0.59
-0.66
-2.01
-3.38
-4.76
-6.15
-7.57
-9.04
-10.60
-12.35
-14.45
-16.98
-19.93
-23.17
-26.49
-29.65
-32.42
-34.57
-35.83
-35.94
-34.73
-32.23
-28.58
-24.02
-18.63
-12.39
-5.26
2.56
10.43
17.41
22.50
25.02
24.91
22.71
19.31
15.57
12.12
9.23
6.99
5.38
4.46
4.30
4.99
6.50
8.65
10.97
12.94
14.03
13.96
12.81
10.99
9.05
7.44
6.39
5.84
5.54
5.21
4.64
3.72
2.41
0.73
-1.22
-3.21
-4.91
-5.98
-6.21
-5.71
-4.80
-3.95
-3.58
-3.95
-5.12
-7.02
-9.46
-12.17
-14.85
-17.15
-18.85
-19.89
-20.46
-20.89
-21.49
-22.34
-23.19
-23.48
-22.52
-19.77
-15.07
-8.79
-1.65
5.37
11.36
15.71
18.15
18.81
18.05
16.38
14.30
12.18
10.26
8.63
7.35
6.41
5.84
5.64
5.73
6.05
6.56
7.35
8.55
10.26
12.34
14.40
15.96
16.62
16.22
14.82
12.64
9.88
6.78
3.54
0.43
-2.35
-4.67
-6.56
-8.22
-9.85
-11.49
-12.93
-13.81
-13.74
-12.60
-10.61
-8.37
-6.66
-6.21
-7.45
-10.40
-14.68
-19.69
-24.78
-29.38
-32.98
-35.16
-35.64
-34.37
-31.64
-28.05
-24.27
-20.79
-17.72
-14.83
-11.77
-8.25
-4.22
0.19
4.81
9.44
13.95
18.21
22.04
25.27
27.72
29.23
29.60
28.66
26.31
22.70
18.31
14.01
10.73
9.21
9.73
11.99
15.25
18.67
21.48
23.21
23.66
22.88
21.07
18.54
15.67
12.83
10.29
8.20
6.54
5.20
3.96
2.61
1.00
-0.96
-3.17
-5.43
-7.49
-9.16
-10.38
-11.29
-12.07
-12.86
-13.63
-14.27
-14.74
-15.15
-15.80
-17.00
-18.88
-21.32
-23.98
-26.42
-28.20
-28.94
-28.35
-26.18
-22.31
-16.87
-10.24
-3.04
4.01
10.25
15.22
18.73
20.81
21.63
21.46
20.55
19.08
17.10
14.63
11.71
8.54
5.50
3.05
1.62
1.47
2.62
4.87
7.85
11.10
14.11
16.49
17.96
18.50
18.35
17.88
17.43
17.16
16.95
16.51
15.53
13.88
11.66
9.15
6.64
4.33
2.33
0.64
-0.76
-1.90
-2.78
-3.46
-4.05
-4.72
-5.70
-7.21
-9.36
-12.11
-15.23
-18.39
-21.31
-23.81
-25.92
-27.76
-29.47
-31.15
-32.80
-34.37
-35.71
-36.51
-36.25
-34.26
-30.03
-23.52
-15.30
-6.43
1.86
8.59
13.28
15.92
16.90
16.64
15.60
14.19
12.76
11.63
10.95
10.72
10.83
11.16
11.71
12.59
13.90
15.74
18.03
20.56
23.00
24.97
26.10
26.17
25.16
23.26
20.81
18.17
15.64
13.46
11.81
10.90
10.82
11.50
12.54
13.35
13.34
12.17
9.89
6.88
3.63
0.58
-2.02
-4.09
-5.61
-6.60
-7.14
-7.40
-7.68
-8.34
-9.67
-11.73
-14.35
-17.16
-19.86
-22.25
-24.41
-26.56
-28.89
-31.43
-33.92
-35.91
-36.86
-36.29
-33.93
-29.77
-24.06
-17.35
-10.30
-3.61
2.16
6.64
9.69
11.36
11.70
10.85
8.96
6.28
3.19
0.06
-2.70
-4.76
-5.82
-5.55
-3.64
-0.01
5.03
10.76
16.20
20.36
22.59
22.64
20.73
17.34
13.07
8.51
4.15
0.33
-2.76
-5.02
-6.40
-6.91
-6.63
-5.75
-4.60
-3.56
-2.93
-2.87
-3.33
-4.18
-5.33
-6.76
-8.49
-10.45
-12.39
-13.97
-14.88
-14.99
-14.45
-13.53
-12.52
-11.59
-10.91
-10.68
-11.21
-12.79
-15.38
-18.44
-20.89
-21.44
-19.12
-13.69
-5.83
3.15
11.85
19.17
24.52
27.75
28.95
28.39
26.57
24.20
22.08
20.77
20.30
20.21
19.85
18.76
16.97
14.95
13.30
12.37
12.10
12.20
12.38
12.61
13.04
13.86
14.99
16.05
16.47
15.76
13.76
10.71
7.22
3.92
1.23
-0.72
-2.12
-3.24
-4.33
-5.51
-6.80
-8.19
-9.61
-10.94
-12.01
-12.61
-12.67
-12.32
-11.87
-11.77
-12.33
-13.70
-15.80
-18.38
-21.14
-23.66
-25.42
-25.85
-24.51
-21.21
-16.17
-9.94
-3.27
3.17
8.85
13.47
16.81
18.74
19.23
18.42
16.58
14.11
11.34
8.47
5.59
2.81
0.39
-1.23
-1.60
-0.51
1.92
5.16
8.51
11.36
13.35
14.39
14.56
13.91
12.47
10.31
7.65
4.98
2.85
1.72
1.72
2.55
3.64
4.33
4.13
2.78
0.35
-2.91
-6.66
-10.51
-14.06
-16.98
-18.98
-19.96
-20.02
-19.43
-18.54
-17.73
-17.23
-17.17
-17.53
-18.21
-18.97
-19.52
-19.49
-18.49
-16.20
-12.45
-7.30
-1.11
5.46
11.70
16.93
20.68
22.79
23.34
22.61
20.92
18.58
15.88
13.06
10.37
7.98
6.03
4.60
3.78
3.73
4.60
6.43
9.05
12.05
14.84
16.87
17.79
17.52
16.19
14.06
11.43
8.59
5.83
3.36
1.26
-0.57
-2.35
-4.26
-6.32
-8.35
-10.03
-11.16
-11.77
-12.19
-12.90
-14.22
-16.17
-18.34
-20.18
-21.28
-21.61
-21.55
-21.66
-22.40
-23.86
-25.80
-27.74
-29.23
-29.99
-29.80
-28.53
-25.99
-22.05
-16.77
-10.54
-4.07
1.80
6.28
8.90
9.57
8.61
6.56
3.98
1.29
-1.22
-3.36
-4.88
-5.40
-4.50
-1.92
2.22
7.31
12.42
16.64
19.35
20.49
20.40
19.64
18.67
17.68
16.63
15.36
13.81
11.95
9.91
7.80
5.68
3.57
1.39
-0.90
-3.27
-5.62
-7.76
-9.51
-10.79
-11.67
-12.34
-12.98
-13.69
-14.53
-15.44
-16.36
-17.14
-17.50
-16.97
-15.09
-11.56
-6.53
-0.58
5.42
10.70
14.83
17.80
19.78
20.92
21.17
20.41
18.64
16.13
13.43
11.11
9.60
9.00
9.24
10.11
11.48
13.25
15.27
17.33
19.17
20.53
21.17
21.01
20.07
18.50
16.46
14.14
11.68
9.17
6.61
3.98
1.32
-1.22
-3.51
-5.37
-6.83
-8.03
-9.26
-10.72
-12.52
-14.60
-16.82
-19.07
-21.25
-23.32
-25.27
-27.04
-28.51
-29.49
-29.70
-28.84
-26.68
-23.16
-18.46
-12.94
-7.07
-1.25
4.22
9.13
13.31
16.51
18.44
18.88
17.78
15.47
12.46
9.46
7.06
5.59
5.04
5.14
5.59
6.25
7.22
8.66
10.63
12.89
14.97
16.33
16.69
16.09
14.82
13.24
11.52
9.64
7.46
4.94
2.18
-0.58
-3.10
-5.22
-6.87
-8.05
-8.78
-9.19
-9.44
-9.81
-10.51
-11.66
-13.16
-14.78
-16.29
-17.53
-18.49
-19.29
-20.05
-20.83
-21.63
-22.39
-22.96
-23.22
-22.93
-21.88
-19.86
-16.76
-12.60
-7.60
-2.12
3.41
8.56
12.97
16.36
18.51
19.29
18.66
16.82
14.17
11.29
8.76
6.97
6.03
5.87
6.40
7.64
9.68
12.54
15.93
19.24
21.75
22.89
22.55
21.01
18.81
16.43
14.18
12.12
10.21
8.40
6.61
4.80
2.90
0.86
-1.28
-3.30
-4.85
-5.56
-5.21
-3.88
-1.99
-0.22
0.67
0.07
-2.34
-6.46
-11.70
-17.21
-22.14
-25.95
-28.61
-30.46
-31.84
-32.80
-32.83
-31.18
-27.18
-20.75
-12.50
-3.56
4.86
11.91
17.19
20.63
22.28
22.20
20.48
17.43
13.61
9.71
6.40
4.12
3.05
3.11
4.13
5.85
8.07
10.55
13.08
15.49
17.63
19.41
20.72
21.47
21.44
20.46
18.39
15.29
11.45
7.30
3.29
-0.27
-3.31
-5.91
-8.23
-10.34
-12.20
-13.74
-14.96
-16.00
-17.07
-18.31
-19.66
-20.91
-21.79
-22.13
-21.88
-21.14
-19.98
-18.37
-16.21
-13.40
-9.91
-5.84
-1.42
3.09
7.36
11.13
14.09
16.02
16.79
16.49
15.38
13.83
12.24
10.90
10.01
9.68
9.97
10.91
12.42
14.39
16.57
18.65
20.28
21.17
21.07
19.81
17.34
13.73
9.27
4.39
-0.36
-4.49
-7.72
-9.99
-11.47
-12.40
-12.97
-13.32
-13.53
-13.73
-14.16
-15.10
-16.69
-18.87
-21.26
-23.35
-24.64
-24.82
-23.80
-21.70
-18.71
-15.11
-11.22
-7.40
-4.04
-1.46
0.18
0.96
1.09
0.75
-0.02
-1.32
-3.26
-5.79
-8.62
-11.23
-13.02
-13.48
-12.32
-9.63
-5.79
-1.48
2.47
5.36
6.76
6.67
5.55
4.16
3.23
3.23
4.22
5.84
7.53
8.75
9.16
8.67
7.45
5.77
3.99
2.39
1.18
0.44
0.21
0.41
0.79
1.02
0.67
-0.54
-2.56
-4.89
-6.69
-7.10
-5.63
-2.44
1.67
5.54
8.15
8.98
8.17
6.38
4.38
2.71
1.48
0.43
-0.88
-2.72
-5.10
-7.82
-10.56
-12.99
-14.79
-15.49
-14.47
-11.03
-4.79
3.93
13.93
23.33
30.16
33.06
31.83
27.34
21.17
14.87
9.48
5.30
2.09
-0.56
-2.96
-5.26
-7.50
-9.79
-12.29
-15.13
-18.25
-21.34
-23.91
-25.49
-25.79
-24.69
-22.25
-18.64
-14.11
-9.00
-3.83
0.81
4.40
6.58
7.27
6.67
5.22
3.49
2.12
1.61
2.20
3.75
5.79
7.75
9.23
10.11
10.62
11.06
11.65
12.43
13.30
14.07
14.68
15.01
14.95
14.35
13.07
11.08
8.49
5.51
2.36
-0.72
-3.52
-5.84
-7.52
-8.56
-9.14
-9.60
-10.20
-11.00
-11.71
-11.81
-10.80
-8.44
-4.92
-0.76
3.41
7.06
9.95
12.14
13.78
14.98
15.74
15.93
15.50
14.53
13.28
12.04
11.03
10.27
9.61
8.85
7.88
6.71
5.54
4.55
3.97
3.92
4.45
5.44
6.58
7.42
7.50
6.50
4.37
1.31
-2.36
-6.28
-10.14
-13.66
-16.49
-18.28
-18.86
-18.37
-17.28
-16.26
-15.89
-16.32
-17.28
-18.12
-18.17
-17.00
-14.54
-11.04
-6.87
-2.47
1.81
5.66
8.80
10.99
12.15
12.40
12.05
11.51
11.08
10.86
10.67
10.17
9.08
7.42
5.59
4.19
3.87
4.95
7.42
10.82
14.54
17.88
20.21
21.07
20.22
17.70
13.87
9.41
5.08
1.53
-0.93
-2.40
-3.32
-4.17
-5.25
-6.56
-7.92
-9.12
-10.10
-10.92
-11.76
-12.72
-13.77
-14.74
-15.48
-15.92
-16.08
-16.11
-16.14
-16.28
-16.55
-16.88
-17.05
-16.74
-15.60
-13.29
-9.70
-4.96
0.51
6.16
11.45
15.97
19.48
21.84
23.00
22.93
21.77
19.76
17.28
14.73
12.40
10.41
8.82
7.64
6.98
6.99
7.79
9.30
11.19
12.91
13.84
13.49
11.68
8.54
4.53
0.33
-3.44
-6.32
-8.18
-9.23
-9.93
-10.75
-12.01
-13.77
-15.84
-17.90
-19.54
-20.52
-20.69
-20.20
-19.35
-18.48
-17.84
-17.51
-17.37
-17.26
-17.05
-16.68
-16.20
-15.73
-15.46
-15.59
-16.31
-17.66
-19.38
-20.90
-21.46
-20.37
-17.28
-12.37
-6.28
0.10
5.76
9.87
11.82
11.45
9.03
5.31
1.25
-2.33
-5.02
-6.90
-8.32
-9.56
-10.52
-10.80
-9.90
-7.58
-4.09
-0.04
3.78
6.77
8.68
9.62
9.89
9.77
9.36
8.60
7.35
5.63
3.67
1.90
0.71
0.32
0.56
1.01
1.21
0.98
0.50
0.16
0.37
1.24
2.56
3.89
4.81
5.13
4.93
4.45
3.89
3.27
2.53
1.69
0.91
0.59
1.12
2.77
5.52
9.07
12.92
16.57
19.57
21.66
22.67
22.61
21.59
19.84
17.64
15.25
12.89
10.67
8.70
7.06
5.90
5.32
5.40
6.11
7.34
8.90
10.54
12.01
13.13
13.73
13.74
13.08
11.71
9.60
6.87
3.75
0.59
-2.23
-4.49
-6.14
-7.29
-8.09
-8.64
-8.91
-8.93
-8.83
-8.91
-9.50
-10.77
-12.59
-14.53
-16.06
-16.82
-16.78
-16.24
-15.61
-15.21
-15.04
-14.83
-14.14
-12.58
-10.00
-6.49
-2.36
1.99
6.17
9.87
12.89
15.14
16.61
17.28
17.19
16.33
14.70
12.36
9.44
6.12
2.67
-0.60
-3.34
-5.21
-5.89
-5.20
-3.10
0.25
4.41
8.80
12.69
15.41
16.46
15.68
13.24
9.66
5.71
2.09
-0.67
-2.41
-3.35
-3.90
-4.44
-5.18
-6.06
-6.86
-7.37
-7.54
-7.52
-7.59
-7.97
-8.67
-9.46
-10.04
-10.17
-9.91
-9.54
-9.39
-9.66
-10.35
-11.23
-12.02
-12.49
-12.50
-11.95
-10.65
-8.38
-4.96
-0.39
5.05
10.83
16.25
20.64
23.46
24.44
23.63
21.38
18.25
14.81
11.47
8.37
5.51
2.87
0.57
-1.05
-1.63
-0.99
0.65
2.78
4.79
6.27
7.07
7.28
7.00
6.21
4.77
2.63
-0.08
-2.99
-5.63
-7.75
-9.37
-10.73
-12.14
-13.65
-15.07
-16.03
-16.27
-15.86
-15.18
-14.77
-14.98
-15.79
-16.80
-17.47
-17.48
-16.86
-15.99
-15.28
-15.06
-15.38
-16.12
-17.08
-18.06
-18.82
-18.98
-18.06
-15.68
-11.78
-6.80
-1.63
2.76
5.62
6.69
6.14
4.37
1.80
-1.26
-4.66
-8.28
-12.05
-15.78
-19.24
-22.10
-24.01
-24.61
-23.65
-21.11
-17.25
-12.53
-7.55
-2.81
1.36
4.78
7.39
9.14
9.99
9.98
9.30
8.23
7.12
6.25
5.71
5.44
5.22
4.90
4.48
4.13
4.15
4.77
6.04
7.73
9.43
10.62
10.96
10.31
8.88
7.08
5.41
4.32
4.09
4.81
6.44
8.81
11.70
14.80
17.76
20.16
21.56
21.64
20.32
17.85
14.71
11.46
8.57
6.26
4.49
3.18
2.29
1.94
2.31
3.49
5.31
7.38
9.22
10.45
10.96
10.90
10.51
10.01
9.40
8.54
7.30
5.63
3.77
2.07
0.85
0.15
-0.27
-0.87
-2.02
-3.80
-5.97
-8.10
-9.83
-11.03
-11.84
-12.47
-13.06
-13.57
-13.73
-13.23
-11.83
-9.50
-6.41
-2.93
0.51
3.52
5.84
7.38
8.22
8.55
8.58
8.49
8.40
8.32
8.18
7.81
7.03
5.67
3.70
1.29
-1.18
-3.28
-4.57
-4.72
-3.61
-1.33
1.73
4.98
7.74
9.42
9.66
8.49
6.21
3.32
0.31
-2.38
-4.50
-5.90
-6.58
-6.69
-6.48
-6.30
-6.39
-6.89
-7.72
-8.72
-9.73
-10.65
-11.49
-12.31
-13.13
-13.92
-14.63
-15.22
-15.61
-15.68
-15.22
-14.03
-12.01
-9.26
-6.10
-2.91
-0.01
2.51
4.71
6.67
8.42
9.76
10.49
10.48
9.82
8.73
7.48
6.19
4.89
3.59
2.45
1.77
1.96
3.29
5.77
9.06
12.60
15.83
18.32
19.83
20.28
19.70
18.21
16.01
13.41
10.75
8.37
6.47
5.12
4.21
3.53
2.83
1.89
0.57
-1.15
-3.13
-5.18
-7.11
-8.79
-10.22
-11.48
-12.63
-13.70
-14.68
-15.58
-16.50
-17.62
-19.07
-20.82
-22.59
-23.92
-24.29
-23.36
-21.12
-17.86
-14.04
-10.12
-6.34
-2.78
0.54
3.43
5.56
6.57
6.31
4.92
2.80
0.41
-1.96
-4.19
-6.29
-8.13
-9.37
-9.57
-8.37
-5.72
-1.98
2.18
6.01
8.80
10.02
9.41
7.05
3.36
-0.98
-5.19
-8.68
-11.12
-12.50
-13.06
-13.16
-13.19
-13.48
-14.25
-15.52
-17.09
-18.53
-19.44
-19.49
-18.63
-17.01
-14.93
-12.67
-10.43
-8.43
-6.87
-5.92
-5.67
-6.01
-6.64
-7.16
-7.23
-6.63
-5.30
-3.18
-0.25
3.53
8.13
13.25
18.37
22.88
26.24
28.18
28.78
28.37
27.36
26.07
24.61
23.01
21.28
19.51
17.96
16.95
16.72
17.33
18.67
20.48
22.39
24.07
25.26
25.78
25.56
24.55
22.78
20.33
17.36
14.13
10.92
8.02
5.61
3.75
2.34
1.18
0.10
-0.99
-2.08
-3.09
-4.02
-4.95
-6.07
-7.54
-9.46
-11.74
-14.14
-16.38
-18.23
-19.57
-20.46
-21.00
-21.24
-21.11
-20.45
-19.09
-16.94
-14.09
-10.75
-7.11
-3.25
0.88
5.27
9.74
13.79
16.79
18.20
17.87
16.10
13.56
10.97
8.86
7.48
6.76
6.54
6.71
7.21
8.11
9.40
11.05
12.86
14.56
15.82
16.35
15.99
14.72
12.66
10.01
7.05
4.02
1.24
-1.03
-2.56
-3.23
-3.12
-2.49
-1.75
-1.33
-1.50
-2.37
-3.84
-5.67
-7.61
-9.41
-10.91
-12.03
-12.81
-13.35
-13.80
-14.31
-15.04
-16.08
-17.47
-19.14
-20.96
-22.78
-24.47
-25.90
-26.99
-27.61
-27.58
-26.64
-24.56
-21.19
-16.57
-11.01
-4.96
1.11
6.83
11.96
16.32
19.67
21.71
22.23
21.20
18.91
15.95
12.90
10.26
8.22
6.83
6.09
6.14
7.19
9.35
12.49
16.14
19.66
22.45
24.14
24.68
24.28
23.29
22.04
20.81
19.71
18.70
17.64
16.28
14.48
12.33
10.17
8.44
7.52
7.44
7.92
8.42
8.42
7.65
6.15
4.22
2.20
0.32
-1.38
-3.03
-4.80
-6.76
-8.81
-10.73
-12.34
-13.63
-14.85
-16.38
-18.49
-21.10
-23.89
-26.38
-28.24
-29.48
-30.34
-30.98
-31.25
-30.69
-28.75
-25.19
-20.25
-14.61
-9.08
-4.29
-0.61
1.84
3.08
3.21
2.43
1.05
-0.58
-2.22
-3.81
-5.41
-7.06
-8.61
-9.70
-9.90
-8.97
-6.94
-4.10
-0.87
2.30
4.99
6.78
7.33
6.45
4.23
1.07
-2.46
-5.80
-8.65
-10.90
-12.63
-13.90
-14.66
-14.78
-14.13
-12.76
-10.87
-8.78
-6.74
-4.84
-3.01
-1.12
0.77
2.36
3.24
3.05
1.79
-0.09
-1.84
-2.85
-2.86
-2.18
-1.43
-1.23
-1.96
-3.57
-5.69
-7.80
-9.35
-9.85
-8.95
-6.47
-2.39
3.09
9.53
16.39
22.99
28.60
32.57
34.42
34.06
31.85
28.47
24.70
21.18
18.19
15.75
13.82
12.46
11.87
12.26
13.66
15.77
18.06
19.98
21.19
21.67
21.61
21.22
20.50
19.25
17.19
14.27
10.76
7.20
4.17
1.98
0.53
-0.57
-1.68
-2.99
-4.36
-5.59
-6.56
-7.35
-8.16
-9.20
-10.47
-11.92
-13.49
-15.16
-16.93
-18.68
-20.09
-20.75
-20.46
-19.32
-17.77
-16.26
-15.00
-13.82
-12.28
-9.99
-6.82
-2.95
1.28
5.50
9.46
13.00
15.97
18.21
19.57
19.98
19.49
18.19
16.14
13.48
10.40
7.29
4.68
3.10
2.83
3.83
5.69
7.85
9.76
11.04
11.57
11.39
10.64
9.52
8.21
6.83
5.42
4.02
2.59
1.10
-0.42
-1.94
-3.40
-4.71
-5.81
-6.68
-7.36
-8.04
-8.94
-10.25
-12.03
-14.14
-16.32
-18.24
-19.72
-20.71
-21.29
-21.62
-21.87
-22.11
-22.36
-22.48
-22.21
-21.23
-19.21
-15.93
-11.36
-5.69
0.72
7.34
13.60
18.89
22.68
24.67
24.86
23.63
21.59
19.34
17.28
15.55
14.05
12.66
11.43
10.57
10.38
11.04
12.51
14.45
16.38
17.80
18.40
18.04
16.82
14.90
12.50
9.77
6.81
3.69
0.41
-2.97
-6.36
-9.53
-12.19
-14.00
-14.82
-14.74
-14.16
-13.65
-13.83
-15.12
-17.65
-21.23
-25.38
-29.43
-32.73
-34.72
-35.10
-33.97
-31.84
-29.52
-27.92
-27.74
-29.20
-31.88
-34.84
-36.83
-36.76
-34.05
-28.79
-21.71
-13.87
-6.31
0.14
5.06
8.30
9.99
10.33
9.59
8.02
5.87
3.36
0.79
-1.46
-2.95
-3.24
-2.06
0.58
4.34
8.65
12.83
16.30
18.72
19.94
20.07
19.36
18.16
16.83
15.63
14.66
13.86
13.02
11.92
10.42
8.52
6.46
4.56
3.17
2.52
2.63
3.29
4.16
4.81
4.81
3.83
1.66
-1.65
-5.79
-10.17
-14.08
-16.80
-17.84
-16.97
-14.32
-10.25
-5.31
-0.06
5.01
9.54
13.37
16.44
18.78
20.34
21.10
21.07
20.33
19.10
17.60
16.00
14.35
12.67
11.04
9.66
8.74
8.48
8.86
9.68
10.58
11.20
11.33
10.90
10.06
9.07
8.20
7.75
7.88
8.62
9.90
11.53
13.30
15.00
16.40
17.26
17.40
16.73
15.31
13.34
11.07
8.68
6.31
3.98
1.71
-0.42
-2.29
-3.74
-4.66
-5.10
-5.26
-5.41
-5.80
-6.59
-7.78
-9.37
-11.35
-13.74
-16.58
-19.79
-23.13
-26.23
-28.70
-30.28
-30.85
-30.37
-28.83
-26.17
-22.37
-17.51
-11.86
-5.79
0.26
5.90
10.83
14.81
17.68
19.36
19.89
19.48
18.46
17.17
15.81
14.44
12.99
11.41
9.78
8.36
7.55
7.70
8.94
11.02
13.43
15.49
16.70
16.84
16.02
14.58
12.82
10.94
9.02
7.11
5.30
3.77
2.63
1.90
1.48
1.23
1.10
1.12
1.40
1.95
2.59
2.95
2.67
1.52
-0.48
-3.04
-5.74
-8.18
-10.06
-11.34
-12.16
-12.80
-13.52
-14.49
-15.74
-17.18
-18.66
-20.00
-21.04
-21.60
-21.47
-20.45
-18.36
-15.11
-10.78
-5.65
-0.19
5.07
9.60
12.98
14.99
15.61
15.05
13.66
11.82
9.84
7.79
5.59
3.07
0.15
-3.02
-6.00
-8.20
-9.09
-8.39
-6.11
-2.58
1.69
6.06
9.84
12.40
13.31
12.52
10.41
7.64
4.90
2.62
0.83
-0.74
-2.44
-4.45
-6.74
-9.06
-11.15
-12.70
-13.40
-12.81
-10.48
-6.23
-0.44
5.92
11.48
14.94
15.56
13.36
8.94
3.15
-3.37
-10.15
-16.89
-23.15
-28.38
-32.04
-33.93
-34.40
-34.19
-34.16
-34.80
-36.03
-37.12
-37.06
-34.87
-30.01
-22.65
-13.54
-3.87
5.16
12.56
17.87
21.08
22.57
22.80
22.20
21.04
19.46
17.67
15.94
14.59
13.89
13.95
14.68
15.85
17.18
18.51
19.78
21.04
22.35
23.65
24.73
25.26
24.85
23.21
20.32
16.51
12.46
8.95
6.61
5.57
5.57
5.98
6.13
5.62
4.35
2.57
0.64
-1.09
-2.39
-3.19
-3.51
-3.45
-3.12
-2.64
-2.18
-2.00
-2.41
-3.65
-5.75
-8.49
-11.41
-14.04
-16.12
-17.63
-18.62
-19.04
-18.57
-16.80
-13.49
-8.86
-3.60
1.38
5.38
8.14
9.90
11.13
12.17
13.07
13.61
13.51
12.70
11.38
9.94
8.75
7.96
7.45
6.91
6.19
5.35
4.83
5.12
6.49
8.71
11.15
13.04
13.82
13.40
12.05
10.21
8.27
6.41
4.72
3.26
2.14
1.42
1.05
0.82
0.52
0.00
-0.67
-1.33
-1.83
-2.17
-2.48
-2.90
-3.57
-4.47
-5.57
-6.80
-8.17
-9.67
-11.33
-13.07
-14.75
-16.23
-17.40
-18.23
-18.82
-19.38
-20.13
-21.17
-22.37
-23.41
-23.76
-22.93
-20.58
-16.68
-11.50
-5.54
0.62
6.43
11.45
15.32
17.80
18.77
18.26
16.56
14.11
11.48
9.10
7.18
5.71
4.62
3.86
3.55
3.93
5.19
7.35
10.20
13.31
16.20
18.48
19.90
20.36
19.91
18.67
16.78
14.43
11.79
9.07
6.50
4.30
2.62
1.47
0.73
0.24
-0.13
-0.42
-0.54
-0.41
-0.15
-0.02
-0.41
-1.61
-3.68
-6.39
-9.36
-12.29
-15.06
-17.71
-20.38
-23.11
-25.76
-28.11
-29.93
-31.05
-31.50
-31.42
-31.05
-30.61
-30.19
-29.64
-28.61
-26.66
-23.43
-18.89
-13.37
-7.45
-1.73
3.34
7.54
10.75
12.86
13.68
13.09
11.23
8.54
5.74
3.54
2.39
2.39
3.33
4.89
6.64
8.17
8.92
8.29
5.78
1.36
-4.46
-10.65
-16.06
-19.86
-21.80
-22.17
-21.55
-20.45
-19.13
-17.66
-16.11
-14.68
-13.65
-13.27
-13.53
-14.19
-14.82
-15.08
-14.77
-13.96
-12.78
-11.39
-9.90
-8.35
-6.75
-5.10
-3.37
-1.54
0.38
2.25
3.82
4.83
5.16
5.03
4.98
5.65
7.50
10.48
14.08
17.51
20.09
21.55
22.10
22.20
22.23
22.33
22.28
21.77
20.55
18.67
16.43
14.21
12.31
10.89
9.97
9.50
9.49
9.94
10.85
12.07
13.37
14.46
15.05
14.97
14.14
12.57
10.38
7.78
5.06
2.55
0.56
-0.72
-1.27
-1.24
-0.89
-0.50
-0.28
-0.38
-0.82
-1.51
-2.28
-2.99
-3.61
-4.24
-5.18
-6.67
-8.73
-11.10
-13.23
-14.54
-14.62
-13.38
-10.99
-7.76
-3.97
0.14
4.37
8.44
11.99
14.68
16.32
16.94
16.79
16.19
15.36
14.37
13.21
11.86
10.35
8.76
7.10
5.32
3.37
1.33
-0.52
-1.71
-1.77
-0.51
1.75
4.28
6.13
6.58
5.35
2.68
-0.86
-4.64
-8.12
-10.93
-12.84
-13.78
-13.82
-13.16
-12.10
-10.93
-9.93
-9.23
-8.91
-8.96
-9.38
-10.06
-10.88
-11.62
-12.12
-12.32
-12.32
-12.32
-12.50
-12.94
-13.56
-14.10
-14.21
-13.50
-11.76
-8.98
-5.40
-1.41
2.58
6.32
9.71
12.72
15.22
16.99
17.69
17.08
15.22
12.45
9.35
6.54
4.47
3.38
3.22
3.84
4.98
6.43
8.09
9.88
11.71
13.37
14.59
15.09
14.76
13.70
12.23
10.68
9.27
8.01
6.85
5.72
4.68
3.87
3.41
3.25
3.18
2.90
2.23
1.15
-0.18
-1.53
-2.70
-3.61
-4.40
-5.32
-6.59
-8.29
-10.32
-12.41
-14.22
-15.61
-16.59
-17.35
-18.13
-19.10
-20.27
-21.52
-22.63
-23.32
-23.28
-22.22
-20.00
-16.72
-12.83
-8.96
-5.76
-3.62
-2.59
-2.40
-2.67
-3.17
-3.85
-4.83
-6.21
-7.92
-9.73
-11.24
-12.16
-12.34
-11.77
-10.54
-8.64
-6.09
-2.98
0.43
3.67
6.18
7.56
7.79
7.15
6.13
5.10
4.17
3.25
2.20
0.97
-0.40
-1.91
-3.75
-6.16
-9.28
-12.82
-16.11
-18.28
-18.68
-17.16
-14.14
-10.46
-6.93
-4.09
-2.07
-0.77
-0.02
0.25
-0.04
-0.99
-2.62
-4.66
-6.58
-7.64
-7.14
-4.68
-0.46
4.79
10.00
14.12
16.55
17.16
16.31
14.56
12.46
10.49
9.00
8.34
8.84
10.70
13.86
17.79
21.64
24.39
25.24
23.91
20.77
16.67
12.69
9.77
8.40
8.66
10.31
13.07
16.64
20.73
24.96
28.67
31.11
31.59
29.78
25.84
20.42
14.42
8.69
3.81
-0.05
-2.92
-4.97
-6.30
-6.85
-6.51
-5.18
-3.01
-0.37
2.10
3.82
4.35
3.62
1.81
-0.71
-3.58
-6.57
-9.55
-12.36
-14.79
-16.46
-16.97
-16.01
-13.53
-9.81
-5.39
-0.90
3.10
6.28
8.51
9.91
10.65
10.88
10.64
9.88
8.57
6.80
4.88
3.18
2.08
1.71
1.90
2.34
2.70
2.91
3.15
3.80
5.16
7.24
9.62
11.64
12.63
12.22
10.51
7.97
5.20
2.67
0.60
-1.04
-2.40
-3.54
-4.38
-4.73
-4.50
-3.83
-3.15
-2.94
-3.54
-5.00
-7.06
-9.26
-11.21
-12.69
-13.72
-14.51
-15.34
-16.50
-18.27
-20.78
-23.92
-27.17
-29.66
-30.41
-28.75
-24.67
-18.96
-12.84
-7.52
-3.71
-1.47
-0.35
0.25
0.77
1.46
2.38
3.60
5.21
7.26
9.61
11.95
13.81
14.75
14.57
13.29
11.19
8.71
6.37
4.68
4.05
4.74
6.75
9.79
13.32
16.61
18.95
19.80
19.01
16.82
13.81
10.63
7.84
5.73
4.32
3.47
2.95
2.59
2.28
1.94
1.46
0.69
-0.51
-2.11
-3.92
-5.58
-6.75
-7.27
-7.35
-7.45
-8.10
-9.64
-11.94
-14.47
-16.55
-17.68
-17.83
-17.39
-16.95
-17.03
-17.90
-19.55
-21.83
-24.48
-27.23
-29.68
-31.33
-31.68
-30.36
-27.29
-22.68
-17.01
-10.85
-4.79
0.61
4.91
7.81
9.25
9.48
8.91
8.00
7.12
6.46
6.13
6.18
6.67
7.58
8.81
10.12
11.28
12.08
12.41
12.21
11.38
9.76
7.16
3.57
-0.78
-5.40
-9.68
-13.15
-15.60
-17.06
-17.67
-17.50
-16.53
-14.78
-12.43
-9.85
-7.50
-5.67
-4.42
-3.54
-2.72
-1.76
-0.72
0.22
0.84
1.01
0.70
-0.04
-1.16
-2.63
-4.32
-6.11
-7.78
-9.11
-9.88
-9.87
-8.83
-6.59
-3.08
1.55
6.96
12.62
17.90
22.19
25.04
26.17
25.68
23.97
21.71
19.62
18.25
17.80
18.11
18.83
19.54
19.99
20.09
19.90
19.61
19.38
19.33
19.48
19.78
20.12
20.45
20.67
20.66
20.15
18.85
16.55
13.26
9.36
5.45
2.16
-0.20
-1.72
-2.84
-4.08
-5.70
-7.59
-9.38
-10.76
-11.59
-12.03
-12.37
-12.81
-13.43
-14.14
-14.84
-15.52
-16.26
-17.17
-18.24
-19.23
-19.75
-19.44
-18.06
-15.66
-12.56
-9.16
-5.84
-2.81
-0.13
2.21
4.19
5.78
6.90
7.47
7.46
6.85
5.67
4.03
2.13
0.24
-1.36
-2.45
-2.98
-3.04
-2.64
-1.69
-0.06
2.34
5.36
8.60
11.53
13.71
14.94
15.26
14.83
13.87
12.55
11.03
9.47
8.09
7.07
6.52
6.44
6.68
6.98
7.01
6.53
5.44
3.80
1.83
-0.19
-2.04
-3.68
-5.19
-6.67
-8.21
-9.74
-11.10
-12.16
-12.87
-13.35
-13.82
-14.56
-15.72
-17.31
-19.12
-20.75
-21.78
-21.81
-20.58
-18.01
-14.20
-9.42
-4.09
1.24
6.05
9.87
12.41
13.50
13.06
11.17
8.06
4.21
0.27
-3.07
-5.34
-6.33
-6.18
-5.20
-3.66
-1.75
0.49
2.99
5.66
8.33
10.79
12.76
13.97
14.14
13.07
10.93
8.15
5.37
3.18
1.88
1.43
1.54
1.92
2.42
3.03
3.79
4.66
5.50
6.14
6.50
6.60
6.53
6.38
6.18
5.91
5.50
4.95
4.22
3.35
2.30
1.00
-0.71
-2.95
-5.85
-9.36
-13.22
-17.06
-20.46
-23.07
-24.70
-25.25
-24.69
-22.95
-20.03
-16.05
-11.33
-6.43
-1.97
1.45
3.53
4.28
4.03
3.24
2.30
1.38
0.37
-0.96
-2.79
-4.99
-7.12
-8.54
-8.76
-7.59
-5.31
-2.45
0.48
3.16
5.61
7.92
10.08
11.83
12.70
12.25
10.31
7.18
3.50
0.12
-2.33
-3.59
-3.87
-3.68
-3.57
-3.82
-4.36
-4.92
-5.25
-5.37
-5.51
-6.09
-7.35
-9.24
-11.40
-13.34
-14.63
-15.08
-14.78
-14.00
-13.02
-12.09
-11.34
-10.82
-10.59
-10.68
-11.15
-12.06
-13.37
-14.93
-16.30
-16.83
-15.79
-12.65
-7.34
-0.37
7.29
14.53
20.43
24.46
26.42
26.40
24.60
21.35
17.15
12.66
8.58
5.53
3.87
3.67
4.76
6.78
9.30
11.85
14.01
15.50
16.33
16.72
17.04
17.55
18.27
19.05
19.61
19.72
19.24
18.07
16.12
13.45
10.28
7.07
4.37
2.54
1.63
1.34
1.19
0.79
0.03
-0.97
-2.01
-2.93
-3.65
-4.22
-4.73
-5.35
-6.29
-7.73
-9.70
-12.03
-14.33
-16.17
-17.20
-17.22
-16.22
-14.22
-11.25
-7.44
-3.09
1.30
5.13
7.95
9.62
10.29
10.29
9.91
9.31
8.57
7.68
6.66
5.50
4.21
2.73
1.11
-0.50
-1.80
-2.46
-2.26
-1.16
0.71
3.06
5.60
7.92
9.63
10.34
9.80
8.11
5.68
3.17
1.20
0.10
-0.20
-0.06
0.09
-0.02
-0.41
-0.99
-1.68
-2.50
-3.55
-4.85
-6.30
-7.69
-8.82
-9.63
-10.20
-10.61
-10.90
-10.98
-10.77
-10.32
-9.88
-9.79
-10.28
-11.37
-12.88
-14.60
-16.32
-17.90
-19.07
-19.42
-18.45
-15.82
-11.60
-6.33
-0.82
4.12
7.99
10.66
12.23
12.84
12.54
11.35
9.32
6.64
3.64
0.65
-2.04
-4.27
-5.99
-7.21
-7.86
-7.81
-6.86
-4.90
-1.98
1.62
5.41
8.78
11.19
12.25
11.93
10.47
8.36
6.08
4.00
2.22
0.70
-0.62
-1.66
-2.26
-2.20
-1.39
0.04
1.76
3.44
4.86
5.96
6.85
7.63
8.30
8.75
8.92
8.75
8.33
7.80
7.26
6.70
5.95
4.80
3.03
0.63
-2.25
-5.31
-8.26
-10.99
-13.46
-15.57
-17.00
-17.21
-15.72
-12.43
-7.80
-2.71
1.88
5.34
7.54
8.67
8.93
8.32
6.72
4.12
0.81
-2.66
-5.61
-7.63
-8.68
-8.93
-8.64
-7.92
-6.75
-5.07
-2.92
-0.46
2.07
4.46
6.52
8.05
8.84
8.64
7.38
5.19
2.43
-0.41
-2.92
-4.92
-6.46
-7.68
-8.74
-9.64
-10.35
-10.84
-11.25
-11.77
-12.59
-13.78
-15.23
-16.71
-17.97
-18.77
-18.92
-18.32
-17.03
-15.34
-13.71
-12.69
-12.68
-13.87
-16.18
-19.40
-23.11
-26.79
-29.67
-30.80
-29.29
-24.64
-17.07
-7.47
2.80
12.45
20.47
26.39
30.11
31.82
31.82
30.53
28.35
25.67
22.69
19.55
16.35
13.29
10.74
9.07
8.51
9.01
10.29
11.98
13.78
15.45
16.77
17.43
17.05
15.41
12.60
9.09
5.61
2.90
1.43
1.25
2.09
3.44
4.77
5.58
5.50
4.32
2.08
-0.87
-3.94
-6.48
-8.09
-8.70
-8.68
-8.50
-8.58
-9.03
-9.72
-10.36
-10.69
-10.58
-9.95
-8.78
-7.03
-4.71
-1.88
1.28
4.59
7.86
10.97
13.80
16.22
18.11
19.35
19.82
19.39
17.97
15.49
12.05
7.98
3.82
0.25
-2.15
-3.02
-2.39
-0.52
2.14
5.07
7.79
9.87
10.97
10.92
9.76
7.73
5.27
2.83
0.83
-0.54
-1.27
-1.53
-1.59
-1.70
-2.07
-2.86
-4.16
-6.00
-8.33
-11.01
-13.81
-16.47
-18.78
-20.67
-22.18
-23.37
-24.32
-25.00
-25.36
-25.32
-24.77
-23.60
-21.68
-19.01
-15.70
-12.04
-8.35
-4.87
-1.74
1.06
3.53
5.61
7.22
8.33
9.03
9.48
9.80
9.97
9.87
9.39
8.57
7.66
7.05
7.09
7.91
9.49
11.59
13.92
16.14
17.90
18.84
18.75
17.65
15.86
13.84
12.02
10.56
9.28
7.88
6.09
3.88
1.48
-0.75
-2.50
-3.65
-4.31
-4.72
-5.20
-5.99
-7.25
-9.03
-11.26
-13.74
-16.19
-18.21
-19.49
-19.84
-19.34
-18.33
-17.30
-16.65
-16.53
-16.76
-16.82
-16.15
-14.27
-10.95
-6.32
-0.72
5.22
10.78
15.25
18.18
19.52
19.71
19.41
19.06
18.63
17.62
15.41
11.78
7.14
2.50
-1.01
-2.58
-1.97
0.58
4.57
9.49
14.75
19.68
23.44
25.25
24.64
21.70
17.07
11.69
6.51
2.14
-1.14
-3.36
-4.68
-5.24
-5.23
-4.92
-4.74
-5.16
-6.60
-9.17
-12.65
-16.42
-19.75
-22.09
-23.31
-23.80
-24.21
-25.18
-26.96
-29.35
-31.76
-33.52
-34.07
-33.11
-30.56
-26.55
-21.31
-15.24
-8.82
-2.63
2.90
7.45
11.02
13.72
15.62
16.67
16.65
15.27
12.27
7.73
2.05
-4.02
-9.49
-13.48
-15.37
-15.06
-12.89
-9.49
-5.52
-1.48
2.34
5.73
8.52
10.49
11.47
11.48
10.75
9.63
8.45
7.36
6.31
5.13
3.65
1.83
-0.15
-2.00
-3.33
-3.88
-3.61
-2.75
-1.75
-1.07
-1.10
-1.98
-3.67
-5.94
-8.54
-11.11
-13.23
-14.36
-14.01
-11.89
-8.09
-3.13
2.25
7.37
11.84
15.66
18.97
21.91
24.39
26.18
27.01
26.76
25.49
23.39
20.82
18.15
15.84
14.31
13.85
14.52
16.09
18.04
19.75
20.72
20.71
19.73
18.01
15.73
13.08
10.22
7.35
4.78
2.80
1.58
0.99
0.60
-0.17
-1.84
-4.56
-8.16
-12.12
-15.88
-19.04
-21.44
-23.19
-24.57
-25.91
-27.48
-29.40
-31.57
-33.68
-35.26
-35.78
-34.79
-32.00
-27.41
-21.30
-14.22
-6.82
0.27
6.62
11.99
16.26
19.37
21.25
21.87
21.33
19.88
17.88
15.65
13.41
11.32
9.60
8.62
8.83
10.60
13.88
18.13
22.40
25.59
26.91
26.08
23.40
19.58
15.42
11.52
8.25
5.68
3.77
2.36
1.24
0.13
-1.30
-3.26
-5.81
-8.72
-11.59
-13.91
-15.27
-15.43
-14.47
-12.79
-11.02
-9.86
-9.93
-11.43
-14.07
-17.11
-19.55
-20.50
-19.41
-16.18
-11.07
-4.56
2.72
10.01
16.48
21.30
23.92
24.20
22.49
19.47
15.92
12.50
9.67
7.70
6.77
7.04
8.50
11.05
14.30
17.72
20.79
23.06
24.29
24.42
23.53
21.76
19.36
16.62
13.90
11.50
9.63
8.32
7.40
6.55
5.38
3.59
1.09
-1.96
-5.19
-8.19
-10.69
-12.67
-14.35
-16.02
-17.84
-19.82
-21.89
-24.01
-26.26
-28.74
-31.42
-34.10
-36.45
-38.23
-39.42
-40.15
-40.41
-39.86
-37.75
-33.35
-26.35
-17.32
-7.59
1.24
7.89
11.83
13.34
13.16
12.08
10.67
9.23
7.88
6.68
5.69
4.99
4.71
4.98
5.96
7.61
9.74
11.89
13.58
14.54
14.91
15.18
15.88
17.11
18.34
18.64
17.15
13.60
8.54
2.98
-1.98
-5.59
-7.45
-7.46
-5.65
-2.24
2.18
6.62
9.90
11.04
9.80
6.75
3.07
-0.07
-2.01
-2.91
-3.52
-4.74
-7.14
-10.67
-14.66
-18.05
-19.75
-19.01
-15.59
-9.82
-2.40
5.79
13.92
21.22
26.99
30.68
31.97
30.89
27.93
23.89
19.73
16.28
14.00
12.99
13.02
13.74
14.82
16.04
17.28
18.54
19.82
21.07
22.09
22.55
22.09
20.53
17.99
14.90
11.84
9.28
7.41
6.11
5.05
3.91
2.49
0.73
-1.37
-3.82
-6.65
-9.82
-13.15
-16.37
-19.20
-21.47
-23.20
-24.54
-25.71
-26.91
-28.33
-30.07
-32.16
-34.45
-36.56
-37.86
-37.64
-35.29
-30.59
-23.80
-15.60
-6.86
1.53
8.95
15.03
19.64
22.76
24.46
24.85
24.16
22.62
20.50
18.02
15.33
12.62
10.17
8.32
7.53
8.13
10.20
13.49
17.41
21.18
24.02
25.40
25.14
23.49
20.90
17.91
14.94
12.20
9.68
7.25
4.81
2.33
-0.19
-2.73
-5.31
-7.96
-10.62
-13.14
-15.32
-16.96
-18.07
-18.84
-19.61
-20.71
-22.29
-24.29
-26.54
-28.86
-31.19
-33.56
-35.91
-37.94
-39.03
-38.42
-35.48
-30.02
-22.38
-13.35
-3.98
4.85
12.50
18.62
23.10
25.94
27.23
27.25
26.38
25.09
23.79
22.76
22.10
21.82
21.90
22.34
23.19
24.53
26.39
28.69
31.23
33.62
35.37
35.98
35.11
32.69
29.03
24.63
20.12
15.96
12.39
9.45
7.05
4.98
3.06
1.04
-1.27
-3.92
-6.85
-9.80
-12.45
-14.60
-16.23
-17.56
-18.86
-20.42
-22.32
-24.57
-27.05
-29.66
-32.29
-34.86
-37.23
-39.28
-40.92
-42.07
-42.65
-42.49
-41.37
-39.03
-35.28
-30.11
-23.66
-16.21
-8.09
0.26
8.31
15.42
20.95
24.35
25.40
24.17
21.09
16.85
12.24
8.09
5.13
3.88
4.48
6.57
9.29
11.56
12.35
11.07
7.74
2.98
-2.23
-6.90
-10.27
-12.08
-12.47
-11.81
-10.54
-8.96
-7.27
-5.59
-4.03
-2.71
-1.68
-0.87
-0.14
0.65
1.52
2.32
2.83
2.93
2.64
2.11
1.55
1.02
0.36
-0.64
-2.09
-3.92
-5.88
-7.70
-9.19
-10.24
-10.68
-10.21
-8.39
-4.85
0.41
6.97
13.96
20.43
25.66
29.29
31.33
31.96
31.38
29.72
27.11
23.80
20.20
16.84
14.13
12.34
11.48
11.40
11.94
13.01
14.57
16.58
18.85
20.94
22.32
22.43
20.95
17.91
13.73
9.06
4.58
0.80
-2.07
-4.03
-5.26
-5.97
-6.38
-6.75
-7.35
-8.47
-10.27
-12.74
-15.61
-18.52
-21.09
-23.05
-24.33
-25.01
-25.26
-25.27
-25.21
-25.24
-25.42
-25.74
-25.98
-25.81
-24.73
-22.38
-18.57
-13.48
-7.51
-1.25
4.80
10.24
14.85
18.51
21.08
22.36
22.19
20.57
17.77
14.30
10.82
7.93
6.00
5.16
5.40
6.69
8.96
12.11
15.84
19.55
22.53
24.08
23.89
22.05
19.04
15.49
11.94
8.68
5.85
3.48
1.56
0.10
-1.03
-2.05
-3.23
-4.77
-6.71
-8.89
-11.06
-13.00
-14.56
-15.72
-16.54
-17.14
-17.68
-18.39
-19.51
-21.17
-23.36
-25.85
-28.29
-30.35
-31.81
-32.57
-32.60
-31.79
-29.91
-26.64
-21.70
-15.05
-7.07
1.46
9.50
16.07
20.52
22.70
22.97
21.95
20.33
18.61
16.99
15.51
14.16
13.02
12.30
12.28
13.06
14.61
16.64
18.76
20.60
21.86
22.40
22.15
21.11
19.33
16.97
14.21
11.32
8.56
6.09
3.97
2.15
0.47
-1.21
-2.99
-4.83
-6.59
-8.10
-9.25
-10.11
-10.83
-11.69
-12.88
-14.50
-16.55
-18.94
-21.56
-24.25
-26.80
-28.93
-30.41
-31.10
-31.07
-30.61
-30.15
-30.20
-31.05
-32.67
-34.58
-35.90
-35.64
-33.03
-27.95
-20.95
-13.14
-5.74
0.32
4.60
7.14
8.23
8.20
7.31
5.79
3.83
1.68
-0.43
-2.22
-3.42
-3.81
-3.31
-1.95
0.06
2.39
4.82
7.27
9.87
12.73
15.80
18.76
21.10
22.36
22.37
21.31
19.65
17.89
16.33
15.04
13.93
12.86
11.77
10.63
9.45
8.15
6.65
4.94
3.14
1.49
0.23
-0.62
-1.24
-1.96
-3.10
-4.80
-6.97
-9.38
-11.70
-13.60
-14.75
-14.80
-13.45
-10.56
-6.22
-0.81
5.08
10.76
15.62
19.22
21.32
21.91
21.13
19.33
16.88
14.20
11.60
9.29
7.36
5.82
4.66
3.85
3.41
3.42
3.96
5.10
6.77
8.74
10.63
12.03
12.61
12.25
10.99
9.06
6.65
4.02
1.32
-1.22
-3.37
-4.88
-5.63
-5.68
-5.32
-5.02
-5.26
-6.41
-8.54
-11.38
-14.41
-17.07
-18.98
-20.03
-20.49
-20.83
-21.55
-22.97
-25.06
-27.42
-29.39
-30.27
-29.51
-26.90
-22.59
-16.99
-10.67
-4.18
1.99
7.45
11.85
14.97
16.71
17.24
16.86
15.89
14.52
12.81
10.69
8.19
5.61
3.39
2.05
1.96
3.13
5.32
8.08
10.92
13.42
15.26
16.19
16.10
15.00
13.06
10.60
8.04
5.74
3.95
2.71
1.95
1.47
1.06
0.53
-0.27
-1.40
-2.89
-4.65
-6.59
-8.65
-10.76
-12.85
-14.83
-16.61
-18.11
-19.33
-20.28
-21.01
-21.56
-21.98
-22.34
-22.73
-23.24
-23.75
-23.96
-23.38
-21.58
-18.30
-13.64
-7.97
-1.77
4.46
10.38
15.67
20.05
23.28
25.26
26.07
25.90
24.95
23.34
21.09
18.32
15.30
12.54
10.51
9.55
9.64
10.53
11.83
13.24
14.59
15.84
16.85
17.40
17.21
16.15
14.31
12.05
9.81
7.82
6.06
4.24
1.99
-0.79
-3.95
-7.05
-9.56
-11.11
-11.58
-11.07
-9.95
-8.74
-7.97
-8.10
-9.36
-11.67
-14.66
-17.78
-20.49
-22.50
-23.85
-24.96
-26.33
-28.30
-30.76
-33.08
-34.31
-33.55
-30.37
-24.99
-18.25
-11.28
-5.13
-0.45
2.57
4.11
4.57
4.35
3.73
2.85
1.66
0.06
-1.99
-4.35
-6.58
-8.09
-8.34
-7.10
-4.52
-1.17
2.26
5.19
7.23
8.24
8.21
7.21
5.42
3.18
1.02
-0.44
-0.74
0.20
2.03
4.10
5.81
6.81
7.10
6.90
6.50
6.08
5.70
5.39
5.19
5.12
5.09
4.84
4.12
2.80
1.00
-0.88
-2.38
-3.20
-3.33
-2.93
-2.12
-0.87
1.08
3.99
7.92
12.61
17.52
22.01
25.61
28.12
29.58
30.23
30.28
29.89
29.16
28.18
27.10
26.08
25.33
24.98
25.17
26.08
27.92
30.98
35.44
41.20
47.75
54.22
59.68
63.50
65.61
66.56
67.25
68.54
70.81
73.93
77.41
80.74
83.67
86.28
88.82
91.43
93.97
96.04
97.08
96.43
93.35
86.91
75.91
59.09
35.66
5.89
-28.39
-64.10
-97.53
-125.56
-146.56
-160.61
-169.08
-173.77
-176.09
-176.71
-175.81
-173.38
-169.63
-164.98
-159.91
-154.64
-149.02
-142.57
-134.77
-125.36
-114.54
-102.99
-91.64
-81.27
-72.15
-63.91
-55.65
-46.41
-35.82
-24.27
-12.91
-3.09
4.34
9.32
12.42
14.45
15.83
16.29
14.99
10.88
3.29
-7.64
-20.87
-34.65
-46.96
-56.13
-61.18
-62.03
-59.38
-54.39
-48.33
-42.14
-36.35
-31.00
-25.87
-20.61
-14.75
-7.82
0.59
10.77
22.62
35.60
48.75
60.83
70.64
77.28
80.41
80.25
77.53
73.23
68.44
64.22
61.44
60.64
61.86
64.51
67.43
69.14
68.18
63.58
55.18
43.79
30.95
18.54
8.18
0.84
-3.36
-5.13
-5.63
-6.05
-7.28
-9.72
-13.38
-18.03
-23.39
-29.22
-35.28
-41.20
-46.43
-50.20
-51.62
-49.80
-44.09
-34.14
-20.10
-2.58
17.34
38.20
58.24
75.55
88.30
94.99
94.88
88.31
76.70
62.35
48.00
36.22
28.94
27.07
30.45
37.95
47.88
58.34
67.63
74.55
78.61
80.09
79.85
78.97
78.28
78.03
77.87
77.00
74.74
70.84
65.63
59.79
53.93
48.31
42.75
37.06
31.39
26.38
22.80
21.17
21.20
21.96
22.17
20.90
17.92
13.67
8.97
4.51
0.52
-3.20
-7.03
-11.24
-15.80
-20.38
-24.55
-27.97
-30.58
-32.52
-34.06
-35.44
-36.86
-38.44
-40.33
-42.73
-45.93
-50.03
-54.88
-59.87
-64.13
-66.78
-67.26
-65.56
-62.23
-58.04
-53.66
-49.40
-45.15
-40.56
-35.35
-29.57
-23.67
-18.41
-14.54
-12.60
-12.77
-14.89
-18.60
-23.41
-28.86
-34.45
-39.64
-43.85
-46.51
-47.17
-45.59
-41.82
-36.13
-29.03
-21.20
-13.44
-6.64
-1.61
1.14
1.52
-0.05
-2.74
-5.67
-8.08
-9.56
-10.02
-9.55
-8.31
-6.44
-4.12
-1.69
0.31
1.24
0.59
-1.75
-5.35
-9.42
-13.06
-15.57
-16.64
-16.33
-14.91
-12.67
-9.92
-6.97
-4.14
-1.63
0.52
2.57
4.89
7.72
10.93
14.01
16.31
17.36
17.19
16.19
14.93
13.80
12.85
11.88
10.74
9.48
8.38
7.83
8.05
8.93
10.01
10.65
10.38
9.07
7.12
5.14
3.74
3.16
3.14
3.16
2.66
1.34
-0.72
-3.18
-5.70
-8.00
-10.01
-11.76
-13.31
-14.76
-16.14
-17.49
-18.69
-19.57
-19.92
-19.70
-19.21
-18.97
-19.52
-21.04
-23.08
-24.67
-24.65
-22.12
-16.86
-9.37
-0.63
8.25
16.35
23.13
28.37
32.03
34.23
35.12
34.95
34.07
32.79
31.37
29.94
28.52
27.07
25.64
24.35
23.41
22.99
23.08
23.59
24.30
24.98
25.41
25.51
25.21
24.55
23.52
22.11
20.25
17.94
15.18
12.07
8.78
5.56
2.59
-0.07
-2.54
-5.04
-7.76
-10.71
-13.70
-16.35
-18.31
-19.45
-19.94
-20.22
-20.83
-22.19
-24.44
-27.36
-30.42
-32.89
-34.04
-33.30
-30.35
-25.30
-18.58
-10.98
-3.34
3.63
9.51
14.20
17.81
20.49
22.31
23.28
23.35
22.57
21.15
19.39
17.54
15.72
13.96
12.28
10.81
9.80
9.53
10.09
11.33
12.83
14.08
14.60
14.11
12.55
10.04
6.84
3.25
-0.38
-3.65
-6.28
-8.11
-9.26
-10.03
-10.83
-11.96
-13.54
-15.48
-17.49
-19.22
-20.38
-20.78
-20.39
-19.35
-17.94
-16.52
-15.46
-15.07
-15.53
-16.77
-18.52
-20.26
-21.27
-20.81
-18.20
-13.07
-5.44
4.15
14.80
25.44
35.10
43.05
48.95
52.79
54.76
55.08
53.98
51.60
48.13
43.77
38.84
33.70
28.73
24.29
20.66
18.00
16.30
15.42
15.14
15.22
15.51
15.93
16.43
16.97
17.39
17.50
17.08
15.96
14.13
11.74
9.09
6.60
4.62
3.35
2.75
2.59
2.53
2.24
1.48
0.11
-1.99
-4.92
-8.66
-13.00
-17.57
-21.95
-25.98
-29.96
-34.66
-41.16
-50.48
-63.25
-79.54
-98.79
-119.89
-141.43
-161.80
-179.30
-192.16
-198.67
-197.30
-186.98
-167.42
-139.40
-104.90
-66.82
-28.34
7.92
40.47
69.10
94.33
116.75
136.47
153.12
166.21
175.60
181.75
185.33
186.82
186.07
182.48
175.51
165.18
152.35
138.30
124.16
110.42
96.79
82.52
66.94
49.74
31.03
11.15
-9.67
-31.36
-53.94
-77.00
-99.37
-118.98
-133.14
-139.41
-136.46
-124.76
-106.54
-85.09
-63.69
-44.80
-29.63
-18.39
-10.73
-6.13
-3.90
-3.07
-2.20
0.35
5.97
15.30
27.97
42.66
57.52
70.80
81.20
88.25
92.33
94.43
95.67
96.58
96.71
94.48
87.85
74.92
54.59
26.68
-7.95
-47.20
-87.63
-124.42
-152.01
-165.55
-162.38
-142.76
-109.52
-66.87
-19.21
29.13
73.53
108.70
129.17
130.76
112.31
76.63
29.86
-20.08
-65.58
-100.65
-121.46
-126.55
-116.82
-95.47
-67.74
-39.98
-18.41
-7.83
-10.63
-26.43
-52.16
-82.57
-111.32
-132.48
-142.00
-138.79
-124.83
-104.08
-81.04
-59.41
-41.57
-28.70
-21.24
-19.19
-22.10
-28.92
-37.89
-46.94
-54.17
-58.17
-58.24
-54.29
-46.70
-36.21
-23.90
-10.95
1.47
12.57
21.96
29.64
35.70
40.16
43.00
44.25
44.13
43.02
41.23
38.78
35.48
31.21
26.40
22.21
20.22
21.72
26.94
34.76
43.06
49.64
52.79
51.67
45.51
33.34
13.88
-13.69
-48.55
-87.71
-126.84
-162.08
-191.83
-217.13
-240.19
-262.29
-282.50
-298.47
-308.56
-313.77
-317.69
-324.17
-334.81
-347.35
-357.09
-359.96
-355.04
-344.88
-333.38
-323.12
-314.16
-305.14
-295.11
-284.74
-275.79
-268.79
-261.81
-250.57
-230.36
-198.55
-155.78
-105.28
-51.21
3.05
55.64
105.72
152.68
195.83
234.60
269.19
300.91
332.05
365.23
402.60
444.47
488.65
530.44
563.67
582.69
584.48
569.74
542.65
509.29
475.17
443.70
415.74
390.47
366.81
344.47
324.04
306.37
291.71
279.10
266.73
252.75
236.15
217.31
197.81
179.62
164.20
151.78
141.40
131.47
120.58
107.91
93.32
77.00
59.02
39.34
18.05
-4.19
-25.97
-45.33
-60.35
-69.86
-73.81
-73.30
-70.09
-66.04
-62.63
-60.70
-60.58
-62.20
-65.29
-69.52
-74.47
-79.67
-84.62
-88.89
-92.26
-94.74
-96.59
-98.11
-99.52
-100.82
-101.72
-101.83
-100.73
-98.18
-94.18
-89.01
-83.04
-76.70
-70.32
-64.10
-58.14
-52.49
-47.18
-42.29
-37.90
-34.07
-30.83
-28.13
-25.89
-24.01
-22.39
-20.99
-19.78
-18.74
-17.82
-16.95
-16.04
-14.98
-13.74
-12.35
-10.90
-9.56
-8.44
-7.61
-7.05
-6.69
-6.42
-6.19
-6.03
-5.99
-6.19
-6.66
-7.42
-8.37
-9.40
-10.42
-11.38
-12.34
-13.35
-14.48
-15.66
-16.76
-17.57
-17.87
-17.54
-16.51
-14.82
-12.52
-9.74
-6.62
-3.35
-0.18
2.66
4.99
6.69
7.75
8.20
8.06
7.40
6.28
4.79
3.02
1.10
-0.82
-2.60
-4.08
-5.14
-5.76
-5.98
-5.93
-5.75
-5.62
-5.65
-5.90
-6.38
-7.08
-7.90
-8.74
-9.45
-9.94
-10.18
-10.21
-10.10
-9.90
-9.67
-9.47
-9.40
-9.58
-10.08
-10.83
-11.63
-12.14
-12.01
-11.01
-9.10
-6.45
-3.36
-0.22
2.63
4.90
6.43
7.23
7.42
7.27
7.07
6.97
6.96
6.89
6.54
5.81
4.76
3.65
2.78
2.40
2.64
3.45
4.71
6.27
8.02
9.93
12.00
14.25
16.58
18.80
20.61
21.68
21.82
21.00
19.39
17.26
14.83
12.17
9.16
5.71
1.82
-2.31
-6.31
-9.78
-12.50
-14.36
-15.39
-15.60
-14.93
-13.22
-10.43
-6.68
-2.35
2.01
5.85
8.74
10.53
11.27
11.16
10.42
9.14
7.37
5.15
2.63
0.09
-2.08
-3.56
-4.20
-4.10
-3.55
-2.88
-2.31
-1.92
-1.69
-1.60
-1.71
-2.16
-3.07
-4.42
-6.04
-7.72
-9.30
-10.75
-12.09
-13.40
-14.62
-15.62
-16.22
-16.33
-15.97
-15.27
-14.39
-13.41
-12.41
-11.39
-10.36
-9.33
-8.34
-7.34
-6.29
-5.02
-3.35
-1.11
1.79
5.30
9.20
13.13
16.72
19.63
21.71
22.90
23.29
22.96
22.04
20.66
18.96
17.17
15.49
14.07
13.00
12.22
11.58
10.95
10.23
9.45
8.65
7.86
7.03
6.06
4.79
3.20
1.32
-0.68
-2.65
-4.48
-6.14
-7.64
-8.97
-10.08
-10.95
-11.59
-12.06
-12.45
-12.78
-13.03
-13.12
-13.00
-12.75
-12.47
-12.29
-12.31
-12.52
-12.90
-13.41
-14.01
-14.63
-15.15
-15.34
-14.94
-13.75
-11.70
-8.94
-5.77
-2.60
0.21
2.41
3.92
4.79
5.14
5.05
4.53
3.59
2.26
0.72
-0.75
-1.85
-2.36
-2.23
-1.58
-0.62
0.44
1.48
2.46
3.37
4.14
4.69
4.93
4.84
4.43
3.75
2.84
1.70
0.31
-1.32
-3.09
-4.88
-6.55
-8.00
-9.19
-10.12
-10.76
-11.08
-11.05
-10.73
-10.33
-10.08
-10.18
-10.67
-11.45
-12.32
-13.07
-13.55
-13.71
-13.50
-12.83
-11.61
-9.74
-7.22
-4.18
-0.92
2.18
4.73
6.47
7.24
7.07
6.12
4.63
2.83
0.90
-1.04
-2.84
-4.34
-5.37
-5.77
-5.51
-4.68
-3.51
-2.31
-1.34
-0.72
-0.47
-0.51
-0.71
-0.95
-1.14
-1.25
-1.25
-1.19
-1.12
-1.09
-1.19
-1.42
-1.79
-2.27
-2.79
-3.33
-3.86
-4.38
-4.87
-5.32
-5.68
-5.95
-6.06
-5.93
-5.49
-4.68
-3.49
-2.02
-0.42
1.16
2.63
3.99
5.31
6.63
7.94
9.05
9.75
9.79
9.04
7.51
5.38
2.91
0.44
-1.65
-2.98
-3.19
-2.09
0.24
3.38
6.68
9.36
10.84
10.87
9.58
7.44
5.02
2.74
0.80
-0.83
-2.33
-3.78
-5.13
-6.14
-6.53
-6.08
-4.81
-2.99
-1.09
0.34
0.84
0.16
-1.71
-4.56
-8.01
-11.56
-14.68
-16.84
-17.61
-16.75
-14.31
-10.58
-6.09
-1.41
2.92
6.48
8.98
10.30
10.47
9.66
8.22
6.56
5.10
4.11
3.64
3.54
3.57
3.52
3.30
2.99
2.70
2.56
2.59
2.73
2.88
3.02
3.24
3.70
4.53
5.76
7.31
8.96
10.50
11.82
12.82
13.49
13.79
13.66
13.05
11.95
10.47
8.74
6.95
5.20
3.52
1.92
0.36
-1.17
-2.66
-4.10
-5.49
-6.76
-7.85
-8.60
-8.87
-8.59
-7.84
-6.90
-6.22
-6.22
-7.20
-9.15
-11.76
-14.48
-16.74
-18.03
-18.15
-17.14
-15.33
-13.16
-11.11
-9.52
-8.66
-8.59
-9.20
-10.22
-11.20
-11.75
-11.53
-10.48
-8.75
-6.74
-4.88
-3.56
-2.96
-3.04
-3.60
-4.35
-5.03
-5.48
-5.65
-5.61
-5.47
-5.36
-5.29
-5.23
-5.05
-4.57
-3.65
-2.28
-0.55
1.33
3.08
4.47
5.32
5.61
5.45
5.03
4.60
4.39
4.51
4.92
5.38
5.57
5.20
4.15
2.52
0.64
-1.11
-2.41
-3.13
-3.28
-3.04
-2.64
-2.30
-2.19
-2.36
-2.77
-3.23
-3.54
-3.49
-3.02
-2.21
-1.26
-0.47
-0.10
-0.32
-1.19
-2.62
-4.41
-6.28
-7.88
-8.94
-9.23
-8.68
-7.39
-5.55
-3.40
-1.20
0.85
2.58
3.88
4.71
5.13
5.24
5.19
5.06
4.92
4.72
4.43
4.04
3.57
3.06
2.52
1.88
1.03
-0.15
-1.76
-3.79
-6.15
-8.69
-11.17
-13.33
-14.92
-15.74
-15.72
-14.89
-13.42
-11.51
-9.35
-7.08
-4.77
-2.48
-0.35
1.44
2.62
2.98
2.53
1.48
0.28
-0.61
-0.84
-0.34
0.68
1.94
3.21
4.44
5.69
7.04
8.49
9.97
11.32
12.47
13.40
14.13
14.63
14.79
14.49
13.67
12.37
10.74
8.96
7.22
5.66
4.41
3.51
3.04
2.97
3.20
3.55
3.78
3.70
3.15
2.13
0.71
-0.92
-2.60
-4.19
-5.64
-6.97
-8.26
-9.55
-10.89
-12.21
-13.40
-14.33
-14.87
-14.89
-14.36
-13.33
-11.91
-10.25
-8.48
-6.66
-4.82
-2.98
-1.20
0.34
1.38
1.69
1.12
-0.25
-2.08
-3.84
-4.95
-5.00
-3.89
-1.93
0.22
1.76
2.12
1.23
-0.39
-1.71
-1.72
0.14
3.70
8.04
11.86
14.04
14.03
12.01
8.72
5.07
1.73
-0.99
-3.11
-4.85
-6.46
-8.08
-9.76
-11.43
-12.99
-14.27
-15.10
-15.31
-14.73
-13.27
-10.89
-7.71
-3.98
-0.09
3.47
6.29
8.03
8.63
8.29
7.35
6.24
5.25
4.48
3.83
3.13
2.24
1.17
0.08
-0.83
-1.37
-1.49
-1.24
-0.74
-0.20
0.16
0.08
-0.66
-2.17
-4.39
-7.09
-9.85
-12.26
-13.99
-14.82
-14.66
-13.49
-11.27
-8.06
-3.98
0.68
5.55
10.18
14.19
17.29
19.37
20.47
20.73
20.43
19.85
19.26
18.85
18.69
18.82
19.19
19.74
20.26
20.46
19.94
18.34
15.48
11.50
6.86
2.14
-2.07
-5.46
-7.93
-9.57
-10.56
-11.03
-11.02
-10.55
-9.61
-8.19
-6.40
-4.36
-2.24
-0.28
1.32
2.30
2.47
1.66
-0.18
-2.97
-6.46
-10.25
-13.93
-17.19
-19.88
-22.03
-23.77
-25.17
-26.16
-26.51
-25.93
-24.18
-21.17
-17.03
-12.10
-6.87
-1.85
2.51
5.88
8.21
9.61
10.37
10.80
11.13
11.40
11.53
11.34
10.70
9.58
8.13
6.62
5.36
4.61
4.49
4.95
5.78
6.71
7.37
7.50
6.93
5.62
3.74
1.52
-0.78
-2.98
-5.05
-7.13
-9.39
-11.93
-14.67
-17.33
-19.53
-20.98
-21.69
-22.02
-22.53
-23.73
-25.86
-28.69
-31.66
-34.10
-35.51
-35.75
-34.99
-33.47
-31.36
-28.58
-24.88
-19.98
-13.63
-5.68
3.93
15.14
27.58
40.39
52.16
61.21
66.15
66.43
62.73
56.60
49.92
44.06
39.51
35.97
32.88
29.94
27.42
25.87
25.67
26.60
27.84
28.32
27.34
24.86
21.55
18.30
15.76
13.96
12.44
10.47
7.61
3.91
-0.08
-3.61
-6.06
-7.24
-7.44
-7.21
-7.23
-8.00
-9.73
-12.36
-15.53
-18.64
-21.09
-22.37
-22.25
-20.81
-18.44
-15.62
-12.71
-9.81
-6.76
-3.26
0.85
5.45
10.08
14.03
16.60
17.30
16.00
13.01
8.86
4.22
-0.30
-4.29
-7.54
-9.91
-11.36
-11.85
-11.41
-10.19
-8.46
-6.58
-4.81
-3.25
-1.81
-0.30
1.42
3.29
5.08
6.45
7.15
7.06
6.24
4.91
3.31
1.66
0.13
-1.22
-2.39
-3.46
-4.57
-5.91
-7.62
-9.75
-12.19
-14.62
-16.62
-17.75
-17.70
-16.36
-13.86
-10.48
-6.58
-2.46
1.56
5.25
8.37
10.73
12.29
13.12
13.35
13.15
12.59
11.66
10.37
8.79
7.10
5.55
4.37
3.70
3.56
3.81
4.32
4.92
5.51
6.02
6.44
6.78
6.98
7.03
6.93
6.72
6.52
6.43
6.49
6.59
6.49
5.97
4.89
3.34
1.57
-0.13
-1.58
-2.80
-3.96
-5.32
-7.05
-9.19
-11.64
-14.17
-16.47
-18.23
-19.07
-18.66
-16.77
-13.34
-8.57
-2.90
3.09
8.83
13.83
17.79
20.62
22.36
23.12
23.06
22.31
20.97
19.22
17.24
15.24
13.38
11.72
10.20
8.70
7.10
5.35
3.46
1.46
-0.62
-2.80
-5.09
-7.42
-9.64
-11.53
-12.92
-13.77
-14.22
-14.51
-14.94
-15.73
-16.98
-18.63
-20.51
-22.45
-24.27
-25.90
-27.35
-28.63
-29.81
-30.88
-31.82
-32.53
-32.91
-32.79
-31.94
-30.13
-27.13
-22.79
-17.13
-10.33
-2.78
5.02
12.50
19.11
24.39
28.07
30.01
30.34
29.31
27.31
24.74
21.93
19.12
16.39
13.75
11.09
8.37
5.65
3.14
1.21
0.27
0.57
2.14
4.72
7.80
10.83
13.33
15.09
16.12
16.54
16.49
16.01
15.04
13.53
11.50
9.06
6.38
3.60
0.77
-2.09
-4.98
-7.76
-10.19
-11.89
-12.49
-11.74
-9.56
-5.99
-1.23
4.50
10.91
17.67
24.37
30.59
35.86
39.78
42.11
42.78
41.93
39.89
37.05
33.79
30.42
27.16
24.14
21.39
18.94
16.82
15.10
13.84
13.09
12.83
13.00
13.47
14.03
14.49
14.65
14.34
13.51
12.21
10.50
8.54
6.41
4.12
1.64
-1.09
-4.06
-7.19
-10.37
-13.52
-16.67
-19.88
-23.21
-26.66
-30.12
-33.50
-36.77
-40.02
-43.38
-46.83
-50.13
-52.88
-54.63
-55.15
-54.50
-52.90
-50.59
-47.62
-43.79
-38.84
-32.60
-25.20
-17.11
-8.94
-1.27
5.48
11.14
15.66
19.09
21.47
22.82
23.19
22.60
21.20
19.21
16.94
14.72
12.75
11.12
9.78
8.67
7.76
7.11
6.85
7.02
7.53
8.18
8.70
8.94
8.81
8.39
7.75
6.99
6.12
5.12
4.00
2.77
1.49
0.20
-1.07
-2.33
-3.62
-5.02
-6.57
-8.17
-9.70
-10.98
-11.94
-12.62
-13.20
-13.93
-15.02
-16.55
-18.39
-20.31
-21.93
-22.87
-22.78
-21.42
-18.72
-14.83
-10.03
-4.73
0.64
5.77
10.41
14.46
17.86
20.55
22.45
23.51
23.72
23.19
22.09
20.64
19.02
17.33
15.63
14.02
12.66
11.78
11.62
12.23
13.42
14.79
15.92
16.47
16.37
15.73
14.77
13.69
12.56
11.41
10.23
9.00
7.71
6.33
4.78
3.04
1.14
-0.76
-2.46
-3.78
-4.71
-5.40
-6.07
-7.00
-8.37
-10.25
-12.60
-15.23
-17.86
-20.26
-22.29
-23.99
-25.50
-26.94
-28.24
-29.06
-28.89
-27.29
-24.07
-19.47
-14.01
-8.29
-2.72
2.47
7.23
11.46
15.00
17.61
19.15
19.62
19.18
18.11
16.66
15.01
13.31
11.67
10.27
9.31
8.94
9.20
10.01
11.16
12.46
13.74
14.89
15.77
16.29
16.37
15.99
15.24
14.26
13.23
12.27
11.44
10.66
9.86
8.91
7.76
6.41
4.93
3.42
1.99
0.70
-0.44
-1.50
-2.59
-3.79
-5.15
-6.67
-8.28
-9.90
-11.46
-12.94
-14.32
-15.67
-17.09
-18.71
-20.63
-22.94
-25.57
-28.31
-30.79
-32.51
-32.98
-31.82
-28.93
-24.55
-19.17
-13.40
-7.76
-2.57
2.01
5.96
9.25
11.80
13.51
14.38
14.54
14.26
13.81
13.33
12.81
12.15
11.25
10.20
9.20
8.54
8.43
8.84
9.59
10.38
10.94
11.13
10.99
10.62
10.19
9.77
9.34
8.80
8.01
6.88
5.42
3.77
2.10
0.57
-0.67
-1.58
-2.19
-2.59
-2.94
-3.41
-4.13
-5.17
-6.48
-7.93
-9.37
-10.69
-11.87
-13.04
-14.33
-15.89
-17.72
-19.71
-21.57
-22.92
-23.34
-22.53
-20.37
-17.02
-12.81
-8.19
-3.57
0.75
4.64
8.08
11.07
13.55
15.42
16.59
17.05
16.90
16.34
15.57
14.72
13.81
12.82
11.71
10.53
9.40
8.45
7.82
7.52
7.52
7.77
8.19
8.70
9.24
9.74
10.11
10.27
10.17
9.72
8.91
7.69
6.07
4.07
1.78
-0.71
-3.25
-5.71
-7.98
-9.92
-11.46
-12.52
-13.15
-13.47
-13.65
-13.93
-14.54
-15.67
-17.50
-20.05
-23.13
-26.29
-28.86
-30.10
-29.45
-26.69
-22.09
-16.28
-10.11
-4.33
0.55
4.35
7.19
9.29
10.93
12.24
13.28
13.99
14.32
14.27
13.89
13.26
12.45
11.50
10.45
9.38
8.44
7.82
7.65
7.99
8.72
9.64
10.44
10.91
10.95
10.61
10.03
9.35
8.67
7.99
7.25
6.40
5.43
4.41
3.37
2.32
1.15
-0.25
-1.99
-4.03
-6.25
-8.44
-10.42
-12.12
-13.56
-14.83
-16.05
-17.31
-18.72
-20.31
-22.06
-23.80
-25.19
-25.78
-25.12
-22.96
-19.37
-14.76
-9.69
-4.72
-0.21
3.71
7.05
9.84
12.03
13.51
14.19
14.07
13.33
12.16
10.80
9.41
8.08
6.87
5.79
4.94
4.38
4.20
4.39
4.91
5.61
6.32
6.89
7.23
7.31
7.13
6.73
6.10
5.27
4.24
3.03
1.73
0.32
-1.23
-2.97
-4.92
-6.96
-8.90
-10.51
-11.77
-12.85
-14.13
-15.97
-18.50
-21.57
-24.75
-27.62
-29.97
-31.94
-33.96
-36.55
-40.01
-44.23
-48.67
-52.51
-54.87
-55.11
-52.99
-48.85
-43.65
-38.93
-36.57
-38.33
-45.32
-57.49
-73.27
-89.84
-103.85
-112.58
-114.74
-110.70
-101.98
-90.28
-76.65
-61.22
-43.63
-23.78
-2.41
18.75
37.54
52.16
61.94
67.56
70.83
73.83
78.06
83.88
90.50
96.39
100.22
101.34
99.79
95.83
89.51
80.93
70.87
61.15
54.22
51.97
54.49
59.80
64.78
66.86
65.20
60.74
55.04
49.01
42.35
34.18
24.24
13.58
4.31
-1.57
-3.24
-1.38
2.41
6.60
10.27
13.23
15.80
18.29
20.86
23.37
25.44
26.61
26.43
24.71
21.63
17.76
13.83
10.52
8.12
6.53
5.33
4.12
2.66
1.00
-0.58
-1.78
-2.39
-2.40
-2.00
-1.46
-1.09
-1.13
-1.65
-2.58
-3.76
-5.00
-6.20
-7.38
-8.59
-9.93
-11.43
-13.02
-14.62
-16.06
-17.19
-17.93
-18.24
-18.17
-17.86
-17.50
-17.24
-17.22
-17.49
-17.95
-18.44
-18.67
-18.26
-16.79
-13.98
-9.75
-4.39
1.57
7.49
12.81
17.17
20.41
22.51
23.48
23.34
22.17
20.13
17.46
14.49
11.49
8.69
6.26
4.31
2.92
2.10
1.85
2.05
2.53
3.12
3.63
3.92
3.87
3.46
2.68
1.65
0.46
-0.73
-1.82
-2.73
-3.42
-3.91
-4.35
-4.91
-5.78
-7.10
-8.83
-10.83
-12.85
-14.70
-16.28
-17.62
-18.80
-19.89
-21.00
-22.26
-23.81
-25.79
-28.10
-30.39
-32.02
-32.32
-30.82
-27.47
-22.66
-17.05
-11.30
-5.91
-1.07
3.14
6.72
9.58
11.56
12.56
12.60
11.87
10.71
9.48
8.44
7.74
7.39
7.31
7.44
7.73
8.14
8.67
9.29
9.92
10.51
10.97
11.25
11.32
11.16
10.81
10.31
9.70
8.94
7.96
6.60
4.73
2.28
-0.70
-4.05
-7.51
-10.80
-13.70
-16.06
-17.89
-19.34
-20.66
-22.14
-24.01
-26.25
-28.66
-30.79
-32.08
-32.00
-30.18
-26.47
-21.03
-14.34
-7.08
-0.02
6.17
11.10
14.68
17.10
18.65
19.50
19.67
19.08
17.67
15.62
13.31
11.19
9.67
8.86
8.65
8.76
8.95
9.10
9.28
9.61
10.13
10.80
11.40
11.72
11.57
10.89
9.72
8.15
6.35
4.46
2.58
0.74
-1.07
-2.90
-4.82
-6.83
-8.89
-10.96
-12.96
-14.86
-16.66
-18.36
-19.97
-21.57
-23.28
-25.22
-27.48
-29.95
-32.26
-33.86
-34.14
-32.64
-29.24
-24.17
-17.90
-11.03
-4.12
2.39
8.18
13.06
16.90
19.67
21.38
22.09
21.91
20.97
19.51
17.78
16.11
14.76
13.92
13.63
13.86
14.56
15.63
17.00
18.53
19.97
21.07
21.65
21.61
21.05
20.13
19.02
17.81
16.47
14.87
12.95
10.70
8.25
5.78
3.48
1.45
-0.29
-1.81
-3.25
-4.74
-6.37
-8.18
-10.13
-12.17
-14.21
-16.17
-17.97
-19.55
-20.95
-22.29
-23.76
-25.55
-27.83
-30.55
-33.41
-35.78
-36.91
-36.10
-32.94
-27.49
-20.28
-12.19
-4.12
3.18
9.31
14.13
17.69
20.01
21.13
21.07
19.92
17.94
15.48
12.93
10.58
8.61
7.10
6.07
5.59
5.79
6.74
8.36
10.43
12.58
14.44
15.77
16.52
16.72
16.46
15.79
14.70
13.22
11.47
9.62
7.87
6.29
4.82
3.35
1.78
0.14
-1.47
-2.92
-4.14
-5.23
-6.34
-7.62
-9.14
-10.80
-12.47
-14.07
-15.54
-16.93
-18.33
-19.84
-21.55
-23.55
-25.83
-28.29
-30.62
-32.31
-32.78
-31.51
-28.19
-22.90
-16.07
-8.39
-0.64
6.50
12.53
17.24
20.62
22.82
23.99
24.25
23.68
22.37
20.51
18.37
16.25
14.43
13.07
12.18
11.72
11.67
12.02
12.85
14.10
15.61
17.04
18.03
18.34
17.95
17.05
15.98
14.97
14.13
13.34
12.35
10.92
8.95
6.56
4.02
1.61
-0.49
-2.28
-3.93
-5.67
-7.68
-9.99
-12.50
-15.04
-17.43
-19.58
-21.46
-23.08
-24.49
-25.78
-27.16
-28.90
-31.22
-34.19
-37.55
-40.71
-42.85
-43.11
-40.89
-36.01
-28.80
-19.99
-10.50
-1.23
7.14
14.22
19.81
23.90
26.50
27.65
27.48
26.21
24.20
21.87
19.62
17.70
16.23
15.18
14.50
14.17
14.24
14.79
15.85
17.31
18.94
20.39
21.37
21.69
21.35
20.48
19.29
17.96
16.58
15.14
13.54
11.69
9.55
7.18
4.72
2.37
0.24
-1.65
-3.40
-5.16
-7.04
-9.04
-11.09
-13.04
-14.85
-16.51
-18.08
-19.61
-21.11
-22.65
-24.37
-26.54
-29.34
-32.78
-36.46
-39.66
-41.48
-41.13
-38.20
-32.74
-25.25
-16.46
-7.21
1.74
9.72
16.27
21.12
24.23
25.79
26.09
25.44
24.08
22.17
19.84
17.26
14.72
12.53
10.97
10.18
10.14
10.68
11.65
12.89
14.31
15.82
17.25
18.43
19.16
19.32
18.92
18.03
16.76
15.21
13.39
11.31
8.96
6.38
3.70
1.05
-1.45
-3.76
-5.89
-7.90
-9.84
-11.78
-13.73
-15.71
-17.66
-19.52
-21.21
-22.66
-23.90
-25.06
-26.33
-27.81
-29.44
-30.87
-31.53
-30.75
-27.98
-22.95
-15.73
-6.73
3.39
13.74
23.34
31.08
35.96
37.24
34.67
28.58
19.89
9.84
-0.27
-9.42
-16.95
-22.64
-26.53
-28.85
-29.94
-30.17
-29.87
-29.25
-28.31
-26.92
-24.90
-22.18
-18.84
-15.21
-11.76
-9.02
-7.59
-8.00
-10.58
-15.13
-20.74
-25.99
-29.54
-30.71
-29.75
-27.60
-25.12
-22.49
-18.99
-13.63
-5.87
3.75
13.74
22.23
27.79
29.85
28.66
24.93
19.53
13.36
7.52
3.22
1.57
3.19
7.98
15.11
23.35
31.47
38.58
44.20
48.15
50.39
50.93
49.84
47.32
43.76
39.64
35.46
31.57
28.16
25.23
22.73
20.62
18.98
17.93
17.59
17.98
18.90
19.98
20.71
20.67
19.59
17.53
14.78
11.79
8.92
6.34
3.95
1.46
-1.44
-4.94
-9.00
-13.40
-17.75
-21.66
-24.83
-27.14
-28.69
-29.75
-30.76
-32.16
-34.30
-37.21
-40.56
-43.61
-45.36
-44.87
-41.56
-35.36
-26.76
-16.67
-6.08
4.12
13.28
21.00
27.03
31.29
33.77
34.60
34.03
32.40
30.11
27.48
24.80
22.26
20.02
18.18
16.81
15.91
15.44
15.32
15.44
15.71
15.99
16.13
15.96
15.32
14.08
12.25
9.98
7.52
5.16
3.06
1.21
-0.59
-2.64
-5.21
-8.45
-12.25
-16.31
-20.26
-23.76
-26.67
-29.05
-31.14
-33.28
-35.73
-38.59
-41.70
-44.62
-46.66
-47.13
-45.44
-41.35
-35.08
-27.21
-18.54
-9.89
-1.88
4.99
10.46
14.35
16.57
17.17
16.31
14.28
11.45
8.22
4.96
2.01
-0.37
-1.98
-2.68
-2.41
-1.19
0.84
3.49
6.43
9.22
11.43
12.69
12.84
11.89
10.06
7.69
5.11
2.63
0.49
-1.18
-2.35
-3.10
-3.59
-4.00
-4.48
-5.10
-5.90
-7.00
-8.59
-10.97
-14.37
-18.84
-24.04
-29.24
-33.41
-35.51
-34.74
-30.82
-24.07
-15.31
-5.63
3.92
12.48
19.57
24.92
28.51
30.41
30.77
29.77
27.72
24.97
21.86
18.70
15.75
13.16
11.07
9.61
8.88
8.92
9.69
11.05
12.74
14.45
15.82
16.53
16.33
15.13
13.03
10.30
7.30
4.38
1.74
-0.65
-3.00
-5.58
-8.57
-11.95
-15.47
-18.83
-21.76
-24.14
-26.08
-27.85
-29.82
-32.29
-35.42
-39.09
-42.81
-45.79
-47.10
-45.93
-41.83
-34.86
-25.63
-15.07
-4.29
5.79
14.50
21.54
26.86
30.59
32.86
33.78
33.40
31.80
29.22
26.05
22.76
19.82
17.55
16.08
15.40
15.41
16.01
17.07
18.42
19.84
21.09
21.97
22.35
22.21
21.60
20.55
19.11
17.32
15.25
13.00
10.66
8.29
5.89
3.47
0.97
-1.64
-4.40
-7.33
-10.38
-13.44
-16.35
-18.94
-21.13
-22.94
-24.52
-26.14
-28.07
-30.53
-33.59
-37.10
-40.59
-43.28
-44.28
-42.74
-38.24
-30.92
-21.46
-10.91
-0.35
9.34
17.64
24.32
29.36
32.76
34.52
34.62
33.17
30.48
27.06
23.50
20.37
18.02
16.55
15.86
15.74
16.05
16.71
17.69
18.90
20.19
21.27
21.90
21.92
21.28
20.07
18.45
16.56
14.54
12.48
10.44
8.44
6.51
4.61
2.68
0.67
-1.42
-3.52
-5.47
-7.13
-8.46
-9.53
-10.56
-11.77
-13.26
-15.00
-16.83
-18.52
-19.99
-21.28
-22.55
-24.03
-25.94
-28.46
-31.63
-35.33
-39.15
-42.38
-44.10
-43.42
-39.86
-33.44
-24.84
-15.08
-5.23
3.91
11.91
18.59
23.90
27.70
29.84
30.23
28.99
26.46
23.15
19.64
16.40
13.80
12.08
11.34
11.58
12.68
14.40
16.43
18.41
20.04
21.13
21.61
21.50
20.83
19.66
18.07
16.17
14.13
12.15
10.34
8.71
7.15
5.52
3.73
1.77
-0.29
-2.41
-4.59
-6.92
-9.43
-12.06
-14.65
-16.96
-18.80
-20.11
-21.02
-21.75
-22.58
-23.74
-25.43
-27.79
-30.88
-34.58
-38.44
-41.72
-43.47
-42.82
-39.22
-32.70
-23.83
-13.62
-3.16
6.59
14.99
21.71
26.69
30.00
31.76
32.14
31.27
29.38
26.75
23.76
20.85
18.39
16.64
15.67
15.34
15.44
15.73
16.07
16.43
16.87
17.43
18.05
18.60
18.86
18.66
17.93
16.74
15.23
13.56
11.81
10.01
8.08
5.96
3.61
1.04
-1.62
-4.21
-6.54
-8.48
-9.99
-11.13
-12.09
-13.03
-14.05
-15.17
-16.33
-17.46
-18.53
-19.57
-20.67
-21.99
-23.72
-26.03
-29.00
-32.48
-35.98
-38.75
-39.88
-38.62
-34.60
-28.04
-19.61
-10.28
-0.98
7.52
14.76
20.54
24.80
27.54
28.82
28.75
27.48
25.29
22.50
19.48
16.58
14.09
12.23
11.12
10.76
11.07
11.94
13.19
14.61
16.03
17.28
18.16
18.55
18.31
17.38
15.82
13.83
11.68
9.65
7.91
6.44
5.06
3.56
1.76
-0.29
-2.42
-4.38
-5.96
-7.13
-8.04
-8.94
-10.07
-11.52
-13.23
-14.97
-16.50
-17.67
-18.52
-19.31
-20.42
-22.15
-24.59
-27.53
-30.49
-32.84
-33.92
-33.23
-30.57
-26.00
-19.91
-12.87
-5.55
1.46
7.71
12.96
17.13
20.23
22.22
23.08
22.80
21.44
19.24
16.57
13.84
11.38
9.38
7.95
7.07
6.68
6.74
7.17
7.88
8.74
9.60
10.33
10.83
11.04
10.90
10.42
9.58
8.41
6.96
5.33
3.57
1.71
-0.27
-2.40
-4.71
-7.10
-9.38
-11.40
-13.04
-14.31
-15.39
-16.44
-17.58
-18.79
-20.06
-21.42
-23.02
-25.06
-27.55
-30.20
-32.34
-33.13
-31.80
-28.04
-22.11
-14.80
-7.07
0.18
6.35
11.27
15.01
17.75
19.60
20.59
20.64
19.77
18.10
15.87
13.45
11.16
9.22
7.71
6.61
5.85
5.42
5.35
5.70
6.47
7.55
8.72
9.67
10.11
9.87
8.89
7.28
5.24
2.99
0.67
-1.64
-3.98
-6.48
-9.24
-12.33
-15.64
-18.93
-21.83
-24.01
-25.22
-25.32
-24.33
-22.37
-19.67
-16.58
-13.58
-11.24
-9.97
-9.87
-10.58
-11.34
-11.26
-9.61
-6.06
-0.82
5.53
12.21
18.43
23.63
27.40
29.59
30.20
29.35
27.23
24.10
20.31
16.25
12.32
8.87
6.14
4.18
2.93
2.29
2.22
2.73
3.84
5.48
7.44
9.40
11.02
12.07
12.47
12.27
11.54
10.37
8.78
6.82
4.56
2.08
-0.50
-3.08
-5.59
-7.96
-10.15
-12.16
-14.00
-15.70
-17.29
-18.74
-20.02
-21.17
-22.33
-23.68
-25.40
-27.44
-29.41
-30.65
-30.43
-28.18
-23.77
-17.54
-10.20
-2.54
4.71
11.10
16.38
20.46
23.30
24.92
25.33
24.58
22.87
20.44
17.69
14.96
12.54
10.62
9.23
8.33
7.87
7.81
8.14
8.79
9.63
10.46
11.02
11.09
10.54
9.40
7.79
5.92
4.02
2.27
0.72
-0.69
-2.15
-3.89
-6.05
-8.62
-11.40
-14.08
-16.35
-18.06
-19.28
-20.29
-21.43
-22.99
-24.99
-27.19
-29.04
-29.93
-29.31
-26.92
-22.86
-17.54
-11.57
-5.53
0.08
4.95
8.90
11.86
13.83
14.83
14.90
14.13
12.63
10.57
8.22
5.89
3.90
2.53
1.87
1.89
2.38
3.15
4.00
4.85
5.65
6.36
6.94
7.27
7.24
6.73
5.72
4.23
2.43
0.50
-1.41
-3.19
-4.89
-6.60
-8.42
-10.39
-12.52
-14.79
-17.21
-19.74
-22.26
-24.47
-25.90
-26.01
-24.38
-20.93
-15.98
-10.14
-4.09
1.62
6.70
11.05
14.67
17.48
19.35
20.15
19.81
18.47
16.41
13.95
11.40
8.98
6.87
5.23
4.19
3.85
4.19
5.09
6.29
7.47
8.32
8.61
8.25
7.32
6.02
4.57
3.13
1.70
0.15
-1.65
-3.82
-6.28
-8.86
-11.37
-13.65
-15.66
-17.44
-19.10
-20.77
-22.62
-24.79
-27.29
-29.83
-31.84
-32.52
-31.19
-27.50
-21.62
-14.16
-5.95
2.21
9.72
16.21
21.44
25.27
27.60
28.49
28.13
26.82
24.95
22.85
20.74
18.76
16.98
15.44
14.19
13.28
12.74
12.59
12.81
13.33
14.03
14.73
15.20
15.20
14.60
13.37
11.69
9.81
7.95
6.23
4.55
2.76
0.66
-1.82
-4.61
-7.54
-10.37
-12.91
-15.03
-16.74
-18.09
-19.25
-20.45
-21.91
-23.83
-26.22
-28.87
-31.32
-32.93
-33.07
-31.27
-27.46
-21.97
-15.44
-8.60
-2.10
3.71
8.66
12.81
16.14
18.57
19.97
20.22
19.39
17.74
15.68
13.60
11.77
10.32
9.26
8.57
8.27
8.37
8.85
9.58
10.39
11.07
11.47
11.50
11.14
10.45
9.50
8.36
7.13
5.86
4.50
2.99
1.21
-0.84
-3.09
-5.40
-7.63
-9.73
-11.70
-13.58
-15.41
-17.22
-19.05
-20.99
-23.13
-25.46
-27.79
-29.65
-30.49
-29.75
-27.13
-22.66
-16.69
-9.78
-2.59
4.33
10.53
15.76
19.84
22.73
24.40
24.89
24.27
22.73
20.54
18.06
15.68
13.78
12.56
12.07
12.19
12.70
13.36
14.03
14.68
15.33
15.97
16.51
16.75
16.49
15.66
14.30
12.62
10.84
9.12
7.53
5.99
4.38
2.58
0.53
-1.76
-4.22
-6.70
-9.09
-11.24
-13.07
-14.54
-15.67
-16.53
-17.25
-17.99
-18.91
-20.23
-22.09
-24.53
-27.38
-30.23
-32.47
-33.40
-32.47
-29.43
-24.44
-17.96
-10.69
-3.36
3.40
9.09
13.44
16.35
17.87
18.18
17.53
16.20
14.45
12.47
10.41
8.39
6.48
4.77
3.39
2.45
2.03
2.07
2.40
2.71
2.72
2.21
1.08
-0.56
-2.58
-4.80
-7.11
-9.52
-12.04
-14.71
-17.53
-20.39
-23.20
-25.86
-28.38
-30.88
-33.53
-36.52
-39.88
-43.46
-46.84
-49.46
-50.73
-50.30
-48.17
-44.82
-41.07
-37.93
-36.27
-36.69
-39.30
-43.64
-48.72
-53.13
-55.33
-54.07
-48.74
-39.53
-27.36
-13.44
1.07
15.28
28.41
39.59
47.79
52.02
51.85
47.77
41.30
34.51
29.44
27.38
28.63
32.66
38.51
45.16
51.76
57.69
62.50
65.88
67.69
67.99
66.96
64.83
61.82
58.16
54.09
50.00
46.25
43.16
40.82
39.07
37.53
35.78
33.50
30.57
27.02
23.02
18.83
14.76
11.15
8.31
6.39
5.31
4.72
4.13
3.13
1.56
-0.45
-2.55
-4.38
-5.77
-6.79
-7.71
-8.77
-10.04
-11.34
-12.36
-12.78
-12.42
-11.29
-9.51
-7.23
-4.52
-1.42
2.00
5.62
9.16
12.31
14.75
16.27
16.88
16.73
16.08
15.20
14.30
13.47
12.69
11.93
11.16
10.45
9.92
9.71
9.92
10.51
11.34
12.16
12.74
12.90
12.59
11.85
10.78
9.44
7.89
6.17
4.33
2.48
0.76
-0.74
-1.97
-3.00
-3.96
-4.96
-6.06
-7.18
-8.22
-9.09
-9.79
-10.41
-11.09
-11.91
-12.89
-13.90
-14.82
-15.58
-16.23
-16.93
-17.82
-18.94
-20.15
-21.18
-21.75
-21.59
-20.53
-18.52
-15.56
-11.78
-7.41
-2.77
1.77
5.79
9.01
11.24
12.45
12.70
12.15
10.97
9.38
7.54
5.60
3.64
1.79
0.15
-1.09
-1.77
-1.82
-1.32
-0.47
0.47
1.28
1.83
2.13
2.21
2.11
1.87
1.52
1.06
0.56
0.04
-0.47
-1.00
-1.59
-2.30
-3.18
-4.21
-5.33
-6.41
-7.34
-8.05
-8.57
-8.98
-9.43
-9.99
-10.69
-11.45
-12.21
-12.95
-13.77
-14.75
-16.01
-17.53
-19.15
-20.63
-21.66
-21.92
-21.18
-19.34
-16.49
-12.87
-8.87
-4.90
-1.30
1.76
4.23
6.19
7.73
8.86
9.49
9.49
8.81
7.51
5.86
4.17
2.77
1.84
1.40
1.32
1.40
1.51
1.62
1.80
2.12
2.62
3.21
3.73
4.02
4.03
3.78
3.37
2.88
2.34
1.71
0.94
-0.03
-1.16
-2.40
-3.66
-4.88
-6.03
-7.14
-8.21
-9.18
-10.04
-10.75
-11.35
-11.90
-12.52
-13.29
-14.28
-15.47
-16.82
-18.20
-19.41
-20.14
-20.08
-18.94
-16.63
-13.30
-9.32
-5.10
-1.04
2.67
5.95
8.76
11.02
12.56
13.19
12.88
11.77
10.19
8.55
7.12
6.05
5.26
4.63
4.04
3.50
3.09
2.89
2.96
3.24
3.62
3.96
4.20
4.32
4.39
4.45
4.51
4.49
4.23
3.61
2.57
1.20
-0.31
-1.77
-3.06
-4.16
-5.12
-6.01
-6.85
-7.62
-8.32
-9.03
-9.81
-10.72
-11.75
-12.79
-13.75
-14.56
-15.22
-15.77
-16.16
-16.24
-15.77
-14.57
-12.52
-9.66
-6.14
-2.17
2.05
6.29
10.33
13.93
16.84
18.84
19.81
19.72
18.62
16.69
14.15
11.32
8.53
6.13
4.39
3.43
3.22
3.62
4.39
5.32
6.18
6.81
7.10
6.99
6.48
5.67
4.67
3.64
2.63
1.62
0.49
-0.87
-2.48
-4.26
-6.01
-7.56
-8.78
-9.72
-10.50
-11.28
-12.15
-13.12
-14.14
-15.15
-16.14
-17.12
-18.11
-19.06
-19.78
-20.02
-19.46
-17.91
-15.28
-11.69
-7.43
-2.87
1.60
5.73
9.32
12.29
14.57
16.09
16.77
16.61
15.72
14.31
12.63
10.91
9.29
7.83
6.60
5.66
5.10
4.96
5.16
5.55
5.96
6.29
6.51
6.64
6.68
6.57
6.24
5.57
4.54
3.19
1.63
-0.05
-1.72
-3.36
-4.95
-6.51
-8.08
-9.72
-11.47
-13.39
-15.50
-17.81
-20.26
-22.71
-24.85
-26.28
-26.56
-25.42
-22.79
-18.91
-14.22
-9.21
-4.34
0.10
3.92
7.02
9.34
10.83
11.50
11.43
10.75
9.60
8.15
6.55
4.93
3.40
2.06
0.94
0.10
-0.43
-0.60
-0.41
0.16
1.03
2.10
3.21
4.19
4.89
5.17
4.93
4.13
2.77
0.98
-1.10
-3.29
-5.46
-7.59
-9.69
-11.79
-13.92
-16.09
-18.33
-20.68
-23.16
-25.68
-27.97
-29.59
-30.00
-28.74
-25.62
-20.79
-14.77
-8.26
-1.95
3.64
8.25
11.81
14.39
16.04
16.79
16.66
15.73
14.18
12.26
10.27
8.41
6.81
5.50
4.54
4.01
4.04
4.74
6.04
7.66
9.19
10.18
10.38
9.79
8.70
7.45
6.37
5.54
4.83
3.98
2.76
1.02
-1.25
-3.90
-6.73
-9.52
-12.07
-14.33
-16.35
-18.31
-20.43
-22.90
-25.68
-28.52
-30.90
-32.21
-31.88
-29.62
-25.45
-19.71
-12.93
-5.72
1.35
7.81
13.31
17.63
20.64
22.35
22.93
22.65
21.86
20.89
19.98
19.22
18.60
18.07
17.60
17.30
17.34
17.91
19.10
20.79
22.69
24.39
25.58
26.01
25.71
24.77
23.38
21.65
19.64
17.37
14.89
12.28
9.68
7.27
5.14
3.31
1.72
0.21
-1.36
-3.07
-4.90
-6.77
-8.57
-10.24
-11.79
-13.31
-14.91
-16.65
-18.51
-20.45
-22.47
-24.60
-26.90
-29.26
-31.28
-32.35
-31.78
-29.07
-24.18
-17.52
-9.88
-2.14
4.99
11.04
15.81
19.25
21.39
22.28
22.04
20.86
19.06
16.95
14.85
13.02
11.60
10.69
10.28
10.34
10.80
11.59
12.63
13.83
15.11
16.36
17.47
18.32
18.82
18.85
18.38
17.39
15.96
14.23
12.37
10.55
8.94
7.60
6.51
5.61
4.76
3.86
2.85
1.73
0.57
-0.56
-1.56
-2.41
-3.13
-3.85
-4.70
-5.80
-7.20
-8.82
-10.53
-12.15
-13.53
-14.68
-15.76
-17.04
-18.79
-21.18
-24.13
-27.27
-30.04
-31.77
-31.89
-30.09
-26.37
-21.08
-14.78
-8.14
-1.76
3.89
8.51
11.94
14.15
15.18
15.14
14.21
12.61
10.62
8.54
6.65
5.25
4.51
4.54
5.28
6.58
8.27
10.18
12.14
13.99
15.54
16.57
16.94
16.58
15.65
14.37
12.99
11.63
10.27
8.81
7.15
5.33
3.47
1.77
0.32
-0.92
-2.15
-3.55
-5.21
-7.08
-8.95
-10.60
-11.88
-12.76
-13.35
-13.83
-14.41
-15.29
-16.63
-18.49
-20.81
-23.27
-25.36
-26.45
-25.93
-23.47
-19.08
-13.19
-6.46
0.38
6.69
12.09
16.37
19.51
21.55
22.54
22.52
21.59
19.89
17.66
15.23
12.92
11.05
9.82
9.34
9.61
10.52
11.90
13.56
15.27
16.85
18.07
18.78
18.86
18.29
17.19
15.77
14.31
13.00
11.90
10.85
9.59
7.89
5.68
3.12
0.54
-1.70
-3.40
-4.60
-5.54
-6.50
-7.70
-9.18
-10.83
-12.50
-14.06
-15.51
-16.92
-18.43
-20.14
-22.11
-24.37
-26.93
-29.74
-32.62
-35.21
-36.92
-37.10
-35.19
-31.03
-24.87
-17.40
-9.53
-2.08
4.39
9.63
13.63
16.49
18.32
19.17
19.14
18.33
16.90
15.07
13.10
11.26
9.77
8.80
8.44
8.66
9.39
10.51
11.91
13.47
15.05
16.50
17.65
18.35
18.56
18.30
17.72
16.96
16.15
15.33
14.48
13.51
12.35
10.98
9.46
7.91
6.48
5.30
4.42
3.82
3.38
2.95
2.35
1.45
0.15
-1.52
-3.44
-5.41
-7.26
-8.87
-10.23
-11.43
-12.54
-13.63
-14.67
-15.64
-16.44
-17.05
-17.46
-17.70
-17.87
-18.13
-18.68
-19.73
-21.30
-23.15
-24.74
-25.37
-24.40
-21.50
-16.79
-10.81
-4.30
2.01
7.63
12.34
16.08
18.87
20.64
21.31
20.87
19.46
17.37
14.98
12.58
10.37
8.43
6.83
5.69
5.16
5.36
6.24
7.56
8.98
10.16
10.93
11.27
11.29
11.12
10.81
10.33
9.55
8.40
6.85
4.99
2.96
0.93
-0.96
-2.66
-4.19
-5.64
-7.09
-8.56
-10.01
-11.40
-12.66
-13.85
-15.05
-16.34
-17.76
-19.25
-20.75
-22.28
-23.97
-25.95
-28.29
-30.78
-32.88
-33.87
-33.11
-30.26
-25.39
-18.98
-11.70
-4.26
2.80
9.06
14.27
18.28
21.04
22.53
22.86
22.16
20.61
18.51
16.21
14.09
12.46
11.48
11.13
11.26
11.70
12.32
13.07
13.90
14.75
15.52
16.05
16.23
16.04
15.57
14.90
14.10
13.16
12.06
10.76
9.24
7.54
5.70
3.79
1.91
0.16
-1.36
-2.63
-3.71
-4.74
-5.87
-7.22
-8.76
-10.35
-11.74
-12.78
-13.44
-13.81
-14.12
-14.60
-15.46
-16.83
-18.75
-21.22
-24.12
-27.13
-29.72
-31.24
-31.07
-28.84
-24.61
-18.82
-12.17
-5.41
0.88
6.38
10.94
14.51
17.10
18.68
19.28
18.97
17.94
16.39
14.58
12.73
10.99
9.47
8.19
7.20
6.55
6.31
6.50
7.11
8.06
9.15
10.19
10.98
11.39
11.38
10.97
10.17
9.02
7.59
6.00
4.39
2.93
1.72
0.76
-0.03
-0.81
-1.78
-3.04
-4.65
-6.49
-8.42
-10.26
-11.80
-12.92
-13.62
-14.02
-14.44
-15.26
-16.72
-18.86
-21.35
-23.59
-24.85
-24.57
-22.48
-18.66
-13.53
-7.60
-1.43
4.46
9.67
13.84
16.79
18.50
19.09
18.79
17.87
16.52
14.89
13.10
11.26
9.51
8.02
6.91
6.23
5.99
6.17
6.73
7.63
8.77
9.91
10.79
11.10
10.74
9.78
8.50
7.17
6.01
5.05
4.22
3.41
2.53
1.51
0.26
-1.30
-3.26
-5.57
-8.05
-10.45
-12.56
-14.31
-15.78
-17.13
-18.52
-20.06
-21.81
-23.85
-26.15
-28.54
-30.60
-31.71
-31.26
-28.84
-24.50
-18.68
-12.13
-5.60
0.33
5.36
9.46
12.73
15.27
17.15
18.29
18.61
18.06
16.73
14.83
12.68
10.57
8.79
7.47
6.70
6.50
6.86
7.73
9.01
10.51
12.06
13.47
14.60
15.33
15.59
15.33
14.57
13.38
11.93
10.36
8.77
7.13
5.37
3.41
1.25
-1.04
-3.34
-5.60
-7.80
-9.98
-12.13
-14.21
-16.06
-17.60
-18.86
-20.00
-21.29
-22.99
-25.18
-27.73
-30.21
-32.04
-32.59
-31.38
-28.16
-23.11
-16.68
-9.54
-2.38
4.25
9.96
14.53
17.86
19.90
20.70
20.42
19.32
17.74
16.00
14.32
12.81
11.49
10.38
9.53
9.05
9.06
9.61
10.65
12.00
13.43
14.66
15.52
15.89
15.79
15.30
14.53
13.59
12.55
11.43
10.19
8.78
7.16
5.33
3.41
1.58
-0.02
-1.35
-2.51
-3.74
-5.29
-7.27
-9.60
-11.99
-14.13
-15.79
-16.95
-17.78
-18.60
-19.72
-21.32
-23.38
-25.70
-27.90
-29.51
-30.01
-28.98
-26.18
-21.66
-15.77
-9.09
-2.30
3.97
9.32
13.58
16.75
18.90
20.10
20.37
19.74
18.29
16.20
13.73
11.13
8.65
6.46
4.66
3.35
2.63
2.59
3.27
4.58
6.33
8.24
10.02
11.43
12.25
12.40
11.90
10.85
9.41
7.73
5.91
4.03
2.12
0.18
-1.77
-3.74
-5.77
-7.88
-10.03
-12.15
-14.11
-15.87
-17.51
-19.25
-21.31
-23.75
-26.32
-28.49
-29.59
-29.08
-26.77
-22.83
-17.64
-11.71
-5.49
0.68
6.51
11.71
15.97
19.06
20.85
21.38
20.89
19.67
18.03
16.18
14.24
12.25
10.27
8.43
6.89
5.80
5.26
5.27
5.68
6.31
6.92
7.34
7.49
7.38
7.07
6.67
6.21
5.59
4.72
3.50
1.91
0.05
-1.92
-3.83
-5.59
-7.18
-8.70
-10.23
-11.95
-14.01
-16.49
-19.36
-22.37
-25.05
-26.80
-27.00
-25.32
-21.72
-16.54
-10.37
-3.84
2.45
8.06
12.73
16.32
18.80
20.19
20.58
20.12
18.95
17.28
15.28
13.11
10.92
8.84
7.00
5.53
4.59
4.24
4.55
5.38
6.53
7.70
8.61
9.10
9.11
8.66
7.83
6.70
5.34
3.82
2.24
0.70
-0.76
-2.19
-3.72
-5.46
-7.45
-9.60
-11.76
-13.78
-15.65
-17.49
-19.53
-21.89
-24.47
-26.88
-28.52
-28.79
-27.29
-23.94
-19.04
-13.11
-6.77
-0.61
4.95
9.64
13.28
15.82
17.26
17.73
17.42
16.55
15.36
13.97
12.43
10.75
8.99
7.28
5.83
4.83
4.41
4.51
4.99
5.62
6.25
6.79
7.24
7.63
7.88
7.88
7.46
6.50
4.99
2.99
0.67
-1.81
-4.31
-6.72
-8.94
-10.96
-12.85
-14.75
-16.83
-19.21
-21.83
-24.39
-26.40
-27.28
-26.57
-24.04
-19.78
-14.14
-7.65
-0.94
5.42
10.98
15.39
18.47
20.18
20.60
19.91
18.36
16.24
13.85
11.44
9.14
6.99
5.02
3.30
1.96
1.16
1.04
1.56
2.57
3.77
4.85
5.57
5.82
5.59
4.85
3.63
1.95
-0.12
-2.51
-5.09
-7.72
-10.33
-12.90
-15.47
-18.15
-21.05
-24.31
-27.95
-31.77
-35.34
-37.97
-38.90
-37.54
-33.74
-27.81
-20.44
-12.51
-4.75
2.33
8.45
13.49
17.36
19.99
21.36
21.56
20.78
19.31
17.41
15.27
13.05
10.89
8.97
7.48
6.63
6.52
7.13
8.28
9.76
11.31
12.73
13.89
14.71
15.12
15.04
14.40
13.16
11.32
9.00
6.34
3.49
0.56
-2.39
-5.35
-8.32
-11.30
-14.30
-17.36
-20.55
-23.87
-27.20
-30.20
-32.33
-33.01
-31.74
-28.28
-22.81
-15.81
-8.01
-0.17
7.08
13.29
18.18
21.65
23.71
24.45
24.03
22.68
20.66
18.26
15.77
13.50
11.62
10.25
9.34
8.76
8.32
7.94
7.61
7.41
7.41
7.55
7.70
7.60
7.10
6.13
4.78
3.16
1.40
-0.49
-2.53
-4.74
-7.10
-9.56
-12.12
-14.82
-17.76
-20.98
-24.41
-27.73
-30.46
-32.05
-32.00
-30.04
-26.16
-20.62
-13.87
-6.48
0.94
7.88
13.90
18.69
22.10
24.11
24.82
24.41
23.12
21.28
19.18
17.14
15.38
14.07
13.25
12.86
12.84
13.13
13.70
14.53
15.56
16.59
17.32
17.43
16.67
14.97
12.46
9.39
6.00
2.46
-1.17
-4.86
-8.56
-12.17
-15.56
-18.65
-21.45
-24.00
-26.36
-28.58
-30.65
-32.49
-33.94
-34.71
-34.45
-32.80
-29.57
-24.76
-18.62
-11.59
-4.20
3.05
9.72
15.47
20.04
23.25
25.05
25.51
24.83
23.31
21.29
19.04
16.77
14.60
12.63
10.99
9.86
9.41
9.76
10.84
12.41
14.10
15.55
16.53
16.94
16.83
16.25
15.31
14.04
12.48
10.64
8.48
5.95
2.93
-0.61
-4.62
-8.82
-12.86
-16.42
-19.37
-21.87
-24.26
-26.94
-30.09
-33.62
-37.06
-39.75
-40.95
-40.08
-36.82
-31.17
-23.43
-14.25
-4.47
4.99
13.30
19.92
24.67
27.70
29.31
29.84
29.49
28.37
26.51
24.02
21.15
18.28
15.80
14.04
13.16
13.12
13.72
14.72
15.90
17.08
18.18
19.04
19.48
19.29
18.33
16.60
14.32
11.75
9.18
6.75
4.44
2.12
-0.40
-3.18
-6.20
-9.33
-12.44
-15.40
-18.16
-20.72
-23.11
-25.39
-27.64
-30.04
-32.70
-35.69
-38.83
-41.64
-43.43
-43.41
-41.02
-36.05
-28.82
-19.96
-10.34
-0.80
8.01
15.61
21.72
26.14
28.79
29.71
29.06
27.15
24.39
21.27
18.20
15.56
13.59
12.42
12.08
12.43
13.33
14.56
15.96
17.36
18.70
19.84
20.62
20.86
20.33
18.96
16.83
14.17
11.26
8.28
5.28
2.22
-0.99
-4.34
-7.73
-11.01
-14.04
-16.80
-19.32
-21.67
-23.90
-26.05
-28.20
-30.43
-32.74
-34.98
-36.68
-37.17
-35.75
-31.98
-25.88
-17.95
-8.95
0.28
9.04
16.89
23.53
28.74
32.38
34.32
34.59
33.33
30.89
27.69
24.25
20.99
18.25
16.19
14.79
13.90
13.36
13.06
12.99
13.20
13.74
14.52
15.32
15.82
15.72
14.85
13.29
11.26
9.06
6.86
4.71
2.50
0.12
-2.50
-5.25
-8.00
-10.58
-12.94
-15.07
-17.02
-18.85
-20.58
-22.26
-24.03
-26.06
-28.45
-31.14
-33.77
-35.70
-36.16
-34.53
-30.51
-24.22
-16.22
-7.28
1.75
10.12
17.31
23.00
27.04
29.45
30.32
29.79
28.07
25.46
22.31
19.05
16.02
13.52
11.72
10.66
10.35
10.76
11.81
13.36
15.19
16.99
18.49
19.48
19.87
19.67
18.92
17.70
16.07
14.13
11.97
9.70
7.40
5.13
2.97
0.95
-0.91
-2.66
-4.39
-6.23
-8.27
-10.53
-12.88
-15.16
-17.21
-18.96
-20.48
-21.95
-23.60
-25.66
-28.22
-31.23
-34.41
-37.26
-39.12
-39.25
-37.07
-32.40
-25.49
-17.08
-8.13
0.43
7.93
14.05
18.78
22.20
24.38
25.31
24.99
23.50
21.11
18.20
15.15
12.23
9.66
7.54
6.07
5.39
5.65
6.85
8.78
11.08
13.28
14.95
15.81
15.72
14.71
12.94
10.68
8.21
5.77
3.47
1.32
-0.77
-2.87
-4.99
-7.10
-9.15
-11.13
-13.06
-14.99
-16.90
-18.74
-20.40
-21.81
-22.92
-23.76
-24.36
-24.77
-24.98
-24.97
-24.73
-24.25
-23.44
-22.20
-20.30
-17.51
-13.70
-8.88
-3.33
2.48
8.04
12.91
16.81
19.72
21.76
23.12
24.02
24.63
25.07
25.40
25.61
25.69
25.57
25.20
24.55
23.65
22.56
21.38
20.20
19.12
18.18
17.37
16.59
15.72
14.62
13.18
11.35
9.17
6.75
4.27
1.85
-0.42
-2.57
-4.69
-6.95
-9.43
-12.14
-14.96
-17.76
-20.38
-22.73
-24.80
-26.63
-28.34
-30.07
-32.02
-34.32
-36.95
-39.63
-41.75
-42.54
-41.31
-37.61
-31.50
-23.49
-14.39
-5.12
3.51
10.94
16.85
21.13
23.83
25.10
25.11
24.07
22.20
19.73
16.94
14.08
11.41
9.11
7.29
6.02
5.34
5.31
5.94
7.22
8.97
10.95
12.81
14.30
15.23
15.55
15.27
14.43
13.08
11.30
9.22
7.01
4.83
2.73
0.65
-1.55
-3.95
-6.53
-9.19
-11.72
-14.03
-16.09
-17.98
-19.78
-21.56
-23.36
-25.26
-27.34
-29.65
-32.04
-34.11
-35.17
-34.49
-31.49
-26.03
-18.45
-9.55
-0.32
8.32
15.74
21.69
26.21
29.49
31.63
32.66
32.52
31.29
29.19
26.70
24.34
22.50
21.33
20.67
20.31
20.04
19.93
20.23
21.27
23.39
26.68
30.98
35.67
39.61
41.25
39.01
31.84
19.73
3.82
-13.85
-30.88
-45.10
-54.93
-59.58
-58.97
-53.64
-44.74
-33.90
-23.00
-13.87
-7.89
-5.60
-6.66
-9.93
-13.77
-16.48
-16.73
-14.01
-8.84
-2.64
2.59
4.92
2.85
-4.17
-15.59
-29.63
-43.55
-54.28
-59.38
-57.81
-50.41
-39.46
-27.82
-17.83
-10.56
-5.84
-2.80
-0.56
1.28
2.76
3.82
4.57
5.35
6.56
8.38
10.72
13.26
15.66
17.66
19.20
20.39
21.41
22.42
23.52
24.75
26.11
27.62
29.30
31.20
33.35
35.71
38.19
40.71
43.31
46.23
49.84
54.57
60.60
67.79
75.66
83.60
91.08
97.97
104.50
111.12
118.26
126.15
134.90
144.51
154.94
165.81
176.21
184.66
189.64
190.24
186.70
180.25
172.36
163.69
153.59
140.24
121.72
97.00
66.48
31.74
-5.42
-43.84
-83.43
-124.72
-168.03
-212.45
-255.79
-295.07
-327.80
-352.76
-370.13
-380.51
-383.69
-377.89
-360.07
-327.58
-280.18
-221.31
-157.82
-98.02
-49.08
-14.85
4.79
13.07
14.45
12.96
11.09
9.81
9.21
9.27
10.22
12.47
16.11
20.48
24.35
26.35
25.60
22.19
17.05
11.52
6.74
3.18
0.61
-1.61
-4.07
-6.88
-9.49
-10.92
-10.13
-6.50
-0.08
8.33
17.48
26.01
32.81
37.29
39.37
39.44
38.06
35.79
32.99
29.81
26.22
22.19
17.76
13.09
8.52
4.48
1.36
-0.58
-1.24
-0.76
0.62
2.53
4.60
6.46
7.79
8.39
8.26
7.60
6.77
6.14
5.92
6.02
6.05
5.51
4.04
1.51
-1.86
-5.68
-9.52
-13.07
-16.11
-18.53
-20.27
-21.34
-21.84
-22.08
-22.45
-23.36
-25.03
-27.39
-30.03
-32.31
-33.52
-33.07
-30.61
-26.09
-19.84
-12.46
-4.73
2.58
8.82
13.64
16.97
19.02
20.10
20.58
20.78
20.92
21.13
21.43
21.72
21.84
21.65
21.09
20.22
19.22
18.25
17.44
16.74
16.09
15.40
14.64
13.83
13.00
12.15
11.15
9.90
8.24
6.16
3.73
1.08
-1.58
-4.10
-6.33
-8.27
-9.97
-11.69
-13.71
-16.27
-19.44
-23.02
-26.50
-29.11
-30.12
-28.95
-25.45
-19.89
-12.94
-5.46
1.75
8.06
13.14
16.82
19.06
19.83
19.20
17.33
14.54
11.31
8.05
5.13
2.78
1.10
0.17
0.02
0.65
1.93
3.66
5.49
7.12
8.30
8.91
8.91
8.37
7.37
6.00
4.34
2.44
0.32
-2.03
-4.63
-7.46
-10.42
-13.36
-16.10
-18.54
-20.71
-22.76
-24.94
-27.53
-30.63
-34.14
-37.64
-40.47
-41.86
-41.21
-38.26
-33.17
-26.55
-19.19
-11.84
-4.94
1.47
7.75
14.34
21.58
29.45
37.44
44.80
50.63
54.23
55.19
53.46
49.22
42.93
35.24
27.01
19.22
12.83
8.54
6.61
6.80
8.47
10.84
13.18
14.93
15.82
15.69
14.55
12.49
9.70
6.42
2.91
-0.63
-4.09
-7.37
-10.28
-12.59
-14.01
-14.47
-14.20
-13.78
-13.97
-15.43
-18.42
-22.81
-28.10
-33.62
-38.60
-42.29
-43.98
-43.05
-39.15
-32.37
-23.25
-12.77
-2.07
7.79
15.96
21.93
25.56
27.00
26.67
25.13
22.97
20.67
18.53
16.67
15.14
14.04
13.54
13.88
15.21
17.45
20.28
23.19
25.64
27.28
27.97
27.89
27.33
26.58
25.75
24.77
23.43
21.56
19.09
16.15
13.01
9.92
7.08
4.45
1.90
-0.80
-3.77
-7.00
-10.30
-13.43
-16.19
-18.47
-20.32
-21.93
-23.54
-25.38
-27.59
-30.08
-32.60
-34.67
-35.73
-35.25
-32.87
-28.52
-22.48
-15.29
-7.67
-0.30
6.27
11.67
15.69
18.29
19.47
19.33
18.03
15.90
13.36
10.86
8.83
7.55
7.13
7.49
8.43
9.70
11.05
12.29
13.34
14.21
14.97
15.73
16.52
17.30
17.89
18.05
17.57
16.29
14.26
11.65
8.69
5.58
2.47
-0.59
-3.56
-6.41
-9.02
-11.27
-13.04
-14.27
-15.02
-15.45
-15.77
-16.30
-17.36
-19.24
-22.07
-25.71
-29.66
-33.10
-35.08
-34.79
-31.84
-26.34
-18.90
-10.37
-1.68
6.45
13.54
19.32
23.68
26.52
27.83
27.63
26.10
23.58
20.53
17.43
14.66
12.43
10.78
9.62
8.86
8.50
8.60
9.24
10.39
11.90
13.45
14.77
15.65
16.08
16.12
15.88
15.39
14.53
13.14
11.12
8.51
5.58
2.68
0.19
-1.67
-2.89
-3.69
-4.43
-5.47
-7.05
-9.23
-11.83
-14.53
-17.06
-19.29
-21.29
-23.30
-25.61
-28.35
-31.42
-34.40
-36.65
-37.48
-36.32
-32.91
-27.39
-20.24
-12.25
-4.25
2.98
8.87
13.05
15.40
15.97
15.03
13.01
10.43
7.85
5.78
4.51
4.16
4.67
5.84
7.41
9.10
10.68
12.06
13.24
14.32
15.35
16.27
16.90
16.97
16.33
15.02
13.28
11.55
10.22
9.48
9.23
9.11
8.62
7.37
5.28
2.60
-0.09
-2.18
-3.24
-3.19
-2.31
-1.02
0.28
1.42
2.43
3.43
4.47
5.41
6.02
6.01
5.17
3.39
0.59
-3.22
-7.86
-12.94
-17.78
-21.51
-23.30
-22.63
-19.43
-14.14
-7.51
-0.36
6.60
12.89
18.22
22.38
25.24
26.72
26.87
25.86
23.96
21.50
18.69
15.67
12.41
8.87
5.05
1.14
-2.53
-5.57
-7.64
-8.61
-8.62
-8.03
-7.22
-6.39
-5.50
-4.27
-2.47
-0.05
2.64
5.01
6.43
6.49
5.20
3.00
0.52
-1.61
-3.02
-3.68
-3.86
-3.97
-4.43
-5.50
-7.19
-9.26
-11.33
-13.07
-14.30
-15.12
-15.79
-16.65
-18.01
-20.05
-22.71
-25.80
-28.91
-31.52
-33.08
-33.06
-31.11
-27.13
-21.37
-14.42
-6.99
0.17
6.49
11.62
15.45
18.03
19.50
20.01
19.67
18.54
16.66
14.11
11.01
7.68
4.56
2.15
0.86
0.85
1.96
3.78
5.85
7.82
9.52
10.94
12.07
12.79
12.94
12.38
11.10
9.29
7.23
5.18
3.32
1.62
-0.02
-1.79
-3.80
-6.04
-8.40
-10.68
-12.71
-14.41
-15.82
-17.08
-18.37
-19.84
-21.59
-23.65
-25.98
-28.39
-30.52
-31.77
-31.40
-28.81
-23.70
-16.28
-7.22
2.56
12.13
20.79
28.10
33.87
38.05
40.66
41.73
41.35
39.60
36.63
32.57
27.61
22.03
16.29
10.95
6.62
3.73
2.46
2.67
3.99
5.97
8.19
10.32
12.13
13.45
14.15
14.17
13.59
12.53
11.23
9.88
8.62
7.43
6.22
4.82
3.10
0.98
-1.54
-4.38
-7.44
-10.62
-13.80
-16.83
-19.59
-21.96
-23.97
-25.82
-27.80
-30.20
-33.11
-36.20
-38.78
-40.00
-39.08
-35.65
-29.86
-22.30
-13.83
-5.26
2.70
9.61
15.16
19.29
22.03
23.54
24.06
23.82
22.99
21.66
19.89
17.73
15.36
13.07
11.19
10.06
9.82
10.40
11.51
12.77
13.80
14.34
14.34
13.93
13.38
12.96
12.82
12.92
13.04
12.88
12.16
10.78
8.81
6.48
4.02
1.62
-0.66
-2.82
-4.87
-6.82
-8.65
-10.35
-11.92
-13.37
-14.70
-15.87
-16.93
-17.96
-19.13
-20.67
-22.72
-25.27
-28.03
-30.41
-31.67
-31.12
-28.34
-23.35
-16.59
-8.85
-0.95
6.36
12.62
17.59
21.21
23.50
24.57
24.56
23.68
22.15
20.21
17.99
15.62
13.20
10.87
8.86
7.37
6.56
6.47
6.96
7.81
8.76
9.58
10.14
10.39
10.36
10.08
9.59
8.90
7.96
6.75
5.21
3.34
1.19
-1.13
-3.47
-5.71
-7.76
-9.62
-11.29
-12.83
-14.26
-15.57
-16.72
-17.65
-18.33
-18.76
-19.04
-19.32
-19.83
-20.76
-22.23
-24.19
-26.39
-28.33
-29.39
-28.95
-26.58
-22.24
-16.28
-9.39
-2.38
4.07
9.52
13.84
17.07
19.32
20.66
21.10
20.62
19.28
17.22
14.73
12.16
9.81
7.86
6.37
5.28
4.51
4.01
3.78
3.89
4.37
5.13
5.97
6.61
6.80
6.41
5.45
4.12
2.62
1.09
-0.49
-2.27
-4.42
-7.03
-9.93
-12.86
-15.47
-17.59
-19.26
-20.74
-22.37
-24.38
-26.83
-29.54
-32.20
-34.31
-35.28
-34.39
-31.01
-24.77
-15.88
-5.22
5.80
15.59
22.91
27.19
28.59
27.84
25.87
23.50
21.25
19.36
17.82
16.50
15.26
14.01
12.78
11.74
11.13
11.17
11.92
13.28
14.98
16.69
18.10
18.97
19.17
18.69
17.58
15.96
14.01
11.84
9.63
7.42
5.27
3.18
1.13
-0.91
-3.06
-5.46
-8.21
-11.29
-14.53
-17.62
-20.28
-22.34
-23.85
-25.04
-26.23
-27.72
-29.69
-32.21
-35.11
-38.06
-40.52
-41.84
-41.37
-38.68
-33.73
-26.90
-18.88
-10.49
-2.45
4.75
10.86
15.79
19.52
22.06
23.47
23.79
23.19
21.86
20.01
17.88
15.71
13.70
12.06
10.93
10.42
10.58
11.40
12.72
14.31
15.84
17.00
17.55
17.41
16.67
15.54
14.24
12.98
11.83
10.78
9.74
8.59
7.26
5.67
3.78
1.55
-1.01
-3.79
-6.67
-9.46
-12.01
-14.21
-16.03
-17.55
-18.83
-19.98
-21.12
-22.46
-24.16
-26.31
-28.76
-31.04
-32.45
-32.22
-29.83
-25.18
-18.68
-11.08
-3.24
4.15
10.68
16.17
20.59
23.90
25.99
26.77
26.27
24.70
22.40
19.84
17.38
15.25
13.55
12.28
11.42
11.02
11.09
11.66
12.66
13.96
15.34
16.60
17.57
18.15
18.28
17.97
17.26
16.23
15.01
13.74
12.51
11.35
10.18
8.87
7.29
5.39
3.29
1.19
-0.71
-2.28
-3.54
-4.60
-5.59
-6.61
-7.71
-8.85
-9.98
-10.98
-11.76
-12.25
-12.50
-12.76
-13.41
-14.89
-17.43
-20.80
-24.23
-26.61
-26.84
-24.28
-19.04
-11.76
-3.32
5.64
14.87
24.17
32.76
39.15
41.57
38.76
30.52
17.60
1.07
-18.33
-40.14
-63.49
-86.32
-105.40
-117.30
-119.97
-114.02
-102.66
-90.35
-80.92
-76.14
-75.56
-77.24
-78.78
-78.01
-73.22
-63.14
-47.12
-25.38
0.87
29.58
58.21
84.37
106.40
123.50
135.79
144.01
149.20
152.44
154.50
155.70
155.79
154.16
150.11
143.27
133.98
123.33
112.93
104.42
98.76
95.79
94.08
91.11
83.86
69.49
46.20
13.95
-25.02
-66.08
-103.04
-129.66
-141.50
-137.39
-119.84
-94.02
-65.94
-40.63
-21.03
-8.12
-1.61
-0.61
-4.03
-10.40
-17.76
-23.97
-27.27
-26.95
-23.47
-18.13
-12.42
-7.38
-3.52
-0.84
0.83
1.75
2.19
2.50
2.94
3.58
4.09
3.94
2.61
-0.16
-4.15
-8.81
-13.48
-17.78
-21.71
-25.65
-30.00
-35.00
-40.57
-46.52
-52.88
-59.94
-68.07
-77.18
-86.29
-93.52
-96.57
-93.58
-83.78
-67.71
-47.03
-24.06
-1.36
18.49
33.08
40.55
40.13
32.57
20.17
6.13
-6.45
-15.65
-21.09
-23.63
-24.52
-24.60
-23.92
-21.90
-17.90
-11.65
-3.35
6.59
17.88
30.36
43.84
57.63
70.39
80.34
85.82
85.96
80.91
71.82
60.28
47.81
35.51
24.06
13.85
5.19
-1.68
-6.62
-9.75
-11.40
-12.01
-11.98
-11.61
-11.14
-10.85
-11.13
-12.38
-14.73
-17.85
-21.00
-23.22
-23.77
-22.49
-19.80
-16.42
-12.96
-9.66
-6.38
-2.92
0.74
4.24
7.02
8.55
8.62
7.30
4.91
1.79
-1.81
-5.59
-9.23
-12.35
-14.69
-16.22
-17.14
-17.74
-18.17
-18.22
-17.48
-15.47
-11.97
-7.23
-1.86
3.38
7.84
11.16
13.35
14.64
15.39
15.86
16.16
16.18
15.67
14.36
12.05
8.75
4.67
0.31
-3.66
-6.48
-7.54
-6.69
-4.28
-1.16
1.62
3.18
3.08
1.49
-0.99
-3.51
-5.32
-5.90
-5.06
-2.85
0.47
4.54
8.95
13.24
17.01
19.82
21.38
21.54
20.44
18.45
16.11
13.90
12.10
10.71
9.55
8.41
7.19
5.99
5.01
4.48
4.52
5.07
5.92
6.82
7.52
7.83
7.71
7.21
6.46
5.63
4.86
4.19
3.59
2.94
2.09
0.99
-0.31
-1.67
-2.99
-4.26
-5.55
-7.02
-8.75
-10.71
-12.74
-14.63
-16.24
-17.51
-18.51
-19.40
-20.37
-21.67
-23.47
-25.79
-28.37
-30.64
-31.90
-31.45
-28.94
-24.46
-18.53
-11.89
-5.20
1.05
6.61
11.31
14.94
17.27
18.17
17.74
16.35
14.55
12.84
11.53
10.70
10.29
10.27
10.69
11.72
13.52
16.12
19.29
22.66
25.69
27.92
29.10
29.29
28.83
28.23
27.96
28.23
28.92
29.66
30.08
29.98
29.45
28.82
28.40
28.31
28.47
28.70
28.91
29.11
29.22
28.94
27.65
24.69
19.80
13.50
7.05
1.96
-0.71
-0.85
0.62
2.24
2.75
1.56
-1.27
-5.40
-10.73
-17.29
-24.94
-32.75
-38.93
-41.29
-38.28
-29.88
-17.89
-5.31
4.83
10.66
11.87
9.43
4.60
-1.90
-10.31
-21.37
-35.58
-52.53
-70.62
-87.34
-99.97
-106.47
-106.25
-100.54
-91.96
-83.64
-78.03
-75.95
-76.38
-77.19
-76.26
-72.48
-66.19
-58.75
-51.62
-45.68
-40.95
-36.94
-33.18
-29.56
-26.35
-23.86
-22.15
-20.91
-19.56
-17.46
-14.19
-9.67
-4.28
1.23
5.90
8.95
10.05
9.45
7.84
5.94
4.22
2.68
1.14
-0.47
-1.82
-2.18
-0.77
2.81
8.27
14.78
21.30
27.06
31.74
35.50
38.59
41.09
42.76
43.25
42.24
39.78
36.17
31.95
27.60
23.47
19.70
16.35
13.48
11.19
9.62
8.86
8.88
9.48
10.37
11.18
11.63
11.55
10.95
9.97
8.79
7.53
6.17
4.52
2.40
-0.27
-3.35
-6.50
-9.33
-11.62
-13.44
-15.12
-17.09
-19.65
-22.78
-26.15
-29.25
-31.53
-32.51
-31.87
-29.40
-25.00
-18.80
-11.10
-2.48
6.35
14.70
22.01
27.98
32.49
35.57
37.26
37.62
36.75
34.80
31.94
28.46
24.65
20.83
17.32
14.43
12.41
11.39
11.40
12.28
13.75
15.43
16.94
17.93
18.11
17.36
15.69
13.24
10.22
6.87
3.40
-0.01
-3.22
-6.16
-8.85
-11.42
-14.09
-17.10
-20.54
-24.28
-27.84
-30.55
-31.68
-30.65
-27.20
-21.44
-13.90
-5.37
3.20
10.92
17.21
21.81
24.85
26.62
27.43
27.49
26.83
25.45
23.42
20.90
18.16
15.51
13.19
11.37
10.12
9.42
9.19
9.25
9.51
9.92
10.48
11.16
11.78
12.02
11.49
9.89
7.22
3.79
0.09
-3.40
-6.41
-8.96
-11.24
-13.59
-16.26
-19.42
-23.12
-27.27
-31.68
-35.94
-39.36
-41.13
-40.38
-36.57
-29.67
-20.28
-9.49
1.43
11.39
19.71
26.16
30.84
33.96
35.68
36.11
35.30
33.36
30.50
27.07
23.46
20.08
17.28
15.24
14.00
13.46
13.44
13.76
14.27
14.88
15.50
16.02
16.29
16.11
15.30
13.76
11.50
8.66
5.46
2.11
-1.22
-4.49
-7.73
-10.99
-14.34
-17.81
-21.45
-25.36
-29.63
-34.32
-39.25
-43.93
-47.55
-49.16
-47.96
-43.57
-36.14
-26.36
-15.25
-3.89
6.83
16.27
24.13
30.27
34.73
37.57
38.90
38.88
37.73
35.67
32.97
29.89
26.71
23.73
21.23
19.45
18.56
18.53
19.21
20.31
21.48
22.44
23.03
23.17
22.90
22.25
21.23
19.83
18.08
16.03
13.74
11.29
8.68
5.83
2.64
-0.96
-4.91
-9.05
-13.16
-17.06
-20.67
-24.06
-27.30
-30.49
-33.66
-36.83
-40.05
-43.33
-46.55
-49.30
-50.89
-50.44
-47.19
-40.85
-31.73
-20.73
-9.05
2.16
12.09
20.40
27.08
32.23
35.89
38.00
38.49
37.49
35.33
32.52
29.59
26.90
24.60
22.65
21.04
19.81
19.14
19.26
20.30
22.14
24.44
26.69
28.36
29.12
28.84
27.64
25.81
23.66
21.44
19.24
17.04
14.70
12.10
9.19
6.03
2.77
-0.42
-3.41
-6.13
-8.62
-10.98
-13.29
-15.62
-17.97
-20.24
-22.32
-24.09
-25.50
-26.63
-27.72
-29.11
-31.13
-33.95
-37.39
-40.84
-43.40
-44.09
-42.15
-37.33
-29.91
-20.65
-10.49
-0.35
9.05
17.22
23.87
28.86
32.13
33.76
34.00
33.17
31.61
29.58
27.28
24.83
22.40
20.17
18.38
17.25
16.90
17.31
18.30
19.62
21.02
22.33
23.38
24.10
24.34
23.99
22.94
21.23
19.01
16.58
14.25
12.21
10.49
8.93
7.33
5.52
3.44
1.20
-1.04
-3.06
-4.77
-6.14
-7.25
-8.23
-9.19
-10.21
-11.36
-12.67
-14.13
-15.72
-17.39
-19.06
-20.71
-22.35
-24.12
-26.22
-28.82
-31.92
-35.24
-38.18
-39.93
-39.69
-36.90
-31.53
-24.02
-15.22
-6.14
2.28
9.46
15.09
19.21
22.02
23.74
24.53
24.46
23.58
22.00
19.89
17.58
15.41
13.62
12.35
11.63
11.39
11.56
12.09
12.94
14.02
15.19
16.27
17.06
17.41
17.23
16.53
15.43
14.08
12.66
11.35
10.21
9.16
8.07
6.76
5.14
3.29
1.37
-0.45
-2.10
-3.62
-5.07
-6.48
-7.78
-8.87
-9.73
-10.47
-11.29
-12.39
-13.82
-15.42
-16.95
-18.17
-19.08
-19.85
-20.78
-22.18
-24.16
-26.63
-29.25
-31.52
-32.80
-32.52
-30.30
-26.14
-20.41
-13.78
-6.98
-0.58
5.07
9.85
13.75
16.73
18.73
19.73
19.82
19.16
17.96
16.38
14.52
12.43
10.23
8.12
6.42
5.39
5.19
5.74
6.79
7.97
8.96
9.59
9.83
9.77
9.48
9.02
8.42
7.67
6.85
6.03
5.31
4.65
3.96
3.03
1.72
-0.00
-1.97
-3.91
-5.53
-6.66
-7.28
-7.59
-7.85
-8.33
-9.18
-10.38
-11.75
-13.06
-14.11
-14.84
-15.36
-15.86
-16.55
-17.58
-18.94
-20.51
-22.10
-23.43
-24.18
-24.01
-22.64
-19.94
-15.99
-11.12
-5.86
-0.71
3.90
7.71
10.62
12.65
13.84
14.27
14.04
13.26
12.08
10.66
9.14
7.66
6.35
5.33
4.65
4.35
4.41
4.74
5.23
5.78
6.28
6.65
6.86
6.89
6.71
6.29
5.64
4.74
3.65
2.46
1.24
0.04
-1.12
-2.24
-3.33
-4.35
-5.31
-6.21
-7.12
-8.10
-9.16
-10.21
-11.16
-11.91
-12.45
-12.87
-13.32
-13.95
-14.87
-16.01
-17.20
-18.10
-18.35
-17.57
-15.58
-12.44
-8.44
-4.10
0.08
3.68
6.53
8.62
10.05
10.92
11.30
11.20
10.66
9.79
8.70
7.50
6.25
4.98
3.75
2.67
1.92
1.62
1.79
2.31
2.94
3.50
3.88
4.07
4.10
3.98
3.65
3.07
2.23
1.22
0.18
-0.74
-1.52
-2.26
-3.09
-4.14
-5.41
-6.79
-8.13
-9.25
-10.09
-10.72
-11.30
-12.08
-13.27
-14.95
-17.07
-19.43
-21.75
-23.66
-24.83
-24.94
-23.77
-21.30
-17.66
-13.22
-8.42
-3.74
0.50
4.15
7.22
9.78
11.82
13.26
13.95
13.85
13.05
11.77
10.26
8.76
7.37
6.16
5.13
4.36
3.92
3.89
4.27
4.92
5.63
6.15
6.28
5.97
5.27
4.41
3.61
3.04
2.72
2.50
2.16
1.47
0.32
-1.22
-2.99
-4.77
-6.38
-7.76
-8.96
-10.04
-11.10
-12.20
-13.44
-14.91
-16.69
-18.78
-21.01
-23.01
-24.27
-24.34
-22.94
-20.11
-16.16
-11.52
-6.63
-1.89
2.44
6.15
9.09
11.15
12.34
12.75
12.57
12.00
11.20
10.24
9.12
7.87
6.55
5.29
4.25
3.56
3.30
3.45
3.94
4.67
5.55
6.43
7.18
7.65
7.72
7.36
6.64
5.67
4.63
3.64
2.73
1.85
0.86
-0.39
-1.95
-3.79
-5.80
-7.80
-9.67
-11.36
-12.89
-14.35
-15.82
-17.37
-19.03
-20.81
-22.61
-24.19
-25.17
-25.10
-23.64
-20.69
-16.47
-11.46
-6.21
-1.22
3.18
6.82
9.66
11.69
12.95
13.48
13.36
12.71
11.65
10.33
8.90
7.52
6.32
5.44
4.94
4.83
5.10
5.72
6.61
7.73
8.94
10.12
11.09
11.69
11.83
11.46
10.57
9.19
7.42
5.40
3.26
1.18
-0.75
-2.51
-4.18
-5.86
-7.57
-9.28
-10.91
-12.36
-13.62
-14.78
-15.95
-17.25
-18.72
-20.31
-21.82
-22.98
-23.42
-22.83
-21.01
-17.97
-13.95
-9.35
-4.66
-0.26
3.61
6.88
9.58
11.72
13.29
14.23
14.47
14.02
13.01
11.65
10.19
8.82
7.66
6.77
6.15
5.84
5.89
6.34
7.14
8.15
9.16
9.89
10.16
9.94
9.30
8.46
7.55
6.65
5.68
4.54
3.12
1.43
-0.38
-2.19
-3.89
-5.50
-7.04
-8.53
-9.94
-11.21
-12.34
-13.49
-14.89
-16.72
-18.91
-21.10
-22.71
-23.15
-22.06
-19.36
-15.34
-10.45
-5.17
0.09
5.02
9.44
13.20
16.18
18.27
19.42
19.64
19.02
17.78
16.13
14.29
12.42
10.64
9.05
7.76
6.87
6.48
6.64
7.29
8.31
9.47
10.53
11.27
11.50
11.15
10.24
8.86
7.23
5.51
3.87
2.39
1.10
-0.07
-1.20
-2.43
-3.89
-5.66
-7.76
-10.04
-12.27
-14.22
-15.78
-16.99
-18.05
-19.26
-20.84
-22.88
-25.19
-27.40
-28.98
-29.38
-28.17
-25.17
-20.48
-14.52
-7.91
-1.36
4.55
9.47
13.32
16.16
18.10
19.23
19.60
19.29
18.40
17.14
15.78
14.54
13.57
12.90
12.53
12.45
12.64
13.13
13.92
14.97
16.16
17.27
18.07
18.36
18.08
17.28
16.08
14.64
13.07
11.44
9.81
8.20
6.64
5.10
3.46
1.67
-0.30
-2.40
-4.46
-6.33
-7.97
-9.43
-10.82
-12.27
-13.83
-15.48
-17.18
-18.92
-20.73
-22.71
-24.94
-27.35
-29.71
-31.59
-32.40
-31.59
-28.81
-24.10
-17.89
-10.87
-3.82
2.65
8.15
12.50
15.66
17.61
18.31
17.81
16.26
13.92
11.16
8.36
5.84
3.82
2.45
1.85
2.11
3.20
4.97
7.06
9.04
10.47
11.10
10.97
10.40
9.85
9.75
10.33
11.57
13.26
15.11
16.83
18.23
19.19
19.70
19.75
19.43
18.85
18.14
17.36
16.50
15.51
14.35
13.01
11.53
9.99
8.40
6.76
5.09
3.43
1.89
0.53
-0.66
-1.80
-3.07
-4.59
-6.39
-8.34
-10.30
-12.17
-13.91
-15.54
-17.01
-18.29
-19.41
-20.51
-21.88
-23.83
-26.48
-29.59
-32.57
-34.60
-34.95
-33.17
-29.29
-23.68
-16.97
-9.83
-2.84
3.55
9.03
13.42
16.64
18.68
19.66
19.74
19.10
17.93
16.41
14.69
12.98
11.43
10.22
9.52
9.39
9.89
10.96
12.51
14.32
16.10
17.56
18.42
18.55
18.00
16.98
15.80
14.69
13.75
12.91
11.99
10.81
9.30
7.47
5.42
3.25
1.10
-0.99
-2.89
-4.51
-5.79
-6.72
-7.42
-8.06
-8.83
-9.84
-11.08
-12.45
-13.80
-15.04
-16.19
-17.37
-18.77
-20.53
-22.66
-24.94
-26.97
-28.24
-28.26
-26.67
-23.37
-18.53
-12.54
-5.96
0.64
6.74
11.95
16.03
18.91
20.65
21.33
21.10
20.09
18.45
16.38
14.16
12.07
10.36
9.21
8.65
8.65
9.10
9.91
11.00
12.27
13.53
14.56
15.12
15.07
14.38
13.20
11.78
10.35
9.05
7.91
6.80
5.62
4.26
2.70
0.97
-0.83
-2.60
-4.26
-5.76
-7.11
-8.37
-9.63
-10.98
-12.47
-14.08
-15.75
-17.40
-19.01
-20.61
-22.29
-24.13
-26.26
-28.71
-31.46
-34.29
-36.72
-38.15
-37.91
-35.56
-31.00
-24.57
-16.92
-8.86
-1.09
5.89
11.79
16.51
20.03
22.37
23.60
23.84
23.21
21.89
20.08
18.00
15.86
13.88
12.24
11.10
10.57
10.71
11.51
12.85
14.52
16.25
17.71
18.64
18.87
18.38
17.31
15.86
14.28
12.72
11.31
10.03
8.80
7.51
6.08
4.44
2.58
0.53
-1.60
-3.70
-5.63
-7.29
-8.65
-9.78
-10.78
-11.75
-12.78
-13.92
-15.16
-16.53
-18.02
-19.72
-21.72
-24.12
-26.97
-30.15
-33.34
-35.96
-37.33
-36.85
-34.15
-29.30
-22.72
-15.10
-7.15
0.50
7.42
13.33
18.03
21.41
23.43
24.22
24.00
23.08
21.74
20.17
18.47
16.69
14.96
13.45
12.35
11.77
11.69
12.04
12.68
13.53
14.52
15.55
16.51
17.22
17.51
17.30
16.62
15.58
14.33
13.01
11.69
10.39
9.02
7.50
5.76
3.79
1.72
-0.29
-2.08
-3.64
-5.08
-6.60
-8.35
-10.34
-12.38
-14.27
-15.85
-17.07
-18.02
-18.89
-19.83
-20.98
-22.43
-24.26
-26.43
-28.78
-30.96
-32.45
-32.66
-31.11
-27.58
-22.19
-15.39
-7.85
-0.32
6.52
12.12
16.16
18.54
19.37
18.95
17.68
15.99
14.17
12.40
10.66
8.94
7.25
5.71
4.52
3.91
3.97
4.70
5.97
7.55
9.24
10.80
12.04
12.83
13.10
12.86
12.21
11.28
10.15
8.87
7.40
5.74
3.86
1.78
-0.49
-2.91
-5.43
-7.96
-10.39
-12.65
-14.70
-16.54
