1680093419.00
64.000000
-0.00
-0.00
-0.00
-0.00
-0.00
-0.00
-0.00
-0.00
-0.00
-0.00
0.00
0.01
0.01
-0.00
-0.03
-0.05
-0.05
0.00
0.13
0.36
0.66
1.01
1.37
1.72
2.06
2.40
2.79
3.24
3.80
4.42
5.06
5.66
6.20
6.68
7.15
7.68
8.31
9.14
10.09
11.04
11.88
12.56
13.14
13.76
14.65
15.96
17.91
20.32
22.90
25.38
27.58
29.57
31.68
34.32
37.81
42.54
48.15
54.10
59.83
64.97
69.58
74.14
79.34
85.71
93.76
103.00
112.62
121.73
129.77
136.75
143.30
150.75
157.77
166.64
177.95
191.79
206.97
220.57
228.25
225.36
208.53
176.87
132.76
80.05
23.07
-34.94
-92.44
-149.16
-205.23
-260.37
-313.74
-363.87
-409.83
-450.90
-486.49
-515.71
-537.18
-549.15
-549.86
-538.23
-514.03
-478.45
-433.61
-382.12
-326.63
-269.39
-212.12
-156.08
-102.30
-51.65
-5.11
36.45
72.38
102.40
126.64
145.63
160.05
170.64
178.00
182.53
184.53
184.22
181.87
177.84
172.52
166.34
159.64
152.66
145.55
138.38
131.19
124.03
116.97
110.07
103.40
97.01
90.95
85.22
79.84
74.81
70.15
65.87
61.97
58.46
55.32
52.56
50.19
48.19
46.57
45.32
44.40
43.77
43.38
43.09
42.79
42.30
41.45
40.08
38.03
35.21
31.58
27.17
22.04
16.35
10.32
4.20
-1.76
-7.30
-12.21
-16.33
-19.55
-21.86
-23.26
-23.84
-23.72
-23.05
-21.95
-20.55
-18.95
-17.19
-15.30
-13.26
-11.06
-8.71
-6.16
-3.42
-0.48
2.65
5.94
9.36
12.88
16.40
19.86
23.20
26.40
29.44
32.36
35.19
37.97
40.80
43.61
46.39
49.18
52.01
54.95
58.07
61.49
65.30
69.65
74.43
79.57
85.03
90.76
96.72
102.89
109.23
115.74
122.42
128.97
135.15
140.72
145.43
149.01
151.08
151.12
148.44
144.38
139.37
133.73
127.65
121.26
114.68
108.01
101.37
94.87
88.68
82.63
76.65
70.72
64.84
59.04
53.37
47.90
42.72
37.97
33.53
29.36
25.45
21.78
18.38
15.26
12.44
9.96
7.88
6.07
4.49
3.09
1.85
0.74
-0.23
-1.09
-1.83
-2.45
-3.04
-3.63
-4.29
-5.04
-5.92
-6.98
-8.22
-9.64
-11.20
-12.84
-14.48
-15.98
-17.24
-18.18
-18.74
-18.91
-18.72
-18.23
-17.52
-16.65
-15.70
-14.73
-13.81
-13.01
-12.40
-12.08
-12.09
-12.49
-13.24
-14.32
-15.64
-17.19
-18.99
-21.16
-23.83
-27.12
-31.05
-35.55
-40.45
-45.60
-50.95
-56.60
-62.83
-70.00
-78.45
-88.38
-99.77
-112.36
-125.83
-139.84
-154.25
-169.16
-184.89
-201.94
-220.61
-241.02
-262.93
-285.77
-308.95
-332.05
-355.21
-379.22
-405.38
-435.25
-469.90
-508.80
-549.12
-585.35
-610.31
-617.10
-601.73
-564.81
-511.77
-451.21
-392.76
-344.89
-313.78
-302.66
-311.54
-336.84
-371.69
-407.00
-433.81
-445.95
-441.65
-423.44
-395.95
-363.33
-327.73
-289.24
-247.12
-201.41
-153.58
-105.96
-60.50
-18.19
21.03
57.64
91.42
121.53
146.45
164.55
175.05
178.66
177.54
174.77
173.26
174.36
178.01
182.67
185.92
185.85
181.98
175.46
168.71
164.62
165.64
174.43
193.45
223.85
264.93
313.26
362.76
406.50
442.08
467.80
485.35
499.11
513.21
529.16
544.92
556.30
560.00
555.14
542.55
523.93
502.35
476.80
445.50
407.93
365.35
320.68
277.27
236.88
199.54
163.40
125.13
81.84
33.87
-16.91
-67.52
-115.08
-158.23
-197.17
-233.50
-270.04
-309.58
-354.17
-404.50
-458.71
-511.72
-556.00
-583.19
-586.92
-565.39
-521.82
-463.26
-398.33
-334.33
-275.93
-225.24
-182.62
-147.63
-119.37
-96.27
-76.15
-56.82
-36.78
-15.65
5.75
25.77
42.27
52.85
55.42
48.99
34.47
15.31
-3.03
-14.71
-15.61
-4.78
15.43
40.77
66.95
91.21
112.79
132.34
150.93
169.37
188.09
207.60
228.80
252.77
279.79
308.44
335.24
355.12
363.02
355.74
333.29
298.99
258.38
217.34
180.36
149.80
125.99
108.03
94.69
84.88
77.65
72.01
66.81
60.95
53.70
44.78
34.51
23.49
12.40
1.66
-8.72
-19.26
-30.92
-44.51
-59.91
-75.18
-86.57
-89.52
-80.60
-59.27
-28.91
4.08
32.61
51.48
58.94
56.64
48.15
37.16
26.58
18.48
14.60
16.75
26.23
42.93
64.55
86.71
104.06
111.97
108.10
93.11
70.24
44.05
18.92
-2.11
-17.90
-28.71
-35.60
-39.55
-41.23
-41.06
-39.46
-36.98
-34.23
-31.55
-28.87
-25.88
-22.44
-18.79
-15.45
-12.91
-11.25
-10.26
-9.67
-9.45
-9.69
-10.26
-10.47
-9.28
-5.87
-0.14
6.89
13.46
17.67
18.12
14.57
8.09
0.81
-4.76
-6.59
-4.03
1.86
8.72
14.09
16.75
17.20
17.04
17.72
19.15
19.57
16.74
9.59
-0.74
-11.15
-18.13
-19.57
-15.50
-7.88
0.73
8.48
14.82
20.17
25.35
31.18
38.37
47.68
59.56
73.47
87.01
95.69
94.01
77.80
46.91
6.63
-33.13
-61.42
-70.81
-60.76
-38.09
-13.87
1.47
2.23
-11.20
-33.94
-60.07
-85.32
-107.67
-126.16
-139.19
-143.91
-137.53
-119.38
-92.16
-61.64
-34.77
-17.00
-10.69
-14.60
-24.95
-37.00
-46.53
-50.90
-49.49
-43.35
-34.58
-25.39
-17.26
-10.54
-4.61
1.48
8.23
15.23
21.37
25.43
26.84
26.06
24.27
22.78
22.30
22.59
22.77
21.89
19.57
16.10
12.38
9.31
7.41
6.59
6.42
6.41
6.40
6.59
7.31
8.83
11.01
13.49
15.69
17.22
18.00
18.28
18.44
18.79
19.25
19.46
18.82
16.81
13.25
8.45
3.06
-2.25
-7.08
-11.45
-15.72
-20.27
-25.16
-30.04
-34.27
-37.23
-38.72
-39.13
-39.35
-40.50
-43.61
-49.12
-56.68
-65.33
-73.74
-80.82
-86.39
-91.09
-96.13
-102.84
-112.34
-125.52
-143.12
-165.36
-191.38
-218.78
-243.70
-262.04
-271.01
-270.31
-262.29
-250.71
-239.00
-228.88
-220.27
-211.95
-202.72
-191.89
-179.14
-164.02
-145.67
-123.01
-95.50
-63.57
-28.52
7.71
43.38
77.44
109.90
141.68
174.65
211.41
254.69
305.76
363.01
421.14
472.10
507.57
521.94
514.07
486.92
445.51
394.76
338.54
280.24
223.89
174.43
136.45
112.14
100.02
95.36
92.46
86.99
77.66
65.75
53.72
43.83
37.35
34.59
35.17
38.48
43.69
50.01
57.03
64.94
74.56
87.13
103.87
125.47
151.50
179.88
206.89
227.72
237.70
233.86
216.10
187.47
153.21
119.17
90.18
69.15
57.18
54.38
60.52
75.19
97.62
126.27
158.85
192.60
224.90
253.66
277.56
295.95
308.49
314.95
315.13
308.94
296.65
278.98
257.08
232.38
206.26
179.82
153.69
128.18
103.41
79.51
56.69
35.22
15.20
-3.58
-21.64
-39.61
-58.05
-77.19
-96.89
-116.78
-136.57
-156.31
-176.53
-198.07
-221.71
-247.79
-276.05
-305.69
-335.65
-365.17
-393.93
-422.30
-451.25
-482.25
-517.00
-556.89
-602.28
-651.47
-700.26
-742.33
-770.65
-779.59
-766.79
-733.94
-686.09
-629.90
-571.52
-515.23
-463.05
-415.32
-371.48
-330.78
-292.49
-255.85
-220.10
-184.61
-149.13
-113.96
-79.79
-47.39
-16.96
12.04
40.90
70.94
102.55
134.57
164.18
187.74
202.10
205.79
199.78
187.20
172.39
159.73
152.39
151.69
156.89
165.65
174.69
181.06
182.88
179.90
173.28
164.81
155.96
147.14
137.98
127.86
116.76
105.54
95.68
88.45
84.32
82.74
82.39
82.01
80.72
78.38
75.34
71.98
68.40
64.23
58.93
52.20
44.22
35.78
27.98
21.84
17.77
15.48
14.01
12.45
10.35
8.11
6.67
6.83
8.72
11.41
13.43
13.45
11.09
7.11
3.11
0.69
0.80
3.35
7.39
11.74
15.59
18.73
21.39
23.82
26.03
27.69
28.53
28.69
28.70
29.22
30.45
31.95
32.71
31.73
28.70
24.25
19.58
15.94
13.93
13.28
13.11
12.44
10.68
7.82
4.30
0.71
-2.41
-4.77
-6.26
-6.96
-7.04
-6.77
-6.34
-5.83
-5.20
-4.30
-2.91
-0.81
2.07
5.57
9.19
12.20
13.68
13.09
10.43
6.37
2.02
-1.44
-3.23
-3.02
-0.94
2.65
7.39
12.84
18.36
23.18
26.36
27.21
25.60
21.96
17.35
13.08
10.35
9.92
11.91
15.75
20.46
24.86
28.13
30.05
31.16
32.48
35.20
40.23
47.95
58.12
69.88
81.97
92.89
101.27
106.17
107.43
105.76
102.53
99.37
97.59
97.79
99.60
101.86
103.05
101.85
97.64
90.60
81.61
71.87
62.41
53.71
45.31
35.60
22.01
1.53
-28.36
-68.63
-117.93
-172.55
-227.04
-275.41
-312.28
-333.81
-337.98
-324.59
-295.10
-252.35
-200.20
-142.97
-84.45
-26.99
28.84
83.85
139.19
195.06
250.12
301.65
346.49
382.14
407.32
422.01
426.93
423.18
412.30
396.52
378.97
363.00
351.00
343.07
336.67
327.49
311.41
286.38
253.30
215.38
176.34
138.67
102.68
66.88
29.47
-10.33
-51.72
-92.76
-131.64
-167.71
-201.94
-236.37
-272.91
-312.61
-355.47
-401.15
-449.37
-499.74
-550.75
-598.69
-637.59
-660.67
-662.84
-642.77
-603.55
-551.15
-491.78
-429.85
-368.07
-309.24
-258.24
-221.88
-206.23
-212.77
-235.86
-263.86
-283.51
-285.39
-267.43
-234.70
-195.92
-158.64
-126.22
-97.76
-70.34
-41.84
-12.47
15.79
40.87
62.01
80.29
97.84
116.74
138.10
161.96
187.91
215.41
243.77
271.33
294.89
309.90
311.64
297.00
265.66
220.41
166.05
108.23
52.47
3.93
-32.58
-53.09
-55.75
-42.12
-17.45
10.60
34.86
51.34
60.77
67.65
77.98
96.55
125.15
162.40
204.71
247.82
287.88
321.93
347.94
364.41
370.53
366.03
351.50
328.35
298.83
265.71
231.95
200.47
173.70
153.43
140.60
135.17
136.06
141.05
146.89
149.46
144.47
128.07
97.84
53.56
-2.00
-63.04
-121.54
-168.99
-198.69
-207.63
-197.33
-173.17
-142.41
-112.17
-87.89
-72.89
-68.60
-75.09
-91.13
-113.86
-138.64
-159.39
-169.82
-165.22
-143.96
-108.17
-63.31
-16.86
23.47
51.25
62.50
56.15
34.01
0.30
-39.00
-77.14
-107.57
-124.83
-125.43
-108.38
-75.59
-31.70
16.55
61.60
96.60
116.97
121.30
111.49
92.02
68.49
46.15
28.86
18.51
15.11
17.33
23.03
29.89
35.83
39.30
39.37
35.67
28.28
17.53
4.00
-11.46
-27.67
-43.11
-55.96
-64.39
-66.97
-63.02
-52.74
-37.03
-17.21
5.36
29.31
53.13
74.99
92.71
104.32
108.70
106.13
98.17
87.16
75.15
63.24
51.57
39.77
27.75
16.03
5.65
-2.48
-8.12
-12.05
-15.78
-21.10
-29.43
-41.22
-55.74
-71.05
-84.30
-92.40
-92.88
-84.59
-68.21
-46.06
-21.47
2.19
22.17
36.76
45.30
47.86
45.04
37.95
28.10
17.43
7.99
1.47
-1.35
-0.75
2.00
5.27
7.70
8.69
8.48
7.69
6.88
6.04
4.56
1.55
-3.71
-11.32
-20.65
-30.61
-40.01
-47.88
-53.60
-56.75
-57.02
-54.02
-47.49
-37.48
-24.64
-10.42
3.17
13.93
20.04
20.54
15.48
5.97
-6.20
-18.98
-30.41
-38.92
-43.50
-43.71
-39.65
-31.84
-20.99
-7.88
6.82
22.35
37.70
51.35
61.46
66.13
64.06
55.09
40.47
22.64
4.72
-10.28
-20.21
-24.13
-22.29
-15.88
-6.48
4.33
15.20
25.07
32.96
37.92
39.07
35.86
28.29
17.12
3.83
-9.61
-21.11
-28.93
-32.02
-30.31
-24.81
-17.27
-9.77
-4.07
-1.19
-1.21
-3.56
-7.38
-11.92
-16.76
-21.76
-26.80
-31.67
-35.98
-39.24
-40.98
-40.73
-38.07
-32.64
-24.27
-13.19
-0.18
13.27
25.21
33.61
36.95
34.59
27.05
15.82
2.99
-9.22
-18.84
-24.36
-24.96
-20.54
-11.80
-0.17
12.44
24.00
32.76
37.51
37.75
33.58
25.60
14.87
2.78
-9.00
-18.79
-25.31
-27.93
-26.85
-23.01
-17.77
-12.50
-8.36
-6.09
-6.04
-8.25
-12.36
-17.60
-22.82
-26.61
-27.68
-25.23
-19.26
-10.58
-0.60
9.19
17.59
24.00
28.37
31.07
32.46
32.79
32.09
30.35
27.71
24.53
21.31
18.53
16.38
14.70
13.00
10.81
7.93
4.58
1.43
-0.64
-0.87
1.11
5.03
9.99
14.76
18.08
19.09
17.60
14.04
9.29
4.31
-0.06
-3.35
-5.32
-5.99
-5.59
-4.56
-3.51
-3.08
-3.72
-5.46
-7.90
-10.29
-11.90
-12.35
-11.79
-10.83
-10.25
-10.63
-12.12
-14.48
-17.16
-19.66
-21.63
-22.90
-23.51
-23.51
-23.01
-22.15
-21.18
-20.38
-19.99
-20.09
-20.45
-20.68
-20.35
-19.23
-17.40
-15.26
-13.40
-12.32
-12.14
-12.49
-12.53
-11.31
-8.21
-3.29
2.58
8.00
11.59
12.51
10.78
7.22
3.07
-0.46
-2.60
-3.10
-2.16
-0.24
2.16
4.59
6.71
8.28
9.16
9.35
9.04
8.51
8.13
8.21
8.85
9.89
10.87
11.26
10.63
8.96
6.63
4.32
2.69
2.11
2.48
3.28
3.88
3.80
2.87
1.26
-0.66
-2.53
-4.04
-4.96
-5.13
-4.46
-3.07
-1.31
0.29
1.25
1.40
0.95
0.44
0.35
0.88
1.87
2.92
3.58
3.59
2.79
1.20
-1.07
-3.78
-6.44
-8.52
-9.61
-9.71
-9.38
-9.50
-10.84
-13.69
-17.61
-21.74
-25.21
-27.47
-28.39
-28.13
-26.86
-24.59
-21.30
-17.12
-12.57
-8.43
-5.51
-4.28
-4.57
-5.64
-6.49
-6.27
-4.64
-1.86
1.49
4.83
7.85
10.54
13.04
15.37
17.26
18.26
17.93
16.13
13.07
9.23
5.27
1.83
-0.63
-1.83
-1.68
-0.25
2.26
5.52
9.08
12.38
14.70
15.32
13.67
9.55
3.31
-4.10
-11.43
-17.46
-21.28
-22.58
-21.53
-18.64
-14.49
-9.58
-4.37
0.77
5.40
9.14
11.62
12.64
12.17
10.44
7.88
4.99
2.25
-0.01
-1.62
-2.60
-3.03
-3.06
-2.77
-2.21
-1.49
-0.74
-0.21
-0.13
-0.69
-1.90
-3.58
-5.35
-6.76
-7.48
-7.39
-6.60
-5.38
-3.96
-2.41
-0.65
1.39
3.62
5.75
7.40
8.34
8.58
8.42
8.27
8.37
8.67
8.83
8.36
6.94
4.52
1.37
-2.05
-5.25
-7.77
-9.32
-9.72
-9.06
-7.66
-6.07
-4.95
-4.81
-5.85
-7.79
-10.03
-11.78
-12.40
-11.66
-9.76
-7.21
-4.67
-2.62
-1.34
-0.80
-0.82
-1.09
-1.35
-1.37
-1.05
-0.41
0.37
1.00
1.16
0.64
-0.63
-2.43
-4.39
-6.05
-6.97
-6.95
-6.01
-4.39
-2.44
-0.51
1.15
2.47
3.46
4.14
4.45
4.22
3.31
1.63
-0.64
-3.19
-5.55
-7.30
-8.18
-8.16
-7.48
-6.55
-5.82
-5.59
-5.96
-6.71
-7.51
-7.97
-7.87
-7.16
-5.98
-4.55
-3.09
-1.78
-0.75
-0.06
0.23
0.11
-0.46
-1.46
-2.84
-4.45
-6.01
-7.15
-7.56
-7.18
-6.19
-4.98
-3.95
-3.28
-2.87
-2.48
-1.99
-1.49
-1.33
-1.85
-3.23
-5.26
-7.47
-9.26
-10.15
-9.96
-8.72
-6.68
-4.10
-1.31
1.38
3.67
5.33
6.30
6.67
6.75
7.00
7.74
9.17
11.16
13.39
15.38
16.69
17.14
16.83
16.18
15.65
15.62
16.16
17.02
17.81
18.16
17.93
17.12
15.88
14.28
12.34
10.02
7.40
4.64
1.98
-0.39
-2.49
-4.42
-6.35
-8.33
-10.23
-11.88
-13.14
-14.05
-14.83
-15.88
-17.54
-19.87
-22.52
-24.81
-25.90
-25.11
-22.26
-17.68
-12.12
-6.49
-1.56
2.16
4.48
5.41
5.13
3.96
2.30
0.65
-0.50
-0.75
0.06
1.78
4.10
6.54
8.64
9.96
10.27
9.57
8.12
6.39
4.88
3.93
3.59
3.59
3.52
3.01
1.87
0.15
-1.90
-3.99
-5.88
-7.36
-8.34
-8.78
-8.81
-8.62
-8.45
-8.43
-8.51
-8.43
-7.84
-6.46
-4.27
-1.51
1.33
3.75
5.44
6.29
6.47
6.29
6.12
6.31
7.10
8.58
10.59
12.79
14.70
15.81
15.82
14.65
12.55
9.99
7.52
5.60
4.46
4.10
4.24
4.50
4.43
3.70
2.11
-0.27
-3.14
-6.04
-8.46
-9.98
-10.48
-10.11
-9.24
-8.35
-7.73
-7.51
-7.46
-7.29
-6.61
-5.25
-3.28
-0.96
1.26
3.03
4.13
4.56
4.53
4.33
4.18
4.24
4.52
4.93
5.32
5.53
5.48
5.17
4.81
4.65
4.92
5.72
6.83
7.92
8.61
8.71
8.27
7.56
6.89
6.44
6.20
5.89
5.15
3.60
1.09
-2.22
-5.93
-9.43
-12.24
-14.13
-15.20
-15.73
-16.10
-16.55
-17.13
-17.80
-18.49
-19.12
-19.62
-19.89
-19.79
-19.30
-18.51
-17.69
-17.09
-16.84
-16.84
-16.76
-16.27
-15.21
-13.74
-12.23
-11.09
-10.53
-10.49
-10.69
-10.85
-10.79
-10.63
-10.58
-10.88
-11.52
-12.37
-13.13
-13.58
-13.78
-13.97
-14.56
-15.80
-17.59
-19.52
-20.95
-21.37
-20.58
-18.87
-16.86
-15.14
-14.02
-13.35
-12.64
-11.33
-9.05
-5.78
-1.87
2.14
5.68
8.30
9.71
9.85
8.79
6.78
4.21
1.55
-0.78
-2.47
-3.46
-4.03
-4.69
-6.12
-8.90
-13.45
-19.86
-27.83
-36.51
-44.53
-50.04
-51.03
-45.82
-33.62
-15.06
7.73
31.49
52.55
67.68
74.81
73.31
63.88
48.31
29.15
9.58
-6.95
-17.10
-18.46
-10.34
5.79
26.45
47.24
64.18
75.11
80.14
81.25
81.10
81.84
84.29
87.89
91.22
92.68
90.88
84.79
73.69
57.32
36.13
11.66
-13.34
-35.52
-51.88
-60.88
-63.07
-60.81
-57.25
-54.96
-54.97
-56.74
-58.68
-59.25
-57.59
-53.80
-48.45
-42.09
-34.91
-26.92
-18.41
-10.29
-4.08
-1.41
-3.27
-9.45
-18.43
-27.72
-34.45
-36.10
-31.05
-18.93
-0.81
20.84
42.58
60.65
71.85
74.35
68.19
55.17
38.29
20.86
5.74
-5.07
-10.58
-10.54
-5.32
4.23
16.53
29.32
39.88
45.49
44.19
35.47
20.50
1.89
-16.97
-32.96
-44.02
-49.64
-50.91
-49.80
-48.42
-48.15
-49.18
-50.39
-49.84
-45.57
-36.37
-22.31
-4.74
13.99
31.25
44.71
52.87
55.14
51.79
43.77
32.42
19.45
6.64
-4.33
-12.14
-16.20
-16.76
-14.78
-11.69
-8.97
-7.72
-8.45
-11.00
-14.62
-18.31
-21.06
-22.15
-21.38
-19.06
-15.88
-12.68
-10.16
-8.64
-8.07
-8.12
-8.33
-8.32
-7.92
-7.15
-6.17
-5.12
-3.94
-2.47
-0.36
2.64
6.62
11.42
16.62
21.67
25.94
28.87
30.02
29.20
26.51
22.41
17.55
12.65
8.30
4.80
2.25
0.60
-0.19
-0.14
0.71
2.17
3.93
5.57
6.74
7.32
7.41
7.30
7.26
7.44
7.82
8.10
7.92
6.84
4.55
1.05
-3.32
-7.82
-11.51
-13.55
-13.54
-11.65
-8.57
-5.23
-2.37
-0.35
0.91
1.66
2.10
2.18
1.74
0.63
-1.05
-2.88
-4.34
-4.99
-4.72
-3.72
-2.40
-1.15
-0.10
0.76
1.58
2.46
3.34
4.10
4.55
4.58
4.18
3.48
2.70
2.05
1.69
1.57
1.49
1.07
-0.04
-2.02
-4.71
-7.71
-10.42
-12.38
-13.38
-13.47
-12.97
-12.18
-11.34
-10.53
-9.78
-9.14
-8.71
-8.59
-8.79
-9.12
-9.36
-9.31
-8.93
-8.38
-7.81
-7.29
-6.73
-5.92
-4.70
-3.13
-1.40
0.19
1.44
2.33
3.00
3.66
4.44
5.36
6.30
7.07
7.45
7.19
6.12
4.23
1.70
-1.02
-3.41
-5.02
-5.66
-5.40
-4.50
-3.16
-1.45
0.69
3.40
6.64
10.19
13.66
16.67
19.00
20.58
21.41
21.46
20.66
18.95
16.44
13.45
10.46
8.00
6.48
5.97
6.25
6.88
7.36
7.42
6.97
6.21
5.42
4.81
4.40
3.96
3.16
1.71
-0.42
-3.02
-5.73
-8.20
-10.36
-12.30
-14.29
-16.49
-18.87
-21.10
-22.66
-23.07
-22.11
-19.93
-16.98
-13.87
-11.11
-8.96
-7.36
-6.03
-4.67
-3.04
-1.07
1.15
3.46
5.62
7.43
8.74
9.47
9.61
9.27
8.62
7.78
6.88
5.93
4.92
3.82
2.67
1.57
0.63
-0.04
-0.43
-0.55
-0.49
-0.31
-0.10
0.05
0.07
-0.09
-0.35
-0.62
-0.81
-1.01
-1.39
-2.17
-3.44
-5.06
-6.70
-8.01
-8.71
-8.70
-8.04
-6.80
-5.09
-3.04
-0.84
1.24
2.93
4.07
4.67
4.91
5.05
5.35
6.06
7.31
9.10
11.23
13.26
14.65
14.94
13.93
11.79
9.00
6.14
3.66
1.81
0.62
-0.01
-0.15
0.16
0.84
1.71
2.59
3.26
3.66
3.84
3.96
4.15
4.45
4.79
5.12
5.43
5.73
6.01
6.07
5.63
4.42
2.24
-0.78
-4.26
-7.64
-10.37
-12.06
-12.63
-12.28
-11.42
-10.50
-9.93
-9.96
-10.66
-11.93
-13.60
-15.35
-16.88
-17.88
-18.22
-17.97
-17.37
-16.83
-16.66
-16.96
-17.66
-18.51
-19.31
-19.92
-20.35
-20.74
-21.16
-21.61
-21.98
-22.12
-21.90
-21.28
-20.30
-19.01
-17.46
-15.68
-13.71
-11.59
-9.38
-7.06
-4.57
-1.59
2.15
6.82
12.18
17.63
22.28
25.31
26.30
25.34
22.86
19.37
15.31
10.91
6.40
2.08
-1.61
-4.23
-5.51
-5.52
-4.60
-3.24
-1.84
-0.70
0.06
0.42
0.42
0.21
-0.00
0.02
0.46
1.34
2.47
3.63
4.69
5.70
6.84
8.27
10.06
12.02
13.84
15.24
16.11
16.51
16.62
16.48
15.93
14.60
12.14
8.51
4.09
-0.31
-3.80
-5.82
-6.34
-5.88
-5.26
-5.21
-6.09
-7.74
-9.64
-11.20
-11.91
-11.44
-9.68
-6.64
-2.41
2.71
8.24
13.47
17.63
20.04
20.34
18.57
15.14
10.69
5.89
1.34
-2.44
-5.03
-6.05
-5.15
-2.20
2.57
8.46
14.36
19.07
21.63
21.69
19.57
15.98
11.83
7.81
4.28
1.35
-0.99
-2.72
-3.80
-4.24
-4.19
-3.93
-3.84
-4.18
-5.10
-6.49
-8.05
-9.39
-10.16
-10.20
-9.54
-8.46
-7.25
-6.14
-5.16
-4.19
-3.08
-1.72
-0.24
1.15
2.23
2.99
3.59
4.33
5.48
7.05
8.83
10.43
11.43
11.59
10.94
9.72
8.29
6.97
5.94
5.28
4.92
4.74
4.55
4.16
3.36
2.00
0.09
-2.18
-4.48
-6.56
-8.27
-9.71
-11.02
-12.23
-13.19
-13.57
-13.17
-12.03
-10.62
-9.49
-9.07
-9.36
-9.95
-10.24
-9.78
-8.55
-6.87
-5.27
-4.14
-3.62
-3.57
-3.65
-3.62
-3.42
-3.22
-3.26
-3.70
-4.55
-5.64
-6.75
-7.68
-8.35
-8.79
-9.09
-9.36
-9.81
-10.61
-11.90
-13.66
-15.59
-17.30
-18.39
-18.71
-18.47
-18.18
-18.30
-18.98
-19.94
-20.54
-20.15
-18.45
-15.62
-12.24
-8.92
-6.11
-3.85
-1.94
-0.02
2.07
4.27
6.38
8.14
9.43
10.22
10.52
10.33
9.66
8.60
7.33
6.08
5.08
4.40
3.94
3.51
2.88
1.98
0.84
-0.36
-1.43
-2.21
-2.51
-2.20
-1.24
0.32
2.22
4.04
5.39
6.05
6.11
5.93
5.97
6.59
7.92
9.82
11.92
13.81
15.09
15.45
14.70
12.86
10.11
6.89
3.77
1.27
-0.26
-0.73
-0.30
0.77
2.18
3.66
5.01
6.06
6.68
6.85
6.63
6.16
5.67
5.28
5.03
4.80
4.37
3.58
2.39
0.97
-0.40
-1.45
-2.08
-2.39
-2.67
-3.19
-4.14
-5.50
-7.09
-8.65
-9.85
-10.44
-10.18
-8.95
-6.82
-4.06
-1.12
1.44
3.17
3.93
3.88
3.48
3.26
3.59
4.59
6.05
7.60
8.87
9.66
9.93
9.78
9.33
8.67
7.82
6.85
5.89
5.04
4.33
3.65
2.80
1.62
0.09
-1.62
-3.20
-4.42
-5.16
-5.53
-5.71
-5.85
-5.99
-6.01
-5.80
-5.32
-4.68
-4.08
-3.69
-3.51
-3.39
-3.01
-2.10
-0.53
1.62
4.02
6.25
7.91
8.82
9.02
8.76
8.34
8.05
8.02
8.27
8.68
9.17
9.69
10.24
10.77
11.17
11.28
11.00
10.35
9.52
8.74
8.22
7.97
7.80
7.46
6.74
5.65
4.32
2.96
1.62
0.15
-1.64
-3.92
-6.59
-9.34
-11.79
-13.76
-15.33
-16.83
-18.56
-20.57
-22.51
-23.82
-24.02
-22.96
-20.89
-18.36
-15.92
-13.95
-12.50
-11.40
-10.38
-9.29
-8.18
-7.26
-6.81
-6.94
-7.54
-8.24
-8.64
-8.38
-7.44
-6.06
-4.63
-3.51
-2.79
-2.28
-1.67
-0.69
0.73
2.41
3.97
5.10
5.57
5.38
4.75
3.97
3.30
2.85
2.59
2.39
2.09
1.57
0.78
-0.19
-1.28
-2.35
-3.24
-3.78
-3.75
-3.05
-1.71
0.05
1.89
3.48
4.62
5.31
5.57
5.48
5.07
4.37
3.49
2.67
2.19
2.36
3.33
5.00
7.04
8.96
10.30
10.76
10.31
9.18
7.79
6.56
5.73
5.29
5.01
4.56
3.66
2.19
0.29
-1.79
-3.72
-5.26
-6.24
-6.68
-6.69
-6.42
-6.06
-5.72
-5.45
-5.18
-4.85
-4.33
-3.50
-2.30
-0.66
1.37
3.64
5.91
7.88
9.24
9.84
9.72
9.09
8.24
7.44
6.84
6.43
6.22
6.20
6.45
7.03
7.90
8.96
10.01
10.89
11.53
11.93
12.14
12.15
11.92
11.33
10.31
8.84
7.02
4.95
2.77
0.56
-1.64
-3.82
-5.95
-7.94
-9.63
-10.85
-11.47
-11.48
-10.98
-10.16
-9.17
-8.13
-7.07
-5.93
-4.69
-3.32
-1.94
-0.72
0.14
0.54
0.54
0.33
0.21
0.38
0.85
1.50
2.13
2.63
3.11
3.78
4.74
5.91
6.97
7.59
7.61
7.13
6.43
5.83
5.48
5.38
5.42
5.53
5.74
6.13
6.67
7.22
7.53
7.40
6.72
5.50
3.85
1.88
-0.22
-2.30
-4.19
-5.74
-7.01
-8.16
-9.45
-11.04
-12.87
-14.64
-15.92
-16.37
-15.84
-14.43
-12.44
-10.19
-7.95
-5.89
-4.11
-2.68
-1.65
-1.00
-0.68
-0.58
-0.63
-0.76
-0.96
-1.19
-1.36
-1.35
-1.09
-0.67
-0.25
-0.08
-0.37
-1.14
-2.24
-3.36
-4.25
-4.79
-5.10
-5.41
-6.03
-7.12
-8.73
-10.79
-13.10
-15.41
-17.44
-18.95
-19.79
-19.96
-19.64
-19.12
-18.66
-18.37
-18.14
-17.66
-16.59
-14.74
-12.21
-9.32
-6.52
-4.14
-2.25
-0.64
1.02
3.06
5.60
8.53
11.54
14.31
16.50
17.93
18.53
18.33
17.50
16.27
14.90
13.59
12.41
11.36
10.38
9.43
8.54
7.73
6.95
6.05
4.86
3.33
1.58
-0.11
-1.45
-2.29
-2.68
-2.80
-2.87
-3.08
-3.52
-4.22
-5.18
-6.33
-7.45
-8.23
-8.32
-7.48
-5.74
-3.46
-1.20
0.56
1.56
1.90
1.92
2.02
2.47
3.30
4.31
5.27
6.03
6.59
7.00
7.35
7.60
7.71
7.60
7.31
6.92
6.53
6.15
5.75
5.31
4.89
4.64
4.71
5.20
5.95
6.68
7.03
6.76
5.83
4.37
2.64
0.86
-0.82
-2.36
-3.79
-5.19
-6.61
-8.05
-9.40
-10.44
-10.90
-10.51
-9.16
-6.97
-4.26
-1.49
0.86
2.43
3.09
2.93
2.26
1.44
0.78
0.47
0.55
0.91
1.38
1.79
2.05
2.12
2.13
2.23
2.62
3.39
4.52
5.80
6.96
7.72
7.96
7.72
7.15
6.48
5.86
5.35
4.89
4.40
3.75
2.90
1.91
0.91
-0.01
-0.79
-1.48
-2.14
-2.85
-3.56
-4.15
-4.50
-4.54
-4.30
-3.91
-3.44
-2.92
-2.26
-1.39
-0.26
1.11
2.56
3.91
4.94
5.49
5.47
4.95
4.17
3.42
2.98
2.91
3.10
3.26
3.12
2.52
1.51
0.30
-0.81
-1.56
-1.80
-1.52
-0.75
0.39
1.74
3.05
4.01
4.27
3.63
2.05
-0.16
-2.54
-4.60
-6.04
-6.89
-7.43
-8.00
-8.80
-9.82
-10.93
-11.89
-12.49
-12.62
-12.21
-11.30
-9.97
-8.37
-6.66
-5.03
-3.56
-2.27
-1.22
-0.47
-0.16
-0.45
-1.35
-2.74
-4.32
-5.76
-6.79
-7.36
-7.53
-7.50
-7.38
-7.25
-7.06
-6.81
-6.51
-6.26
-6.14
-6.08
-6.02
-5.83
-5.44
-4.92
-4.39
-3.97
-3.67
-3.43
-3.22
-3.11
-3.38
-4.27
-5.85
-7.85
-9.72
-10.84
-10.77
-9.48
-7.32
-4.89
-2.64
-0.83
0.61
1.91
3.24
4.58
5.75
6.52
6.76
6.61
6.34
6.28
6.65
7.43
8.38
9.16
9.45
9.13
8.30
7.21
6.25
5.69
5.63
5.94
6.36
6.60
6.46
5.90
4.96
3.68
2.17
0.48
-1.22
-2.72
-3.86
-4.57
-4.96
-5.21
-5.51
-5.89
-6.17
-6.07
-5.35
-3.96
-2.07
-0.01
1.88
3.37
4.35
4.86
5.00
4.88
4.59
4.19
3.73
3.28
2.89
2.60
2.46
2.45
2.54
2.62
2.59
2.46
2.31
2.34
2.70
3.39
4.14
4.55
4.26
3.20
1.59
-0.14
-1.51
-2.30
-2.52
-2.46
-2.45
-2.76
-3.48
-4.53
-5.71
-6.82
-7.66
-8.07
-8.00
-7.41
-6.33
-4.82
-3.02
-1.09
0.78
2.46
3.93
5.33
6.83
8.50
10.27
11.90
13.11
13.69
13.64
13.09
12.31
11.54
10.95
10.62
10.61
10.88
11.40
12.06
12.73
13.18
13.28
12.88
11.97
10.58
8.72
6.43
3.72
0.67
-2.57
-5.77
-8.78
-11.61
-14.38
-17.31
-20.40
-23.45
-25.90
-27.19
-26.90
-25.06
-21.99
-18.28
-14.41
-10.69
-7.27
-4.14
-1.32
1.18
3.34
5.18
6.70
7.89
8.66
8.94
8.69
7.99
7.06
6.15
5.45
5.01
4.74
4.49
4.10
3.50
2.60
1.36
-0.25
-2.20
-4.37
-6.51
-8.30
-9.52
-10.08
-10.14
-9.99
-9.95
-10.28
-11.03
-12.08
-13.12
-13.76
-13.61
-12.42
-10.22
-7.31
-4.26
-1.64
0.12
0.89
0.87
0.45
0.06
-0.05
0.22
0.72
1.28
1.70
1.95
2.13
2.40
2.90
3.61
4.42
5.10
5.47
5.53
5.46
5.52
5.87
6.48
7.05
7.23
6.71
5.46
3.69
1.71
-0.16
-1.78
-3.20
-4.57
-6.07
-7.77
-9.56
-11.20
-12.36
-12.67
-11.95
-10.15
-7.43
-4.11
-0.61
2.69
5.52
7.68
9.20
10.18
10.82
11.27
11.62
11.85
11.96
11.94
11.82
11.70
11.64
11.63
11.64
11.65
11.66
11.77
12.05
12.43
12.78
12.81
12.34
11.32
9.83
8.09
6.22
4.29
2.29
0.21
-1.89
-3.87
-5.54
-6.83
-7.82
-8.76
-9.91
-11.41
-13.09
-14.54
-15.18
-14.60
-12.68
-9.68
-6.12
-2.50
0.87
3.90
6.64
9.13
11.28
12.88
13.78
13.99
13.69
13.17
12.73
12.57
12.73
13.18
13.84
14.58
15.28
15.81
16.09
16.09
15.81
15.32
14.71
13.99
13.15
12.15
10.96
9.59
8.06
6.39
4.54
2.48
0.20
-2.20
-4.51
-6.49
-7.99
-9.06
-10.01
-11.22
-13.00
-15.35
-17.91
-20.12
-21.38
-21.35
-19.98
-17.56
-14.48
-11.13
-7.74
-4.48
-1.48
1.07
2.93
3.97
4.25
3.99
3.53
3.17
3.07
3.16
3.26
3.21
2.92
2.40
1.73
0.98
0.23
-0.41
-0.80
-0.83
-0.48
0.11
0.67
0.90
0.59
-0.25
-1.45
-2.76
-3.98
-5.02
-5.89
-6.64
-7.24
-7.68
-8.00
-8.34
-8.96
-9.96
-11.21
-12.31
-12.69
-11.89
-9.85
-6.89
-3.61
-0.58
1.85
3.70
5.15
6.45
7.69
8.82
9.71
10.32
10.73
11.12
11.67
12.40
13.19
13.84
14.13
13.94
13.34
12.51
11.72
11.18
10.94
10.95
11.03
10.97
10.55
9.65
8.24
6.39
4.22
1.87
-0.50
-2.75
-4.70
-6.21
-7.21
-7.85
-8.35
-8.97
-9.85
-10.88
-11.73
-12.00
-11.39
-9.84
-7.52
-4.76
-1.90
0.76
2.99
4.66
5.74
6.31
6.54
6.64
6.76
6.94
7.16
7.35
7.51
7.72
8.06
8.54
9.10
9.63
10.02
10.24
10.30
10.22
10.01
9.66
9.23
8.80
8.44
8.11
7.65
6.80
5.35
3.28
0.73
-1.96
-4.51
-6.77
-8.73
-10.47
-12.13
-13.76
-15.40
-16.98
-18.32
-19.13
-19.08
-17.91
-15.54
-12.16
-8.20
-4.15
-0.45
2.65
5.06
6.80
7.94
8.54
8.67
8.43
7.93
7.28
6.55
5.85
5.35
5.19
5.50
6.26
7.26
8.18
8.74
8.88
8.72
8.56
8.59
8.77
8.90
8.71
8.01
6.86
5.47
4.09
2.87
1.83
0.89
-0.02
-0.91
-1.70
-2.33
-2.86
-3.41
-4.11
-5.01
-6.00
-6.84
-7.24
-7.00
-6.06
-4.50
-2.49
-0.32
1.79
3.54
4.75
5.27
5.13
4.46
3.44
2.26
1.06
-0.03
-0.89
-1.30
-1.09
-0.18
1.29
3.04
4.68
5.91
6.60
6.84
6.85
6.84
6.93
7.05
7.06
6.74
5.93
4.53
2.54
0.02
-2.87
-5.86
-8.66
-11.00
-12.76
-14.00
-14.88
-15.63
-16.35
-17.01
-17.41
-17.31
-16.50
-14.95
-12.79
-10.27
-7.72
-5.41
-3.54
-2.19
-1.36
-1.03
-1.16
-1.71
-2.56
-3.56
-4.49
-5.19
-5.52
-5.51
-5.28
-5.03
-4.98
-5.20
-5.67
-6.18
-6.41
-6.11
-5.18
-3.73
-2.06
-0.52
0.56
0.95
0.56
-0.61
-2.41
-4.57
-6.69
-8.35
-9.33
-9.66
-9.63
-9.64
-10.00
-10.70
-11.52
-12.03
-11.88
-10.86
-8.96
-6.38
-3.41
-0.35
2.54
5.14
7.40
9.32
10.92
12.21
13.19
13.89
14.36
14.71
15.02
15.30
15.45
15.33
14.81
13.93
12.81
11.73
10.86
10.25
9.77
9.12
8.00
6.24
3.89
1.22
-1.39
-3.59
-5.18
-6.21
-6.85
-7.36
-7.95
-8.73
-9.63
-10.54
-11.27
-11.64
-11.48
-10.65
-9.11
-6.97
-4.50
-2.05
0.02
1.52
2.51
3.23
3.97
4.90
5.91
6.79
7.25
7.21
6.81
6.30
5.95
5.87
6.01
6.21
6.35
6.34
6.21
6.08
6.04
6.06
5.99
5.62
4.78
3.45
1.78
0.00
-1.64
-3.06
-4.36
-5.71
-7.33
-9.30
-11.50
-13.64
-15.38
-16.34
-16.31
-15.20
-13.11
-10.24
-6.86
-3.26
0.26
3.38
5.77
7.19
7.65
7.37
6.78
6.32
6.27
6.61
7.11
7.57
7.90
8.21
8.70
9.46
10.37
11.17
11.56
11.39
10.77
9.91
9.01
8.17
7.35
6.50
5.61
4.71
3.80
2.85
1.76
0.45
-1.10
-2.84
-4.70
-6.68
-8.70
-10.69
-12.40
-13.53
-13.83
-13.19
-11.76
-9.80
-7.65
-5.56
-3.78
-2.43
-1.62
-1.33
-1.36
-1.45
-1.34
-0.93
-0.32
0.29
0.76
1.16
1.62
2.32
3.18
3.94
4.26
3.89
2.86
1.41
-0.10
-1.47
-2.64
-3.75
-4.98
-6.37
-7.87
-9.24
-10.32
-11.03
-11.46
-11.80
-12.21
-12.82
-13.57
-14.42
-15.22
-15.86
-16.23
-16.27
-15.85
-14.91
-13.47
-11.62
-9.61
-7.67
-5.95
-4.52
-3.32
-2.23
-1.18
-0.22
0.61
1.28
1.87
2.53
3.41
4.57
5.81
6.86
7.39
7.27
6.62
5.77
5.09
4.81
4.90
5.11
5.11
4.69
3.78
2.49
1.00
-0.53
-2.03
-3.45
-4.79
-6.04
-7.15
-8.16
-9.07
-9.85
-10.37
-10.44
-9.80
-8.33
-6.03
-3.15
-0.09
2.69
4.87
6.33
7.20
7.75
8.26
8.92
9.77
10.71
11.60
12.38
13.04
13.63
14.17
14.66
14.96
14.98
14.63
13.99
13.16
12.29
11.43
10.50
9.37
7.90
6.11
4.14
2.17
0.29
-1.53
-3.40
-5.42
-7.56
-9.68
-11.59
-13.15
-14.29
-14.97
-15.10
-14.60
-13.41
-11.64
-9.57
-7.52
-5.71
-4.19
-2.80
-1.34
0.32
2.15
4.02
5.71
7.14
8.29
9.15
9.72
9.96
9.88
9.54
9.13
8.77
8.58
8.50
8.36
7.98
7.26
6.27
5.16
4.16
3.40
2.90
2.62
2.40
2.13
1.68
1.01
0.12
-0.92
-2.00
-3.08
-4.16
-5.28
-6.43
-7.54
-8.40
-8.77
-8.42
-7.27
-5.38
-2.91
-0.12
2.75
5.45
7.75
9.48
10.58
11.12
11.25
11.16
10.99
10.80
10.58
10.32
10.02
9.69
9.40
9.12
8.80
8.29
7.51
6.46
5.26
4.16
3.33
2.83
2.48
2.04
1.28
0.15
-1.19
-2.48
-3.50
-4.15
-4.57
-4.98
-5.58
-6.47
-7.71
-9.28
-11.19
-13.41
-15.78
-17.96
-19.55
-20.16
-19.58
-17.97
-15.65
-13.11
-10.76
-8.79
-7.15
-5.70
-4.35
-3.15
-2.30
-2.04
-2.49
-3.50
-4.70
-5.63
-5.96
-5.62
-4.80
-3.80
-2.83
-1.93
-1.04
-0.08
0.89
1.67
2.10
2.09
1.72
1.17
0.48
-0.38
-1.59
-3.33
-5.58
-8.08
-10.45
-12.33
-13.65
-14.55
-15.28
-15.99
-16.57
-16.76
-16.26
-14.94
-12.98
-10.67
-8.35
-6.20
-4.21
-2.24
-0.18
1.99
4.14
6.05
7.53
8.44
8.83
8.91
9.02
9.48
10.42
11.70
12.96
13.76
13.83
13.17
12.03
10.82
9.86
9.32
9.13
9.06
8.87
8.28
7.15
5.48
3.47
1.36
-0.57
-2.22
-3.71
-5.28
-7.19
-9.56
-12.26
-14.96
-17.20
-18.60
-18.94
-18.25
-16.73
-14.67
-12.43
-10.30
-8.50
-7.08
-6.04
-5.22
-4.47
-3.68
-2.80
-1.83
-0.86
0.02
0.73
1.26
1.70
2.25
3.20
4.80
7.19
10.32
13.88
17.43
20.51
22.71
23.83
23.86
22.99
21.51
19.80
18.23
17.12
16.69
17.00
17.90
19.11
20.20
20.75
20.45
19.22
17.23
14.95
12.93
11.69
11.50
12.22
13.37
14.25
14.23
13.04
10.84
8.13
5.55
3.59
2.38
1.72
1.21
0.48
-0.65
-2.13
-3.72
-5.14
-6.17
-6.67
-6.70
-6.41
-6.07
-6.05
-6.63
-8.03
-10.22
-13.00
-16.01
-18.87
-21.21
-22.83
-23.63
-23.62
-22.92
-21.74
-20.40
-19.22
-18.45
-18.11
-17.93
-17.48
-16.31
-14.25
-11.53
-8.72
-6.49
-5.37
-5.47
-6.48
-7.89
-9.11
-9.71
-9.51
-8.48
-6.77
-4.55
-2.10
0.25
2.22
3.67
4.71
5.61
6.71
8.15
9.88
11.53
12.70
13.05
12.47
11.08
9.16
6.96
4.69
2.46
0.35
-1.54
-3.15
-4.41
-5.33
-6.01
-6.56
-7.05
-7.46
-7.67
-7.54
-7.00
-6.07
-4.96
-3.87
-3.01
-2.46
-2.15
-1.92
-1.53
-0.82
0.24
1.54
2.86
3.96
4.71
5.20
5.62
6.22
7.12
8.20
9.18
9.67
9.38
8.22
6.34
4.08
1.87
0.08
-1.05
-1.50
-1.43
-1.17
-1.14
-1.66
-2.82
-4.45
-6.15
-7.39
-7.74
-6.91
-4.88
-1.82
1.92
5.88
9.63
12.81
15.19
16.71
17.40
17.33
16.59
15.24
13.34
11.00
8.38
5.74
3.28
1.19
-0.43
-1.48
-1.86
-1.48
-0.30
1.55
3.70
5.57
6.60
6.36
4.73
1.98
-1.47
-5.08
-8.46
-11.40
-13.81
-15.65
-16.93
-17.65
-17.83
-17.51
-16.71
-15.45
-13.79
-11.80
-9.60
-7.30
-4.96
-2.47
0.31
3.39
6.60
9.49
11.56
12.50
12.37
11.64
10.90
10.61
10.87
11.43
11.91
12.02
11.75
11.31
11.00
10.97
11.14
11.26
11.06
10.36
9.12
7.46
5.51
3.32
0.82
-2.12
-5.58
-9.44
-13.34
-16.67
-18.70
-18.86
-16.87
-12.92
-7.57
-1.63
4.08
8.89
12.35
14.31
14.79
13.96
12.08
9.51
6.63
3.85
1.54
-0.12
-1.07
-1.51
-1.63
-1.70
-1.81
-1.92
-1.92
-1.66
-1.10
-0.28
0.61
1.37
1.84
1.99
1.90
1.71
1.48
1.07
0.20
-1.52
-4.28
-7.90
-11.86
-15.41
-17.87
-18.89
-18.48
-16.94
-14.67
-12.01
-9.23
-6.58
-4.33
-2.69
-1.75
-1.41
-1.44
-1.52
-1.47
-1.22
-0.85
-0.46
-0.13
0.08
0.15
0.07
-0.13
-0.35
-0.43
-0.29
0.09
0.54
0.84
0.83
0.48
-0.06
-0.59
-1.00
-1.24
-1.46
-1.85
-2.58
-3.68
-5.06
-6.53
-7.82
-8.68
-8.81
-7.99
-6.09
-3.21
0.35
4.06
7.37
9.88
11.41
12.12
12.34
12.38
12.45
12.53
12.48
12.14
11.51
10.63
9.66
8.67
7.73
6.83
6.01
5.34
4.89
4.68
4.53
4.22
3.49
2.26
0.64
-1.10
-2.68
-3.96
-4.98
-5.91
-6.96
-8.22
-9.68
-11.21
-12.65
-13.84
-14.56
-14.61
-13.83
-12.17
-9.71
-6.74
-3.68
-0.94
1.23
2.78
3.86
4.74
5.66
6.77
8.09
9.53
11.00
12.37
13.50
14.30
14.71
14.69
14.27
13.54
12.58
11.52
10.43
9.33
8.18
6.91
5.47
3.76
1.78
-0.40
-2.60
-4.63
-6.34
-7.75
-9.00
-10.33
-11.92
-13.72
-15.50
-16.87
-17.42
-16.89
-15.20
-12.44
-8.89
-4.94
-1.01
2.47
5.21
7.10
8.28
9.06
9.75
10.56
11.52
12.50
13.27
13.67
13.64
13.23
12.61
11.93
11.32
10.85
10.53
10.29
10.05
9.66
8.96
7.81
6.13
3.94
1.39
-1.31
-3.89
-6.16
-8.04
-9.62
-11.08
-12.65
-14.51
-16.63
-18.85
-20.83
-22.25
-22.82
-22.35
-20.75
-18.03
-14.30
-9.84
-5.09
-0.59
3.13
5.72
7.06
7.35
6.90
6.08
5.11
4.11
3.12
2.15
1.25
0.51
0.07
0.01
0.36
1.02
1.85
2.68
3.46
4.21
4.96
5.73
6.41
6.83
6.82
6.37
5.56
4.60
3.62
2.61
1.42
-0.17
-2.34
-5.04
-8.03
-10.89
-13.16
-14.44
-14.56
-13.57
-11.73
-9.41
-6.96
-4.70
-2.81
-1.30
-0.12
0.80
1.48
1.94
2.22
2.41
2.60
2.92
3.44
4.15
4.96
5.72
6.30
6.63
6.73
6.67
6.55
6.42
6.38
6.41
6.48
6.56
6.55
6.36
5.85
4.97
3.72
2.20
0.61
-0.92
-2.32
-3.65
-5.02
-6.46
-7.89
-9.07
-9.68
-9.51
-8.50
-6.81
-4.68
-2.33
0.06
2.36
4.41
6.06
7.14
7.53
7.22
6.30
5.04
3.75
2.74
2.19
2.15
2.50
3.08
3.68
4.18
4.51
4.70
4.74
4.62
4.27
3.69
2.93
2.13
1.45
1.00
0.74
0.51
0.04
-0.78
-1.96
-3.37
-4.77
-5.98
-6.96
-7.78
-8.51
-9.11
-9.45
-9.32
-8.70
-7.65
-6.46
-5.35
-4.41
-3.48
-2.25
-0.51
1.67
3.99
6.04
7.51
8.35
8.74
8.93
9.12
9.29
9.29
8.99
8.28
7.21
5.97
4.78
3.80
3.11
2.62
2.12
1.41
0.38
-0.91
-2.26
-3.42
-4.28
-4.88
-5.42
-6.09
-6.96
-7.96
-8.97
-9.93
-10.85
-11.80
-12.80
-13.74
-14.39
-14.42
-13.65
-12.12
-10.12
-8.08
-6.35
-5.14
-4.35
-3.71
-2.93
-1.86
-0.58
0.72
1.80
2.51
2.88
2.99
2.89
2.61
2.10
1.45
0.73
0.13
-0.22
-0.29
-0.14
0.05
0.13
0.04
-0.17
-0.47
-0.86
-1.40
-2.22
-3.35
-4.79
-6.46
-8.30
-10.37
-12.72
-15.36
-18.10
-20.42
-21.68
-21.36
-19.27
-15.73
-11.41
-7.10
-3.36
-0.41
1.83
3.63
5.20
6.56
7.66
8.38
8.68
8.64
8.41
8.18
8.07
8.11
8.20
8.17
7.81
7.10
6.15
5.23
4.60
4.38
4.45
4.59
4.51
4.06
3.26
2.25
1.24
0.43
-0.04
-0.08
0.32
1.07
1.92
2.55
2.65
2.10
1.05
-0.16
-1.15
-1.63
-1.54
-1.04
-0.36
0.30
0.84
1.31
1.76
2.24
2.74
3.14
3.38
3.44
3.35
3.23
3.21
3.35
3.66
4.07
4.51
4.92
5.28
5.59
5.83
6.01
6.09
6.08
5.95
5.73
5.44
5.08
4.62
3.99
3.12
1.91
0.32
-1.58
-3.66
-5.71
-7.51
-8.89
-9.78
-10.21
-10.24
-9.99
-9.53
-8.89
-8.11
-7.17
-6.10
-4.91
-3.64
-2.36
-1.14
-0.11
0.64
1.09
1.35
1.62
2.13
3.04
4.32
5.78
7.14
8.15
8.68
8.74
8.45
7.95
7.37
6.73
5.96
4.91
3.48
1.64
-0.49
-2.67
-4.65
-6.26
-7.51
-8.55
-9.58
-10.73
-11.98
-13.16
-14.01
-14.34
-14.00
-12.97
-11.25
-8.89
-6.04
-2.92
0.18
2.89
4.91
6.10
6.42
6.02
5.15
4.06
2.95
1.95
1.14
0.52
0.04
-0.34
-0.65
-0.87
-0.91
-0.70
-0.19
0.57
1.40
2.05
2.31
2.01
1.14
-0.15
-1.64
-3.07
-4.19
-4.95
-5.41
-5.77
-6.26
-7.08
-8.29
-9.77
-11.31
-12.66
-13.58
-13.94
-13.69
-12.85
-11.50
-9.77
-7.81
-5.78
-3.84
-2.15
-0.77
0.27
1.03
1.58
1.98
2.29
2.49
2.64
2.82
3.14
3.72
4.57
5.56
6.47
7.10
7.26
6.94
6.20
5.23
4.16
3.10
2.08
1.14
0.32
-0.37
-0.90
-1.34
-1.77
-2.32
-3.11
-4.09
-5.11
-5.82
-5.90
-5.12
-3.54
-1.46
0.70
2.52
3.77
4.46
4.80
5.05
5.41
5.98
6.72
7.51
8.20
8.68
8.89
8.81
8.52
8.11
7.65
7.19
6.72
6.24
5.72
5.15
4.55
3.96
3.37
2.74
2.01
1.12
0.06
-1.13
-2.38
-3.60
-4.71
-5.75
-6.81
-8.04
-9.49
-11.07
-12.49
-13.41
-13.52
-12.74
-11.24
-9.34
-7.43
-5.79
-4.56
-3.76
-3.31
-3.14
-3.16
-3.26
-3.27
-3.02
-2.40
-1.35
0.05
1.67
3.38
5.08
6.75
8.39
10.02
11.64
13.22
14.67
15.82
16.49
16.45
15.57
13.84
11.41
8.63
5.92
3.61
1.87
0.62
-0.35
-1.34
-2.57
-4.08
-5.74
-7.26
-8.31
-8.60
-7.99
-6.58
-4.62
-2.49
-0.60
0.74
1.43
1.60
1.55
1.70
2.38
3.65
5.34
7.03
8.31
8.97
9.10
9.04
9.10
9.39
9.71
9.70
9.11
7.92
6.46
5.20
4.42
4.12
4.05
3.83
3.24
2.28
1.08
-0.12
-1.18
-2.04
-2.72
-3.35
-4.14
-5.31
-7.01
-9.15
-11.35
-13.06
-13.79
-13.36
-11.97
-10.15
-8.49
-7.41
-7.05
-7.32
-8.02
-8.90
-9.73
-10.35
-10.61
-10.43
-9.79
-8.72
-7.33
-5.75
-4.15
-2.70
-1.57
-0.81
-0.29
0.12
0.63
1.27
1.91
2.28
2.20
1.59
0.57
-0.62
-1.73
-2.66
-3.42
-4.07
-4.72
-5.40
-6.13
-6.95
-7.88
-8.89
-9.83
-10.41
-10.29
-9.19
-7.10
-4.26
-1.26
1.35
3.14
4.04
4.24
4.12
4.02
4.14
4.49
5.02
5.68
6.42
7.27
8.17
9.01
9.63
9.91
9.79
9.37
8.80
8.22
7.66
7.05
6.23
5.12
3.73
2.25
0.90
-0.12
-0.74
-1.02
-1.15
-1.38
-1.95
-3.01
-4.55
-6.38
-8.18
-9.53
-10.06
-9.63
-8.37
-6.56
-4.57
-2.62
-0.77
0.98
2.58
3.91
4.78
5.15
5.16
5.14
5.42
6.17
7.25
8.35
9.08
9.28
8.96
8.37
7.77
7.35
7.15
7.07
6.95
6.66
6.13
5.30
4.19
2.81
1.22
-0.48
-2.20
-3.80
-5.22
-6.43
-7.44
-8.30
-9.04
-9.65
-10.02
-10.03
-9.56
-8.59
-7.22
-5.65
-4.09
-2.70
-1.52
-0.45
0.61
1.77
3.02
4.29
5.50
6.59
7.56
8.44
9.28
10.00
10.47
10.52
10.05
9.13
8.01
7.01
6.39
6.28
6.60
7.13
7.62
7.81
7.55
6.88
5.91
4.87
3.93
3.23
2.67
2.03
0.99
-0.70
-3.07
-5.88
-8.67
-10.92
-12.20
-12.33
-11.36
-9.62
-7.48
-5.35
-3.55
-2.23
-1.44
-1.12
-1.11
-1.22
-1.28
-1.09
-0.52
0.42
1.63
2.89
4.00
4.81
5.34
5.71
6.01
6.35
6.68
6.90
6.86
6.40
5.50
4.15
2.44
0.46
-1.71
-3.95
-6.15
-8.18
-9.96
-11.52
-12.98
-14.52
-16.23
-18.08
-19.83
-21.07
-21.42
-20.66
-18.86
-16.38
-13.72
-11.30
-9.36
-7.93
-6.85
-5.98
-5.22
-4.54
-3.90
-3.22
-2.38
-1.27
0.11
1.58
2.90
3.85
4.40
4.74
5.18
5.96
7.20
8.74
10.34
11.65
12.43
12.49
11.81
10.50
8.79
6.98
5.34
3.97
2.78
1.48
-0.19
-2.42
-5.10
-7.97
-10.61
-12.59
-13.64
-13.58
-12.46
-10.43
-7.76
-4.76
-1.81
0.81
2.90
4.43
5.46
6.14
6.66
7.17
7.81
8.66
9.74
11.00
12.38
13.71
14.80
15.48
15.67
15.36
14.68
13.79
12.85
11.95
11.12
10.30
9.43
8.40
7.10
5.52
3.63
1.49
-0.83
-3.23
-5.59
-7.86
-9.95
-11.73
-13.00
-13.62
-13.48
-12.60
-11.13
-9.27
-7.19
-5.05
-2.94
-0.89
1.00
2.67
4.02
4.95
5.47
5.68
5.75
5.90
6.23
6.80
7.53
8.25
8.80
9.12
9.22
9.13
8.95
8.65
8.20
7.58
6.79
5.87
4.93
4.07
3.34
2.74
2.20
1.53
0.62
-0.61
-2.14
-3.84
-5.58
-7.16
-8.47
-9.38
-9.78
-9.57
-8.72
-7.23
-5.26
-3.05
-0.91
0.88
2.13
2.82
3.05
2.96
2.70
2.40
2.14
2.04
2.18
2.66
3.46
4.49
5.58
6.56
7.35
7.91
8.33
8.71
9.16
9.75
10.44
11.12
11.50
11.26
10.14
8.09
5.29
2.13
-1.02
-3.87
-6.31
-8.43
-10.30
-11.96
-13.39
-14.60
-15.62
-16.54
-17.41
-18.13
-18.47
-18.13
-16.98
-15.12
-12.86
-10.59
-8.54
-6.76
-5.12
-3.50
-1.92
-0.58
0.29
0.58
0.36
-0.07
-0.46
-0.63
-0.61
-0.45
-0.25
-0.07
0.15
0.45
0.87
1.45
2.23
3.21
4.32
5.43
6.25
6.58
6.23
5.21
3.64
1.76
-0.16
-1.91
-3.35
-4.47
-5.40
-6.32
-7.41
-8.69
-10.02
-11.06
-11.50
-11.08
-9.82
-7.95
-5.82
-3.75
-1.91
-0.34
1.02
2.23
3.32
4.29
5.15
6.00
6.89
7.94
9.14
10.40
11.54
12.38
12.86
12.98
12.84
12.54
12.15
11.70
11.22
10.70
10.14
9.50
8.66
7.47
5.80
3.65
1.19
-1.24
-3.28
-4.67
-5.40
-5.69
-5.92
-6.43
-7.39
-8.69
-10.02
-10.99
-11.29
-10.78
-9.50
-7.66
-5.47
-3.27
-1.28
0.35
1.57
2.48
3.25
3.99
4.83
5.76
6.70
7.55
8.21
8.64
8.86
8.93
8.91
8.85
8.76
8.62
8.39
8.00
7.41
6.67
5.84
4.97
4.06
3.00
1.69
0.10
-1.72
-3.56
-5.18
-6.34
-6.98
-7.21
-7.32
-7.58
-8.17
-9.02
-9.89
-10.42
-10.29
-9.39
-7.82
-5.85
-3.78
-1.84
-0.09
1.46
2.87
4.08
4.99
5.51
5.61
5.41
5.12
4.99
5.19
5.73
6.44
7.08
7.44
7.46
7.16
6.66
6.09
5.51
4.96
4.40
3.76
2.98
1.98
0.72
-0.65
-1.94
-2.91
-3.43
-3.57
-3.62
-3.92
-4.79
-6.25
-8.09
-9.99
-11.62
-12.82
-13.57
-13.90
-13.79
-13.23
-12.11
-10.36
-8.02
-5.19
-2.10
0.96
3.63
5.62
6.69
6.80
6.03
4.51
2.50
0.25
-2.01
-3.97
-5.38
-6.10
-6.14
-5.71
-5.15
-4.78
-4.79
-5.17
-5.72
-6.20
-6.42
-6.24
-5.67
-4.81
-3.82
-2.95
-2.50
-2.69
-3.57
-5.01
-6.63
-7.99
-8.74
-8.66
-7.82
-6.41
-4.67
-2.81
-0.94
0.86
2.51
3.93
5.08
5.98
6.69
7.27
7.74
8.09
8.27
8.26
8.05
7.74
7.42
7.14
6.93
6.80
6.73
6.69
6.55
6.14
5.28
3.85
1.90
-0.28
-2.32
-3.81
-4.60
-4.78
-4.73
-4.86
-5.52
-6.80
-8.42
-9.98
-10.96
-10.98
-9.92
-7.88
-5.20
-2.29
0.46
2.76
4.41
5.32
5.54
5.22
4.61
4.05
3.82
4.11
4.93
6.08
7.32
8.40
9.17
9.60
9.76
9.74
9.64
9.50
9.30
9.00
8.56
7.94
7.08
5.97
4.58
3.01
1.39
-0.11
-1.38
-2.45
-3.39
-4.32
-5.34
-6.36
-7.24
-7.74
-7.72
-7.15
-6.15
-4.91
-3.58
-2.27
-1.01
0.19
1.32
2.37
3.34
4.25
5.07
5.80
6.40
6.83
7.07
7.09
6.89
6.52
6.04
5.52
5.06
4.74
4.56
4.50
4.48
4.41
4.15
3.56
2.51
0.90
-1.24
-3.75
-6.29
-8.52
-10.22
-11.38
-12.21
-13.01
-13.96
-15.04
-16.00
-16.50
-16.29
-15.37
-13.91
-12.24
-10.63
-9.22
-7.97
-6.79
-5.53
-4.14
-2.61
-1.01
0.56
2.03
3.33
4.43
5.27
5.80
5.99
5.81
5.34
4.69
4.05
3.62
3.53
3.74
4.09
4.25
3.90
2.89
1.22
-0.87
-2.99
-4.82
-6.17
-7.04
-7.63
-8.14
-8.73
-9.40
-10.02
-10.39
-10.30
-9.59
-8.25
-6.39
-4.27
-2.20
-0.45
0.90
1.99
2.99
4.08
5.22
6.20
6.75
6.74
6.26
5.62
5.18
5.12
5.39
5.83
6.27
6.71
7.30
8.12
9.19
10.30
11.17
11.60
11.50
10.99
10.22
9.34
8.38
7.25
5.87
4.14
2.10
-0.19
-2.58
-4.88
-6.91
-8.48
-9.48
-9.81
-9.47
-8.51
-7.01
-5.18
-3.23
-1.44
0.00
0.99
1.59
1.97
2.41
3.09
4.09
5.36
6.71
7.96
8.93
9.53
9.76
9.72
9.55
9.34
9.15
8.93
8.68
8.35
7.90
7.33
6.56
5.55
4.28
2.83
1.39
0.19
-0.68
-1.29
-1.97
-3.17
-5.13
-7.82
-10.79
-13.43
-15.13
-15.56
-14.79
-13.18
-11.17
-9.15
-7.32
-5.71
-4.29
-2.93
-1.50
0.10
1.95
3.99
6.10
8.13
9.90
11.33
12.41
13.22
13.80
14.23
14.55
14.83
15.05
15.20
15.15
14.70
13.72
12.13
10.06
7.77
5.55
3.54
1.72
-0.08
-2.05
-4.22
-6.48
-8.62
-10.44
-11.90
-13.05
-13.97
-14.64
-14.95
-14.70
-13.84
-12.53
-11.10
-9.92
-9.18
-8.81
-8.47
-7.78
-6.51
-4.69
-2.61
-0.63
0.97
2.08
2.74
3.12
3.40
3.79
4.38
5.15
5.98
6.66
7.04
6.99
6.55
5.87
5.04
4.15
3.20
2.20
1.16
0.15
-0.74
-1.51
-2.20
-2.95
-3.84
-4.93
-6.18
-7.51
-8.89
-10.30
-11.75
-13.14
-14.29
-14.91
-14.76
-13.77
-12.15
-10.32
-8.71
-7.63
-7.09
-6.85
-6.60
-6.14
-5.43
-4.60
-3.78
-3.01
-2.16
-1.09
0.31
2.02
3.89
5.68
7.21
8.35
9.12
9.60
9.83
9.90
9.81
9.63
9.39
9.07
8.56
7.71
6.36
4.48
2.19
-0.26
-2.60
-4.64
-6.36
-7.86
-9.23
-10.46
-11.39
-11.78
-11.42
-10.30
-8.54
-6.42
-4.22
-2.15
-0.30
1.36
2.88
4.34
5.71
6.89
7.75
8.25
8.39
8.37
8.40
8.67
9.26
10.09
10.93
11.48
11.51
10.95
9.92
8.72
7.62
6.75
6.02
5.21
4.11
2.59
0.76
-1.12
-2.74
-3.90
-4.55
-4.82
-4.91
-5.02
-5.32
-5.89
-6.67
-7.51
-8.14
-8.20
-7.41
-5.66
-3.11
-0.20
2.50
4.53
5.67
6.02
5.86
5.61
5.49
5.62
5.95
6.39
6.87
7.32
7.72
8.03
8.23
8.28
8.18
7.97
7.67
7.40
7.21
7.15
7.17
7.07
6.64
5.67
4.16
2.24
0.22
-1.59
-3.01
-3.99
-4.70
-5.33
-6.12
-7.13
-8.30
-9.44
-10.29
-10.60
-10.21
-9.08
-7.33
-5.22
-3.10
-1.34
-0.18
0.33
0.37
0.27
0.34
0.76
1.51
2.39
3.17
3.67
3.90
3.86
3.62
3.19
2.55
1.68
0.70
-0.22
-0.91
-1.18
-1.02
-0.55
0.00
0.41
0.46
0.06
-0.76
-1.94
-3.33
-4.79
-6.15
-7.33
-8.28
-9.09
-9.90
-10.87
-12.04
-13.30
-14.35
-14.83
-14.47
-13.32
-11.63
-9.81
-8.21
-6.96
-5.95
-4.91
-3.63
-2.06
-0.41
1.05
2.13
2.79
3.19
3.52
3.91
4.36
4.74
4.91
4.84
4.60
4.35
4.17
4.07
3.96
3.71
3.27
2.59
1.79
0.93
0.10
-0.68
-1.47
-2.35
-3.43
-4.80
-6.42
-8.16
-9.76
-10.93
-11.44
-11.13
-10.01
-8.18
-5.78
-2.99
-0.00
3.03
5.92
8.51
10.69
12.32
13.34
13.74
13.61
13.10
12.41
11.67
11.01
10.40
9.79
9.10
8.37
7.70
7.19
6.89
6.69
6.45
6.05
5.46
4.83
4.29
3.91
3.62
3.20
2.43
1.15
-0.64
-2.91
-5.52
-8.31
-11.06
-13.49
-15.21
-15.92
-15.40
-13.67
-10.97
-7.72
-4.44
-1.59
0.53
1.86
2.58
3.01
3.41
3.92
4.58
5.29
5.98
6.64
7.31
8.05
8.89
9.76
10.54
11.07
11.22
10.91
10.09
8.84
7.30
5.65
4.06
2.60
1.32
0.22
-0.70
-1.45
-2.12
-2.85
-3.86
-5.31
-7.22
-9.42
-11.58
-13.22
-13.98
-13.70
-12.48
-10.70
-8.87
-7.36
-6.34
-5.70
-5.15
-4.34
-3.03
-1.20
0.96
3.15
5.06
6.39
7.00
6.90
6.19
5.03
3.63
2.20
0.90
-0.13
-0.84
-1.25
-1.46
-1.62
-1.89
-2.35
-3.02
-3.81
-4.63
-5.47
-6.35
-7.36
-8.55
-9.88
-11.22
-12.33
-12.93
-12.82
-11.93
-10.36
-8.39
-6.40
-4.70
-3.50
-2.84
-2.57
-2.53
-2.53
-2.45
-2.20
-1.67
-0.79
0.47
2.04
3.72
5.25
6.49
7.39
8.04
8.59
9.11
9.49
9.52
9.01
7.85
6.17
4.21
2.21
0.34
-1.36
-2.89
-4.22
-5.22
-5.86
-6.08
-6.00
-5.86
-5.88
-6.16
-6.59
-6.88
-6.71
-5.83
-4.27
-2.29
-0.22
1.63
3.05
3.97
4.46
4.62
4.58
4.41
4.11
3.67
3.07
2.40
1.79
1.44
1.49
2.01
2.96
4.13
5.38
6.59
7.70
8.67
9.41
9.76
9.53
8.67
7.23
5.46
3.61
1.89
0.41
-0.85
-1.99
-3.11
-4.24
-5.41
-6.58
-7.65
-8.46
-8.76
-8.36
-7.10
-5.08
-2.53
0.19
2.71
4.80
6.39
7.57
8.43
9.11
9.67
10.10
10.41
10.56
10.52
10.28
9.84
9.16
8.24
7.10
5.81
4.49
3.26
2.21
1.36
0.66
-0.01
-0.77
-1.70
-2.78
-3.91
-5.04
-6.08
-7.02
-7.85
-8.58
-9.18
-9.62
-9.91
-10.08
-10.21
-10.38
-10.51
-10.40
-9.80
-8.53
-6.66
-4.47
-2.36
-0.70
0.36
0.90
1.22
1.69
2.61
4.11
6.12
8.45
10.85
13.09
14.99
16.44
17.41
17.86
17.80
17.23
16.18
14.68
12.83
10.78
8.73
6.91
5.51
4.57
3.93
3.26
2.09
-0.00
-3.23
-7.51
-12.46
-17.49
-21.93
-25.29
-27.23
-27.68
-26.80
-24.88
-22.31
-19.49
-16.67
-13.91
-11.15
-8.24
-5.16
-2.10
0.60
2.61
3.85
4.54
5.16
6.15
7.66
9.47
11.11
12.16
12.48
12.29
12.05
12.13
12.69
13.55
14.27
14.40
13.57
11.67
8.78
5.23
1.44
-2.10
-4.95
-6.82
-7.66
-7.67
-7.26
-7.01
-7.51
-9.15
-11.99
-15.72
-19.71
-23.14
-25.34
-25.91
-24.85
-22.39
-18.81
-14.22
-8.52
-1.55
6.59
15.24
23.19
28.96
31.26
29.64
24.65
17.84
11.27
6.82
5.60
7.63
11.90
16.81
20.74
22.55
21.80
18.76
14.08
8.40
2.06
-4.85
-12.43
-20.63
-29.05
-37.00
-43.62
-48.18
-50.30
-49.99
-47.54
-43.33
-37.69
-30.86
-23.07
-14.70
-6.26
1.67
8.53
13.94
17.74
19.96
20.77
20.43
19.28
17.76
16.39
15.62
15.74
16.68
18.10
19.49
20.45
20.87
20.93
21.01
21.41
22.28
23.41
24.44
24.93
24.51
22.84
19.78
15.25
9.30
2.21
-5.48
-12.96
-19.29
-23.59
-25.42
-24.88
-22.71
-19.95
-17.64
-16.43
-16.25
-16.50
-16.29
-14.91
-12.10
-8.18
-3.86
-0.04
2.56
3.63
3.28
1.96
0.23
-1.39
-2.60
-3.31
-3.57
-3.46
-3.05
-2.41
-1.62
-0.74
0.25
1.55
3.44
6.19
9.66
13.33
16.36
18.00
17.90
16.33
13.99
11.72
10.13
9.34
9.12
9.10
9.01
8.79
8.46
8.06
7.61
7.11
6.65
6.41
6.66
7.52
8.95
10.53
11.67
11.78
10.48
7.78
4.01
-0.27
-4.52
-8.26
-11.17
-13.20
-14.42
-15.06
-15.41
-15.74
-16.20
-16.70
-16.96
-16.57
-15.23
-12.95
-10.06
-7.13
-4.72
-3.18
-2.54
-2.55
-2.84
-3.16
-3.37
-3.50
-3.53
-3.34
-2.71
-1.54
0.01
1.54
2.51
2.56
1.67
0.18
-1.39
-2.66
-3.45
-3.92
-4.25
-4.53
-4.64
-4.44
-3.83
-2.97
-2.16
-1.73
-1.89
-2.57
-3.48
-4.25
-4.54
-4.23
-3.39
-2.26
-1.07
0.04
1.09
2.15
3.34
4.65
5.98
7.10
7.76
7.84
7.37
6.54
5.61
4.82
4.36
4.24
4.32
4.38
4.14
3.39
2.08
0.34
-1.60
-3.43
-4.94
-6.05
-6.81
-7.33
-7.70
-8.01
-8.28
-8.52
-8.73
-8.87
-8.80
-8.35
-7.33
-5.63
-3.28
-0.51
2.35
4.94
6.98
8.39
9.22
9.58
9.64
9.50
9.25
8.98
8.78
8.76
8.99
9.41
9.82
9.97
9.64
8.83
7.75
6.76
6.15
6.04
6.23
6.36
6.00
4.93
3.18
1.04
-1.08
-2.83
-4.03
-4.77
-5.25
-5.68
-6.14
-6.59
-6.91
-7.02
-6.93
-6.71
-6.38
-5.93
-5.20
-4.08
-2.53
-0.70
1.16
2.84
4.23
5.36
6.27
7.04
7.69
8.26
8.80
9.41
10.14
10.99
11.89
12.72
13.35
13.66
13.64
13.28
12.68
11.98
11.28
10.63
9.89
8.81
7.16
4.81
1.91
-1.22
-4.22
-6.82
-9.00
-10.90
-12.70
-14.47
-16.09
-17.31
-17.90
-17.76
-16.89
-15.39
-13.36
-10.92
-8.23
-5.51
-3.00
-0.90
0.72
1.93
2.88
3.72
4.50
5.21
5.85
6.53
7.41
8.59
9.94
11.08
11.51
10.88
9.16
6.68
4.01
1.68
-0.02
-1.09
-1.80
-2.49
-3.38
-4.54
-5.86
-7.14
-8.18
-8.90
-9.35
-9.72
-10.29
-11.30
-12.88
-14.96
-17.25
-19.33
-20.79
-21.33
-20.83
-19.38
-17.19
-14.61
-11.94
-9.41
-7.16
-5.19
-3.38
-1.65
0.07
1.73
3.19
4.37
5.25
5.89
6.41
6.90
7.36
7.79
8.23
8.71
9.26
9.87
10.41
10.71
10.63
10.15
9.35
8.45
7.56
6.75
5.96
5.05
3.99
2.77
1.48
0.12
-1.33
-2.93
-4.70
-6.49
-8.00
-8.87
-8.85
-7.95
-6.38
-4.49
-2.56
-0.75
0.93
2.53
4.08
5.51
6.71
7.58
8.17
8.58
8.96
9.37
9.77
10.03
9.99
9.53
8.74
7.83
7.12
6.80
6.91
7.22
7.43
7.23
6.53
5.40
4.00
2.50
0.97
-0.51
-1.91
-3.14
-4.12
-4.81
-5.24
-5.53
-5.76
-5.89
-5.72
-4.99
-3.57
-1.51
0.85
3.08
4.81
5.92
6.51
6.84
7.16
7.50
7.74
7.65
7.13
6.27
5.34
4.58
4.07
3.74
3.33
2.68
1.71
0.59
-0.40
-0.99
-1.07
-0.72
-0.18
0.21
0.21
-0.29
-1.25
-2.50
-3.85
-5.12
-6.24
-7.19
-8.10
-9.15
-10.47
-12.06
-13.75
-15.21
-16.03
-15.87
-14.59
-12.27
-9.23
-5.89
-2.67
0.14
2.42
4.28
5.90
7.46
9.04
10.58
11.89
12.73
13.03
12.79
12.22
11.52
10.85
10.30
9.93
9.67
9.48
9.28
8.92
8.30
7.41
6.29
5.10
4.04
3.22
2.64
2.16
1.56
0.67
-0.51
-1.90
-3.27
-4.51
-5.68
-7.02
-8.80
-11.16
-13.91
-16.57
-18.54
-19.36
-18.85
-17.28
-15.17
-13.10
-11.48
-10.38
-9.61
-8.85
-7.74
-6.14
-4.17
-2.14
-0.30
1.14
2.18
2.89
3.25
3.21
2.63
1.44
-0.19
-1.91
-3.26
-3.95
-3.96
-3.59
-3.26
-3.36
-4.05
-5.28
-6.86
-8.51
-10.00
-11.14
-11.86
-12.15
-12.17
-12.10
-12.12
-12.26
-12.38
-12.17
-11.33
-9.76
-7.58
-5.15
-2.82
-0.83
0.81
2.14
3.25
4.11
4.61
4.73
4.51
4.14
3.91
3.99
4.50
5.37
6.44
7.47
8.30
8.77
8.92
8.86
8.73
8.59
8.45
8.25
7.96
7.62
7.31
7.17
7.25
7.49
7.76
7.86
7.56
6.64
4.95
2.47
-0.59
-3.73
-6.35
-7.93
-8.21
-7.28
-5.52
-3.38
-1.23
0.74
2.47
3.89
4.97
5.64
5.89
5.79
5.51
5.20
4.99
4.94
5.02
5.16
5.27
5.24
5.09
4.87
4.75
4.86
5.27
5.92
6.59
6.99
6.83
6.02
4.61
2.79
0.77
-1.23
-3.07
-4.68
-6.07
-7.34
-8.63
-10.00
-11.39
-12.54
-13.11
-12.85
-11.71
-9.97
-8.09
-6.46
-5.28
-4.48
-3.77
-2.97
-2.06
-1.20
-0.58
-0.28
-0.21
-0.11
0.20
0.86
1.83
2.96
4.08
5.11
6.01
6.88
7.82
8.87
9.96
10.95
11.65
11.86
11.51
10.64
9.37
7.79
5.94
3.80
1.37
-1.24
-3.77
-5.97
-7.67
-8.84
-9.58
-10.00
-10.08
-9.65
-8.52
-6.57
-3.98
-1.21
1.18
2.77
3.40
3.34
3.04
2.94
3.32
4.15
5.16
5.97
6.35
6.23
5.77
5.21
4.78
4.50
4.26
3.87
3.17
2.22
1.19
0.33
-0.17
-0.32
-0.32
-0.43
-0.86
-1.65
-2.72
-3.87
-4.91
-5.71
-6.26
-6.64
-7.01
-7.52
-8.32
-9.45
-10.89
-12.44
-13.80
-14.63
-14.61
-13.62
-11.78
-9.48
-7.21
-5.41
-4.27
-3.71
-3.43
-3.17
-2.82
-2.51
-2.48
-2.95
-3.87
-4.99
-5.90
-6.23
-5.81
-4.79
-3.59
-2.69
-2.45
-2.99
-4.14
-5.58
-6.93
-7.91
-8.43
-8.53
-8.37
-8.03
-7.55
-6.90
-6.02
-4.88
-3.42
-1.63
0.53
3.08
5.98
9.04
11.93
14.21
15.45
15.37
13.89
11.20
7.62
3.49
-0.81
-4.95
-8.56
-11.25
-12.69
-12.76
-11.56
-9.51
-7.14
-4.92
-3.14
-1.82
-0.83
0.03
0.87
1.69
2.44
3.01
3.38
3.64
3.96
4.47
5.24
6.14
7.01
7.62
7.85
7.73
7.48
7.30
7.34
7.58
7.89
8.14
8.25
8.26
8.25
8.18
7.97
7.48
6.66
5.56
4.28
2.88
1.34
-0.46
-2.48
-4.53
-6.21
-7.06
-6.81
-5.49
-3.45
-1.16
0.97
2.73
4.18
5.50
6.89
8.41
9.95
11.23
11.98
12.04
11.41
10.31
9.01
7.80
6.80
6.07
5.54
5.11
4.71
4.35
4.06
3.88
3.82
3.79
3.60
3.03
1.94
0.33
-1.62
-3.59
-5.34
-6.65
-7.48
-7.84
-7.83
-7.59
-7.30
-7.14
-7.18
-7.38
-7.47
-7.17
-6.20
-4.54
-2.41
-0.22
1.61
2.84
3.50
3.79
4.01
4.34
4.83
5.26
5.36
4.91
3.92
2.68
1.63
1.21
1.64
2.84
4.41
5.86
6.86
7.31
7.40
7.38
7.43
7.58
7.75
7.83
7.78
7.58
7.13
6.28
4.84
2.74
0.15
-2.58
-5.04
-6.91
-8.21
-9.16
-10.03
-11.01
-12.06
-12.92
-13.28
-12.86
-11.57
-9.52
-6.96
-4.19
-1.47
1.02
3.18
4.93
6.18
6.83
6.88
6.44
5.71
5.00
4.58
4.58
4.93
5.47
5.95
6.18
6.04
5.55
4.79
3.91
3.03
2.24
1.55
0.95
0.36
-0.36
-1.35
-2.73
-4.62
-6.97
-9.60
-12.17
-14.29
-15.69
-16.36
-16.52
-16.56
-16.82
-17.46
-18.36
-19.29
-19.96
-20.17
-19.89
-19.18
-18.17
-17.03
-15.87
-14.75
-13.65
-12.41
-10.87
-8.91
-6.61
-4.16
-1.88
0.04
1.55
2.83
4.17
5.77
7.65
9.56
11.17
12.20
12.56
12.43
12.13
11.95
12.01
12.17
12.16
11.76
10.91
9.79
8.75
8.04
7.66
7.33
6.66
5.27
3.11
0.47
-2.08
-3.88
-4.46
-3.72
-1.98
0.17
2.07
3.25
3.54
3.12
2.39
1.79
1.63
2.00
2.79
3.76
4.66
5.33
5.78
6.07
6.27
6.40
6.40
6.17
5.71
5.12
4.63
4.40
4.50
4.75
4.83
4.39
3.25
1.46
-0.70
-2.83
-4.57
-5.78
-6.45
-6.78
-7.02
-7.36
-7.89
-8.52
-9.11
-9.49
-9.60
-9.43
-9.05
-8.56
-7.93
-7.17
-6.21
-5.06
-3.71
-2.31
-0.93
0.33
1.49
2.61
3.76
4.96
6.17
7.29
8.24
9.02
9.64
10.12
10.47
10.60
10.38
9.72
8.67
7.40
6.14
5.10
4.34
3.76
3.18
2.44
1.47
0.32
-0.93
-2.24
-3.56
-4.90
-6.17
-7.21
-7.79
-7.74
-6.92
-5.41
-3.40
-1.17
0.95
2.72
3.97
4.68
4.92
4.86
4.62
4.31
3.99
3.72
3.54
3.50
3.60
3.79
3.95
3.92
3.65
3.23
2.86
2.78
3.12
3.84
4.70
5.39
5.59
5.14
4.08
2.60
0.97
-0.58
-1.88
-2.94
-3.81
-4.60
-5.38
-6.17
-6.93
-7.55
-7.89
-7.86
-7.48
-6.89
-6.28
-5.89
-5.84
-6.12
-6.57
-6.98
-7.18
-7.06
-6.64
-5.94
-5.02
-3.92
-2.69
-1.51
-0.57
-0.11
-0.23
-0.84
-1.68
-2.43
-2.81
-2.76
-2.36
-1.85
-1.42
-1.24
-1.35
-1.73
-2.34
-3.16
-4.13
-5.20
-6.21
-7.08
-7.75
-8.28
-8.83
-9.59
-10.67
-12.04
-13.43
-14.47
-14.84
-14.36
-13.10
-11.36
-9.50
-7.79
-6.30
-4.95
-3.63
-2.28
-0.88
0.59
2.19
4.04
6.24
8.72
11.21
13.28
14.55
14.87
14.39
13.45
12.44
11.55
10.72
9.74
8.45
6.92
5.42
4.28
3.70
3.69
4.01
4.41
4.70
4.79
4.62
4.06
2.97
1.26
-0.91
-3.22
-5.18
-6.38
-6.66
-6.15
-5.20
-4.15
-3.18
-2.35
-1.56
-0.77
-0.01
0.58
0.90
0.91
0.76
0.73
1.08
1.91
3.17
4.64
6.01
7.07
7.72
8.00
8.05
8.03
8.02
8.03
7.96
7.69
7.19
6.48
5.62
4.67
3.64
2.55
1.45
0.41
-0.47
-1.18
-1.81
-2.53
-3.51
-4.73
-6.05
-7.16
-7.85
-8.01
-7.68
-6.97
-5.92
-4.52
-2.86
-1.11
0.51
1.83
2.83
3.63
4.31
4.90
5.28
5.31
4.99
4.54
4.31
4.53
5.14
5.81
6.11
5.79
4.89
3.75
2.82
2.43
2.64
3.26
3.98
4.45
4.43
3.85
2.81
1.49
0.16
-1.02
-1.94
-2.63
-3.26
-3.95
-4.79
-5.70
-6.50
-7.00
-7.00
-6.46
-5.50
-4.42
-3.48
-2.84
-2.45
-2.10
-1.54
-0.69
0.33
1.21
1.65
1.60
1.29
1.22
1.82
3.27
5.34
7.54
9.30
10.29
10.48
10.10
9.41
8.59
7.66
6.48
4.89
2.84
0.43
-2.14
-4.66
-6.91
-8.81
-10.36
-11.58
-12.52
-13.25
-13.88
-14.55
-15.36
-16.34
-17.40
-18.37
-19.00
-19.07
-18.48
-17.33
-15.82
-14.17
-12.56
-11.05
-9.60
-8.17
-6.71
-5.18
-3.64
-2.15
-0.77
0.42
1.46
2.39
3.31
4.25
5.24
6.23
7.19
8.10
9.01
9.96
10.98
11.99
12.77
13.02
12.52
11.22
9.29
7.02
4.72
2.61
0.76
-0.86
-2.36
-3.86
-5.42
-7.04
-8.70
-10.28
-11.57
-12.31
-12.27
-11.32
-9.56
-7.32
-4.97
-2.83
-1.01
0.54
2.00
3.53
5.13
6.72
8.09
9.15
9.83
10.27
10.60
10.96
11.40
11.84
12.05
11.88
11.28
10.41
9.59
9.08
8.99
9.21
9.46
9.43
8.93
7.89
6.33
4.34
2.07
-0.26
-2.33
-3.91
-4.91
-5.48
-5.90
-6.39
-6.96
-7.33
-7.22
-6.39
-4.93
-3.09
-1.23
0.41
1.72
2.63
3.08
2.91
2.03
0.47
-1.47
-3.35
-4.72
-5.29
-5.02
-4.06
-2.71
-1.23
0.15
1.29
2.15
2.72
3.14
3.53
4.03
4.64
5.26
5.72
5.85
5.64
5.17
4.57
3.97
3.38
2.78
2.17
1.57
0.94
0.20
-0.87
-2.41
-4.32
-6.26
-7.65
-8.01
-7.15
-5.27
-2.83
-0.41
1.57
2.88
3.43
3.29
2.62
1.66
0.68
-0.05
-0.41
-0.42
-0.28
-0.18
-0.19
-0.21
-0.08
0.32
0.95
1.62
2.13
2.38
2.47
2.67
3.20
4.11
5.25
6.33
7.07
7.36
7.21
6.68
5.84
4.71
3.28
1.57
-0.33
-2.33
-4.38
-6.44
-8.44
-10.27
-11.72
-12.59
-12.74
-12.22
-11.24
-10.01
-8.73
-7.44
-6.12
-4.75
-3.41
-2.28
-1.56
-1.34
-1.57
-2.04
-2.57
-3.03
-3.46
-3.93
-4.59
-5.44
-6.40
-7.29
-7.95
-8.27
-8.26
-8.05
-7.82
-7.78
-8.05
-8.60
-9.28
-9.80
-9.89
-9.40
-8.39
-7.14
-6.00
-5.30
-5.22
-5.69
-6.44
-7.03
-7.06
-6.25
-4.63
-2.48
-0.23
1.68
3.01
3.84
4.39
4.96
5.71
6.62
7.55
8.32
8.85
9.14
9.25
9.27
9.19
9.02
8.78
8.53
8.42
8.58
9.05
9.75
10.39
10.64
10.28
9.31
7.93
6.50
5.31
4.49
3.99
3.62
3.21
2.67
1.91
0.88
-0.45
-2.08
-3.82
-5.39
-6.41
-6.68
-6.07
-4.77
-3.05
-1.25
0.33
1.49
2.21
2.57
2.76
2.93
3.13
3.31
3.33
3.06
2.52
1.86
1.31
1.08
1.25
1.76
2.44
3.22
4.06
5.01
6.09
7.17
7.97
8.15
7.44
5.81
3.52
1.02
-1.17
-2.73
-3.59
-3.95
-4.16
-4.51
-5.18
-6.15
-7.24
-8.15
-8.61
-8.44
-7.56
-6.14
-4.38
-2.55
-0.85
0.62
1.81
2.72
3.41
3.91
4.25
4.50
4.72
5.04
5.53
6.27
7.27
8.49
9.85
11.16
12.27
13.01
13.29
13.14
12.62
11.83
10.82
9.59
8.13
6.44
4.63
2.87
1.34
0.11
-0.84
-1.63
-2.41
-3.22
-4.02
-4.74
-5.37
-5.97
-6.67
-7.47
-8.25
-8.70
-8.56
-7.70
-6.25
-4.61
-3.19
-2.29
-1.86
-1.63
-1.26
-0.52
0.56
1.74
2.68
3.13
3.05
2.60
2.02
1.53
1.27
1.27
1.52
1.98
2.64
3.44
4.27
5.01
5.50
5.61
5.33
4.78
4.16
3.68
3.41
3.19
2.74
1.73
0.05
-2.19
-4.61
-6.82
-8.57
-9.93
-11.12
-12.35
-13.68
-14.88
-15.69
-15.86
-15.33
-14.21
-12.68
-10.93
-9.05
-7.21
-5.53
-4.18
-3.27
-2.83
-2.72
-2.75
-2.70
-2.42
-1.87
-1.05
-0.02
1.11
2.16
2.93
3.29
3.19
2.70
2.02
1.38
0.98
0.92
1.21
1.76
2.46
3.16
3.72
3.97
3.74
2.97
1.70
0.19
-1.26
-2.43
-3.32
-4.10
-5.03
-6.28
-7.76
-9.16
-10.08
-10.27
-9.70
-8.57
-7.17
-5.78
-4.54
-3.39
-2.28
-1.12
0.08
1.28
2.42
3.49
4.51
5.49
6.45
7.34
8.07
8.57
8.85
8.99
9.08
9.22
9.46
9.83
10.29
10.81
11.28
11.56
11.50
10.93
9.77
8.02
5.79
3.27
0.75
-1.47
-3.19
-4.35
-5.12
-5.80
-6.70
-7.97
-9.48
-10.88
-11.65
-11.42
-10.04
-7.74
-4.93
-2.13
0.28
2.15
3.54
4.64
5.58
6.40
7.01
7.29
7.20
6.74
6.10
5.43
4.87
4.46
4.21
4.13
4.25
4.65
5.28
6.07
6.85
7.44
7.70
7.58
7.11
6.34
5.30
4.00
2.51
0.92
-0.60
-1.86
-2.75
-3.27
-3.55
-3.75
-4.07
-4.65
-5.55
-6.78
-8.25
-9.78
-11.14
-12.04
-12.24
-11.62
-10.20
-8.10
-5.54
-2.75
0.02
2.59
4.78
6.50
7.72
8.51
8.93
9.00
8.73
8.10
7.26
6.41
5.85
5.74
6.06
6.60
7.04
7.21
7.12
6.95
6.95
7.23
7.76
8.35
8.73
8.63
7.85
6.29
3.99
1.14
-1.94
-4.87
-7.27
-8.89
-9.64
-9.64
-9.20
-8.74
-8.69
-9.30
-10.52
-11.99
-13.16
-13.58
-13.05
-11.70
-9.92
-8.09
-6.45
-5.09
-3.97
-3.02
-2.30
-1.87
-1.78
-2.00
-2.42
-2.86
-3.17
-3.23
-3.04
-2.65
-2.24
-1.95
-1.89
-2.07
-2.32
-2.42
-2.23
-1.70
-1.01
-0.42
-0.20
-0.51
-1.31
-2.42
-3.58
-4.56
-5.24
-5.65
-6.01
-6.57
-7.53
-8.87
-10.40
-11.78
-12.70
-13.00
-12.68
-11.91
-10.85
-9.64
-8.34
-6.99
-5.63
-4.33
-3.16
-2.13
-1.25
-0.47
0.27
1.06
2.01
3.21
4.68
6.29
7.86
9.15
10.02
10.44
10.54
10.51
10.44
10.39
10.26
10.00
9.53
8.88
8.09
7.16
6.10
4.87
3.45
1.88
0.25
-1.27
-2.53
-3.43
-3.97
-4.27
-4.49
-4.70
-4.82
-4.65
-3.97
-2.72
-1.04
0.69
2.10
2.98
3.38
3.53
3.67
3.86
3.99
3.91
3.56
3.15
2.97
3.31
4.21
5.43
6.59
7.34
7.49
7.11
6.43
5.70
5.08
4.59
4.14
3.56
2.74
1.61
0.22
-1.29
-2.71
-3.81
-4.48
-4.72
-4.65
-4.45
-4.35
-4.47
-4.87
-5.49
-6.19
-6.72
-6.81
-6.29
-5.14
-3.55
-1.95
-0.72
-0.14
-0.17
-0.50
-0.71
-0.47
0.29
1.44
2.74
3.97
5.04
5.93
6.67
7.23
7.61
7.74
7.60
7.17
6.49
5.62
4.71
3.90
3.30
2.95
2.75
2.48
1.95
1.07
-0.14
-1.53
-2.89
-4.05
-4.91
-5.38
-5.48
-5.30
-4.97
-4.70
-4.67
-4.96
-5.46
-5.89
-5.92
-5.31
-3.98
-2.07
0.15
2.38
4.35
5.92
7.12
8.07
8.90
9.67
10.27
10.52
10.25
9.51
8.50
7.56
6.93
6.58
6.27
5.65
4.54
3.08
1.65
0.71
0.54
1.12
2.13
3.14
3.72
3.63
2.71
0.98
-1.49
-4.51
-7.83
-11.08
-13.88
-15.93
-17.14
-17.60
-17.56
-17.34
-17.18
-17.12
-17.04
-16.69
-15.83
-14.35
-12.42
-10.44
-8.89
-8.09
-8.08
-8.54
-9.06
-9.37
-9.42
-9.48
-9.81
-10.48
-11.17
-11.34
-10.52
-8.55
-5.72
-2.52
0.52
3.07
5.00
6.36
7.17
7.42
7.09
6.22
4.97
3.50
1.96
0.46
-0.90
-1.97
-2.54
-2.51
-1.91
-0.98
-0.07
0.57
0.87
0.94
0.94
0.96
1.00
0.99
0.95
0.91
0.98
1.19
1.49
1.87
2.33
2.92
3.69
4.58
5.41
6.02
6.34
6.51
6.73
7.14
7.75
8.36
8.76
8.79
8.45
7.85
7.10
6.25
5.26
4.13
2.86
1.55
0.23
-1.01
-2.11
-3.07
-3.85
-4.53
-5.24
-6.18
-7.51
-9.24
-11.04
-12.45
-12.95
-12.23
-10.33
-7.59
-4.53
-1.56
1.01
3.13
4.78
5.99
6.76
7.13
7.18
7.02
6.78
6.53
6.32
6.19
6.14
6.20
6.33
6.43
6.35
6.01
5.43
4.70
3.99
3.37
2.86
2.36
1.78
1.15
0.54
0.09
-0.09
-0.00
0.19
0.22
-0.26
-1.52
-3.63
-6.37
-9.28
-11.74
-13.20
-13.37
-12.20
-9.94
-6.98
-3.74
-0.63
2.04
4.08
5.44
6.26
6.74
7.13
7.53
7.93
8.26
8.46
8.56
8.55
8.48
8.31
8.04
7.66
7.27
7.02
7.02
7.27
7.62
7.86
7.76
7.22
6.17
4.66
2.75
0.48
-2.08
-4.81
-7.57
-10.28
-12.94
-15.67
-18.62
-21.86
-25.27
-28.47
-30.97
-32.24
-31.94
-30.01
-26.68
-22.37
-17.59
-12.83
-8.47
-4.76
-1.75
0.62
2.48
3.94
5.05
5.78
6.06
5.96
5.60
5.21
4.99
5.09
5.55
6.31
7.24
8.17
8.99
9.58
9.89
9.86
9.50
8.81
7.84
6.60
5.05
3.15
0.79
-1.99
-5.08
-8.25
-11.29
-14.02
-16.34
-18.23
-19.63
-20.33
-20.08
-18.64
-15.93
-12.12
-7.67
-3.14
0.93
4.25
6.77
8.71
10.34
11.89
13.43
14.89
16.13
17.07
17.68
18.05
18.22
18.24
18.09
17.80
17.39
16.93
16.51
16.16
15.87
15.55
15.06
14.27
13.00
11.19
8.84
6.11
3.21
0.44
-2.00
-4.00
-5.68
-7.25
-9.01
-11.16
-13.77
-16.73
-19.67
-22.12
-23.60
-23.71
-22.32
-19.59
-15.96
-11.91
-7.96
-4.31
-1.02
2.02
4.89
7.62
10.08
12.06
13.45
14.26
14.71
15.01
15.37
15.91
16.59
17.30
17.90
18.24
18.20
17.71
16.79
15.57
14.23
12.93
11.74
10.56
9.28
7.78
6.09
4.35
2.67
1.10
-0.46
-2.18
-4.20
-6.53
-9.09
-11.68
-14.00
-15.74
-16.63
-16.46
-15.14
-12.82
-9.75
-6.30
-2.81
0.50
3.55
6.33
8.83
10.98
12.65
13.70
14.05
13.75
12.95
11.93
10.97
10.32
10.13
10.40
11.04
11.87
12.69
13.34
13.63
13.50
13.01
12.25
11.40
10.58
9.76
8.78
7.46
5.66
3.35
0.64
-2.32
-5.39
-8.49
-11.59
-14.62
-17.54
-20.35
-23.05
-25.64
-28.03
-30.00
-31.19
-31.18
-29.70
-26.71
-22.49
-17.46
-12.16
-7.04
-2.41
1.54
4.74
7.15
8.75
9.51
9.46
8.70
7.42
5.93
4.58
3.63
3.23
3.32
3.76
4.40
5.13
5.95
6.90
7.96
9.03
9.88
10.27
9.96
8.88
7.07
4.69
1.98
-0.84
-3.55
-6.03
-8.26
-10.41
-12.70
-15.34
-18.28
-21.20
-23.52
-24.57
-23.90
-21.42
-17.38
-12.29
-6.70
-1.14
3.99
8.34
11.67
13.92
15.19
15.73
15.87
15.89
15.92
15.99
16.04
16.05
16.01
15.91
15.75
15.57
15.44
15.50
15.86
16.45
17.04
17.23
16.66
15.12
12.72
9.78
6.70
3.77
1.09
-1.47
-4.08
-6.85
-9.80
-12.85
-15.88
-18.77
-21.39
-23.49
-24.70
-24.57
-22.79
-19.29
-14.37
-8.70
-3.06
1.88
5.79
8.71
10.91
12.65
14.06
15.11
15.66
15.66
15.25
14.68
14.24
14.07
14.12
14.18
14.00
13.43
12.53
11.52
10.62
9.96
9.50
9.04
8.32
7.12
5.38
3.14
0.65
-1.87
-4.16
-6.13
-7.73
-9.11
-10.46
-11.98
-13.82
-15.97
-18.19
-20.06
-21.07
-20.73
-18.75
-15.11
-10.09
-4.25
1.70
7.05
11.31
14.33
16.25
17.43
18.20
18.77
19.14
19.25
19.03
18.52
17.79
16.91
15.87
14.61
13.13
11.50
9.91
8.62
7.75
7.27
6.96
6.48
5.47
3.73
1.17
-2.09
-5.81
-9.71
-13.46
-16.86
-19.81
-22.40
-24.87
-27.43
-30.15
-32.81
-34.86
-35.60
-34.48
-31.28
-26.29
-20.15
-13.69
-7.66
-2.58
1.29
4.00
5.74
6.85
7.61
8.20
8.65
8.87
8.78
8.38
7.83
7.31
6.97
6.77
6.58
6.32
6.04
5.96
6.24
6.87
7.53
7.76
7.16
5.65
3.52
1.21
-0.89
-2.73
-4.50
-6.59
-9.30
-12.71
-16.63
-20.64
-24.18
-26.67
-27.59
-26.58
-23.57
-18.80
-12.80
-6.27
0.05
5.58
10.04
13.35
15.62
17.09
18.00
18.57
18.88
19.01
18.93
18.65
18.22
17.72
17.27
16.96
16.90
17.03
17.30
17.51
17.49
17.05
16.09
14.55
12.50
10.07
7.36
4.44
1.34
-1.93
-5.31
-8.69
-11.98
-15.14
-18.14
-20.89
-23.13
-24.45
-24.33
-22.43
-18.68
-13.44
-7.34
-1.08
4.81
10.10
14.73
18.74
22.14
24.88
26.99
28.56
29.79
30.76
31.42
31.48
30.61
28.63
25.70
22.24
18.79
15.72
13.06
10.62
8.06
5.13
1.71
-2.10
-6.02
-9.71
-12.83
-15.10
-16.46
-17.15
-17.66
-18.58
-20.34
-22.92
-25.82
-28.23
-29.28
-28.37
-25.36
-20.49
-14.18
-6.96
0.66
8.13
14.95
20.69
25.19
28.58
31.20
33.33
34.95
35.59
34.59
31.42
26.02
18.88
10.85
2.82
-4.56
-10.97
-16.20
-20.16
-22.74
-23.87
-23.64
-22.28
-20.11
-17.47
-14.79
-12.38
-10.62
-9.77
-9.93
-11.02
-12.82
-15.18
-18.04
-21.36
-24.91
-28.12
-30.13
-30.06
-27.50
-22.73
-16.66
-10.50
-5.32
-1.69
0.28
0.81
0.29
-0.88
-2.22
-3.27
-3.65
-3.26
-2.33
-1.35
-0.82
-0.95
-1.63
-2.52
-3.30
-3.91
-4.59
-5.71
-7.49
-9.80
-12.23
-14.22
-15.40
-15.70
-15.37
-14.82
-14.37
-14.20
-14.32
-14.66
-15.22
-15.95
-16.78
-17.48
-17.68
-16.96
-15.08
-12.10
-8.34
-4.28
-0.40
2.99
5.81
8.15
10.21
12.22
14.40
16.94
19.96
23.51
27.43
31.42
34.97
37.58
38.89
38.88
37.83
36.22
34.51
32.87
31.24
29.37
27.07
24.37
21.51
18.74
16.14
13.59
10.80
7.55
3.84
-0.04
-3.56
-6.20
-7.62
-7.76
-6.86
-5.31
-3.47
-1.63
-0.04
1.15
1.81
1.82
1.20
0.09
-1.23
-2.40
-3.09
-3.12
-2.52
-1.46
-0.16
1.21
2.62
4.05
5.46
6.70
7.55
7.74
7.07
5.51
3.24
0.55
-2.21
-4.80
-7.09
-9.07
-10.76
-12.23
-13.43
-14.33
-14.89
-15.03
-14.68
-13.71
-11.94
-9.24
-5.62
-1.28
3.39
7.87
11.71
14.66
16.75
18.20
19.34
20.42
21.54
22.55
23.24
23.44
23.17
22.58
21.93
21.37
20.95
20.58
20.15
19.54
18.69
17.54
15.98
13.89
11.23
8.10
4.90
2.08
0.00
-1.26
-2.06
-3.09
-5.14
-8.86
-14.42
-21.52
-29.42
-37.14
-43.75
-48.54
-51.11
-51.39
-49.60
-46.22
-41.80
-36.95
-32.12
-27.59
-23.41
-19.52
-15.85
-12.49
-9.61
-7.47
-6.17
-5.62
-5.45
-5.18
-4.31
-2.50
0.38
4.25
8.86
13.80
18.63
22.90
26.30
28.69
30.08
30.66
30.60
30.07
29.11
27.71
25.76
23.14
19.75
15.55
10.72
5.58
0.68
-3.48
-6.53
-8.48
-9.65
-10.61
-11.87
-13.62
-15.67
-17.53
-18.65
-18.58
-17.27
-15.02
-12.40
-10.05
-8.46
-7.92
-8.39
-9.64
-11.28
-12.91
-14.19
-14.89
-14.94
-14.33
-13.14
-11.42
-9.25
-6.73
-4.08
-1.60
0.36
1.49
1.62
0.78
-0.78
-2.73
-4.73
-6.58
-8.11
-9.29
-10.03
-10.28
-9.96
-9.09
-7.82
-6.46
-5.36
-4.80
-4.83
-5.20
-5.45
-5.02
-3.54
-0.88
2.69
6.63
10.30
13.17
14.94
15.66
15.67
15.33
14.92
14.48
13.93
13.21
12.34
11.53
11.05
11.08
11.61
12.39
13.10
13.38
13.01
11.89
10.02
7.56
4.67
1.56
-1.54
-4.46
-7.03
-9.15
-10.71
-11.71
-12.22
-12.41
-12.49
-12.62
-12.83
-12.93
-12.59
-11.48
-9.41
-6.41
-2.82
1.01
4.68
7.94
10.70
12.95
14.64
15.71
16.12
15.82
14.93
13.67
12.25
10.84
9.46
8.02
6.52
5.02
3.68
2.71
2.21
2.11
2.17
2.16
1.93
1.49
0.97
0.53
0.27
0.16
0.14
0.04
-0.23
-0.74
-1.47
-2.40
-3.37
-4.18
-4.56
-4.20
-2.84
-0.24
3.63
8.54
13.85
18.68
22.06
23.27
22.14
19.10
14.92
10.50
6.45
3.01
0.17
-2.15
-3.99
-5.27
-5.92
-6.06
-5.98
-6.02
-6.34
-6.89
-7.40
-7.58
-7.25
-6.48
-5.47
-4.46
-3.70
-3.32
-3.49
-4.40
-6.23
-9.04
-12.65
-16.66
-20.44
-23.37
-24.98
-25.11
-23.89
-21.68
-18.97
-16.26
-13.92
-12.11
-10.72
-9.44
-7.90
-5.89
-3.49
-1.07
0.85
1.85
1.84
1.11
0.23
-0.30
-0.21
0.36
1.01
1.25
0.76
-0.57
-2.58
-4.96
-7.35
-9.41
-10.98
-12.02
-12.59
-12.84
-12.92
-12.95
-12.95
-12.89
-12.63
-11.97
-10.72
-8.77
-6.15
-3.10
0.01
2.77
4.87
6.17
6.68
6.51
5.78
4.58
2.98
1.11
-0.82
-2.50
-3.62
-3.94
-3.41
-2.22
-0.72
0.69
1.72
2.22
2.18
1.68
0.81
-0.33
-1.54
-2.59
-3.17
-3.16
-2.67
-2.10
-1.90
-2.36
-3.40
-4.58
-5.33
-5.18
-4.00
-1.99
0.53
3.22
5.86
8.36
10.61
12.54
14.03
15.04
15.64
15.95
16.08
16.08
15.98
15.78
15.53
15.22
14.88
14.38
13.61
12.48
10.99
9.26
7.38
5.44
3.39
1.20
-1.08
-3.35
-5.49
-7.42
-9.17
-10.79
-12.26
-13.49
-14.24
-14.31
-13.59
-12.14
-10.06
-7.53
-4.73
-1.81
0.98
3.34
4.99
5.71
5.51
4.58
3.25
1.90
0.90
0.46
0.65
1.44
2.66
4.14
5.69
7.11
8.26
9.02
9.31
9.08
8.34
7.10
5.42
3.38
1.13
-1.17
-3.32
-5.21
-6.83
-8.24
-9.54
-10.73
-11.68
-12.16
-11.93
-10.83
-8.89
-6.31
-3.39
-0.55
1.85
3.57
4.56
4.96
5.08
5.27
5.77
6.64
7.70
8.74
9.52
9.95
10.05
9.89
9.55
9.12
8.64
8.13
7.63
7.11
6.46
5.54
4.18
2.38
0.26
-1.95
-4.03
-5.85
-7.46
-9.05
-10.74
-12.59
-14.42
-15.91
-16.72
-16.61
-15.53
-13.53
-10.82
-7.57
-3.98
-0.26
3.39
6.73
9.58
11.85
13.51
14.61
15.23
15.48
15.43
15.15
14.64
13.97
13.16
12.26
11.31
10.34
9.35
8.37
7.38
6.36
5.28
4.14
2.91
1.57
0.03
-1.79
-3.95
-6.39
-8.91
-11.24
-13.22
-14.87
-16.37
-17.99
-19.87
-21.82
-23.37
-23.98
-23.33
-21.43
-18.67
-15.64
-12.89
-10.74
-9.25
-8.24
-7.45
-6.63
-5.62
-4.36
-2.91
-1.35
0.21
1.66
2.97
4.13
5.16
6.04
6.70
7.08
7.11
6.75
5.97
4.77
3.11
0.99
-1.59
-4.51
-7.60
-10.55
-13.03
-14.72
-15.49
-15.45
-14.90
-14.18
-13.50
-12.84
-11.99
-10.60
-8.46
-5.61
-2.36
0.82
3.50
5.48
6.76
7.52
8.01
8.44
8.91
9.46
10.02
10.51
10.85
11.02
11.01
10.85
10.52
10.07
9.53
8.98
8.45
8.01
7.71
7.49
7.24
6.76
5.84
4.31
2.16
-0.41
-3.02
-5.33
-7.16
-8.59
-9.92
-11.40
-13.07
-14.61
-15.48
-15.13
-13.33
-10.30
-6.56
-2.79
0.51
3.12
5.12
6.69
7.95
8.86
9.26
9.04
8.26
7.23
6.37
6.07
6.47
7.41
8.49
9.25
9.43
8.98
8.06
6.95
5.82
4.70
3.52
2.24
0.87
-0.47
-1.68
-2.72
-3.61
-4.43
-5.29
-6.20
-7.16
-8.12
-9.10
-10.08
-11.01
-11.74
-12.01
-11.58
-10.31
-8.24
-5.62
-2.81
-0.23
1.81
3.12
3.75
3.90
4.00
4.42
5.42
7.00
8.87
10.65
12.00
12.76
12.94
12.71
12.19
11.44
10.46
9.23
7.81
6.35
5.01
3.90
3.04
2.36
1.76
1.18
0.51
-0.30
-1.22
-2.21
-3.17
-4.04
-4.81
-5.54
-6.30
-7.14
-8.00
-8.77
-9.27
-9.35
-8.93
-8.07
-6.87
-5.47
-3.99
-2.54
-1.16
0.09
1.19
2.13
2.84
3.34
3.66
3.85
3.96
3.99
3.90
3.69
3.37
3.02
2.74
2.54
2.41
2.26
2.06
1.85
1.74
1.81
2.03
2.26
2.34
2.22
1.98
1.75
1.65
1.64
1.50
0.94
-0.23
-1.99
-4.15
-6.36
-8.32
-9.91
-11.20
-12.36
-13.51
-14.63
-15.54
-15.98
-15.83
-15.13
-14.05
-12.81
-11.47
-9.98
-8.24
-6.21
-4.08
-2.15
-0.71
0.13
0.48
0.62
0.79
1.09
1.49
1.85
2.12
2.32
2.47
2.59
2.62
2.45
1.98
1.24
0.41
-0.28
-0.62
-0.49
0.03
0.77
1.48
1.90
1.85
1.26
0.17
-1.23
-2.69
-3.99
-5.01
-5.77
-6.38
-6.87
-7.20
-7.09
-6.25
-4.49
-1.91
1.05
3.76
5.66
6.48
6.34
5.64
4.80
4.05
3.39
2.68
1.87
1.06
0.46
0.24
0.43
0.96
1.64
2.39
3.14
3.88
4.52
4.93
5.06
4.92
4.70
4.55
4.57
4.67
4.64
4.26
3.41
2.16
0.61
-1.08
-2.82
-4.52
-6.14
-7.62
-8.91
-10.01
-10.97
-11.83
-12.56
-13.01
-12.94
-12.09
-10.33
-7.75
-4.63
-1.40
1.52
3.86
5.51
6.56
7.20
7.67
8.16
8.73
9.34
9.87
10.23
10.43
10.57
10.76
11.07
11.40
11.55
11.32
10.60
9.44
8.04
6.62
5.35
4.27
3.32
2.38
1.32
0.09
-1.30
-2.73
-4.02
-4.97
-5.46
-5.50
-5.31
-5.18
-5.43
-6.26
-7.61
-9.21
-10.69
-11.69
-11.98
-11.50
-10.38
-8.83
-7.08
-5.37
-3.82
-2.50
-1.36
-0.31
0.75
1.86
3.04
4.21
5.30
6.31
7.24
8.09
8.78
9.14
9.02
8.34
7.17
5.69
4.18
2.87
1.84
1.06
0.42
-0.12
-0.53
-0.70
-0.55
-0.06
0.60
1.19
1.43
1.12
0.19
-1.31
-3.18
-5.18
-7.06
-8.61
-9.69
-10.20
-10.14
-9.58
-8.68
-7.59
-6.50
-5.45
-4.38
-3.16
-1.70
-0.04
1.58
2.85
3.51
3.48
2.85
1.83
0.62
-0.60
-1.76
-2.74
-3.45
-3.87
-4.08
-4.23
-4.45
-4.74
-5.03
-5.23
-5.34
-5.49
-5.84
-6.53
-7.53
-8.63
-9.56
-10.15
-10.41
-10.54
-10.85
-11.63
-12.98
-14.70
-16.36
-17.40
-17.42
-16.31
-14.23
-11.59
-8.74
-5.87
-3.06
-0.30
2.41
4.97
7.27
9.24
10.81
11.96
12.64
12.79
12.40
11.59
10.56
9.51
8.57
7.74
6.94
6.11
5.31
4.62
4.19
4.00
3.96
3.86
3.52
2.90
2.02
1.00
-0.08
-1.17
-2.34
-3.64
-5.11
-6.74
-8.40
-9.91
-11.07
-11.64
-11.39
-10.22
-8.12
-5.26
-1.98
1.30
4.19
6.49
8.21
9.50
10.52
11.36
11.97
12.20
11.99
11.35
10.44
9.54
8.82
8.28
7.87
7.45
6.94
6.36
5.75
5.11
4.40
3.52
2.33
0.84
-0.86
-2.63
-4.28
-5.69
-6.86
-7.86
-8.79
-9.72
-10.58
-11.23
-11.49
-11.22
-10.41
-9.18
-7.67
-6.03
-4.34
-2.60
-0.83
0.88
2.48
3.90
5.11
6.11
6.93
7.56
7.96
8.15
8.16
8.08
7.97
7.86
7.65
7.27
6.69
5.94
5.13
4.38
3.78
3.33
2.95
2.52
1.91
1.02
-0.20
-1.70
-3.33
-4.91
-6.28
-7.42
-8.40
-9.36
-10.47
-11.74
-13.03
-14.03
-14.39
-13.80
-12.20
-9.74
-6.73
-3.57
-0.53
2.29
4.91
7.40
9.73
11.77
13.31
14.20
14.40
14.13
13.66
13.30
13.22
13.40
13.64
13.62
13.06
11.78
9.82
7.44
4.98
2.78
1.06
-0.18
-1.08
-1.84
-2.62
-3.45
-4.29
-5.08
-5.76
-6.32
-6.75
-7.05
-7.23
-7.38
-7.69
-8.41
-9.74
-11.58
-13.61
-15.27
-16.06
-15.71
-14.36
-12.43
-10.44
-8.82
-7.73
-7.12
-6.85
-6.72
-6.55
-6.18
-5.46
-4.28
-2.60
-0.50
1.87
4.27
6.43
8.13
9.23
9.71
9.68
9.32
8.83
8.33
7.80
7.12
6.09
4.55
2.45
-0.13
-3.02
-5.98
-8.73
-11.07
-12.81
-13.96
-14.62
-14.99
-15.26
-15.51
-15.72
-15.73
-15.36
-14.48
-13.04
-11.12
-8.84
-6.43
-4.11
-2.08
-0.46
0.73
1.59
2.30
3.01
3.83
4.81
5.99
7.36
8.85
10.32
11.58
12.44
12.78
12.62
12.06
11.34
10.69
10.27
10.14
10.21
10.21
9.86
8.93
7.42
5.56
3.69
2.09
0.85
-0.18
-1.20
-2.38
-3.68
-5.00
-6.20
-7.23
-8.08
-8.70
-8.96
-8.69
-7.69
-5.91
-3.52
-0.89
1.57
3.51
4.85
5.69
6.34
7.10
8.10
9.24
10.25
10.85
10.89
10.42
9.63
8.68
7.64
6.50
5.30
4.20
3.52
3.47
4.12
5.24
6.43
7.26
7.51
7.18
6.44
5.50
4.51
3.50
2.47
1.39
0.23
-1.10
-2.64
-4.42
-6.39
-8.38
-10.18
-11.52
-12.21
-12.10
-11.18
-9.52
-7.37
-5.04
-2.86
-1.13
0.06
0.80
1.29
1.74
2.31
3.03
3.84
4.66
5.45
6.26
7.15
8.14
9.20
10.26
11.18
11.87
12.29
12.45
12.39
12.16
11.76
11.19
10.38
9.29
7.86
6.06
3.87
1.44
-0.95
-2.98
-4.41
-5.28
-5.91
-6.70
-7.98
-9.75
-11.63
-13.08
-13.63
-13.11
-11.71
-9.83
-7.85
-5.97
-4.22
-2.56
-0.99
0.36
1.38
1.90
1.90
1.45
0.69
-0.17
-0.98
-1.62
-2.04
-2.22
-2.21
-2.04
-1.73
-1.28
-0.66
0.12
1.04
2.04
3.07
4.06
4.87
5.34
5.26
4.50
3.07
1.14
-0.96
-2.92
-4.58
-6.02
-7.41
-9.02
-10.93
-13.04
-15.09
-16.70
-17.61
-17.68
-16.93
-15.55
-13.86
-12.16
-10.71
-9.59
-8.72
-7.94
-7.08
-6.09
-4.96
-3.73
-2.33
-0.58
1.67
4.52
7.81
11.16
14.05
16.10
17.15
17.35
17.03
16.52
15.97
15.36
14.48
13.13
11.21
8.82
6.16
3.50
1.08
-0.98
-2.69
-4.10
-5.33
-6.53
-7.78
-9.14
-10.58
-11.96
-13.03
-13.51
-13.20
-12.02
-10.07
-7.59
-4.83
-2.04
0.61
2.98
5.02
6.66
7.86
8.66
9.21
9.75
10.46
11.45
12.59
13.63
14.25
14.20
13.49
12.25
10.81
9.38
8.07
6.81
5.47
3.98
2.36
0.72
-0.79
-2.13
-3.29
-4.26
-4.98
-5.39
-5.44
-5.25
-5.06
-5.09
-5.47
-6.10
-6.68
-6.88
-6.45
-5.39
-3.93
-2.40
-1.10
-0.18
0.39
0.73
1.02
1.42
2.02
2.86
3.84
4.88
5.83
6.65
7.35
8.01
8.71
9.48
10.28
11.00
11.58
11.92
12.03
11.97
11.79
11.60
11.47
11.52
11.77
12.13
12.38
12.19
11.27
9.47
6.87
3.74
0.42
-2.77
-5.66
-8.19
-10.33
-12.04
-13.26
-13.82
-13.65
-12.71
-11.07
-8.91
-6.40
-3.67
-0.80
2.12
5.00
7.66
9.89
11.49
12.32
12.36
11.68
10.46
8.94
7.40
6.17
5.46
5.33
5.68
6.29
6.85
7.12
6.99
6.44
5.53
4.33
2.87
1.25
-0.44
-2.09
-3.55
-4.71
-5.57
-6.25
-6.91
-7.81
-9.08
-10.71
-12.52
-14.20
-15.39
-15.88
-15.63
-14.84
-13.82
-12.81
-11.87
-10.87
-9.50
-7.55
-4.98
-1.97
1.16
4.02
6.36
8.09
9.25
9.93
10.25
10.28
10.08
9.68
9.10
8.31
7.33
6.22
5.04
3.89
2.79
1.77
0.78
-0.18
-1.10
-2.00
-2.85
-3.68
-4.52
-5.33
-6.07
-6.66
-7.06
-7.32
-7.58
-7.99
-8.60
-9.34
-10.07
-10.72
-11.33
-12.08
-13.17
-14.67
-16.46
-18.22
-19.52
-19.95
-19.29
-17.49
-14.74
-11.31
-7.54
-3.71
-0.06
3.22
5.97
8.08
9.51
10.35
10.76
11.00
11.30
11.83
12.65
13.62
14.55
15.15
15.23
14.69
13.61
12.18
10.62
9.07
7.52
5.94
4.27
2.58
0.91
-0.67
-2.29
-4.05
-6.04
-8.18
-10.21
-11.93
-13.22
-14.22
-15.13
-16.07
-16.89
-17.23
-16.68
-15.03
-12.37
-9.10
-5.68
-2.48
0.34
2.76
4.86
6.70
8.30
9.68
10.93
12.19
13.57
15.12
16.77
18.36
19.73
20.74
21.31
21.44
21.12
20.35
19.18
17.67
16.02
14.41
13.04
12.00
11.29
10.75
10.22
9.53
8.56
7.32
5.88
4.39
3.05
1.95
1.03
0.08
-1.32
-3.62
-7.05
-11.38
-15.88
-19.44
-20.98
-19.78
-15.80
-9.68
-2.54
4.38
9.95
13.42
14.41
12.98
9.58
5.02
0.29
-3.71
-6.40
-7.71
-8.03
-7.93
-7.94
-8.26
-8.80
-9.24
-9.24
-8.64
-7.54
-6.19
-4.97
-4.19
-4.10
-4.78
-6.17
-8.11
-10.32
-12.47
-14.27
-15.50
-16.08
-16.09
-15.75
-15.28
-14.80
-14.21
-13.24
-11.54
-8.84
-5.12
-0.68
3.92
8.04
11.18
13.11
13.96
14.11
13.98
14.00
14.39
15.26
16.58
18.28
20.18
22.05
23.67
24.89
25.67
26.10
26.40
26.81
27.50
28.57
30.02
31.78
33.75
35.77
37.65
39.27
40.64
41.94
43.63
46.25
50.37
56.28
63.83
72.42
81.05
88.69
94.58
98.56
101.17
103.41
106.48
111.31
118.34
127.40
137.92
149.13
160.36
171.18
181.50
191.35
200.61
208.70
214.46
216.21
212.25
201.47
183.84
160.49
133.33
104.20
74.21
43.36
10.99
-23.53
-60.08
-97.63
-134.64
-169.80
-202.74
-234.25
-266.04
-300.28
-339.15
-384.39
-436.47
-493.68
-551.36
-602.20
-637.94
-652.04
-642.22
-611.40
-566.63
-516.26
-467.12
-422.85
-384.18
-350.37
-320.87
-295.76
-275.26
-258.67
-243.85
-227.75
-207.62
-182.14
-151.90
-119.00
-86.02
-54.85
-26.02
1.28
28.69
57.98
90.49
126.70
165.88
205.99
243.63
274.74
295.69
304.46
301.41
289.10
271.34
251.90
233.65
218.21
206.21
197.63
191.99
188.27
185.01
180.67
174.14
165.22
154.63
143.61
133.34
124.68
118.01
113.36
110.56
109.22
108.81
108.72
108.47
107.94
107.31
106.97
107.17
107.78
108.21
107.65
105.50
101.74
96.91
91.94
87.53
83.82
80.24
75.85
69.87
62.16
53.28
44.17
35.60
27.79
20.35
12.61
4.14
-4.86
-13.64
-21.12
-26.45
-29.29
-29.96
-29.18
-27.80
-26.40
-25.12
-23.77
-22.01
-19.58
-16.53
-13.20
-10.04
-7.46
-5.63
-4.53
-4.00
-3.85
-4.03
-4.52
-5.26
-6.04
-6.59
-6.60
-5.98
-4.87
-3.67
-2.84
-2.66
-3.19
-4.20
-5.38
-6.48
-7.39
-8.14
-8.79
-9.37
-9.87
-10.27
-10.63
-11.07
-11.80
-12.93
-14.53
-16.55
-18.85
-21.16
-23.10
-24.18
-23.96
-22.26
-19.28
-15.63
-12.21
-9.86
-9.12
-10.06
-12.23
-14.85
-17.08
-18.17
-17.78
-15.91
-13.03
-9.95
-7.64
-6.96
-8.35
-11.53
-15.54
-19.04
-20.81
-20.19
-17.26
-12.65
-7.23
-1.78
3.08
6.77
8.70
8.37
5.68
1.09
-4.45
-9.88
-14.40
-17.61
-19.31
-19.18
-16.72
-11.62
-4.30
3.87
10.93
15.24
16.46
15.88
16.08
19.77
28.56
42.20
58.68
74.96
88.02
95.81
97.67
94.21
86.93
77.60
67.79
58.65
50.85
44.63
39.87
36.05
32.45
28.29
22.95
16.30
8.69
0.85
-6.34
-12.15
-16.24
-18.72
-20.02
-20.70
-21.28
-22.14
-23.46
-25.35
-27.80
-30.70
-33.78
-36.56
-38.50
-39.15
-38.37
-36.51
-34.18
-32.01
-30.09
-27.80
-23.97
-17.24
-6.70
7.74
25.31
44.52
63.56
80.44
93.11
99.40
97.44
86.25
66.53
41.03
14.13
-9.34
-25.54
-32.56
-30.44
-20.46
-4.13
17.21
42.30
69.40
95.96
118.90
135.45
144.19
145.51
141.41
134.57
127.30
120.74
114.61
107.67
98.27
85.17
67.90
47.00
23.85
0.36
-21.48
-39.93
-53.70
-62.08
-64.83
-62.31
-55.59
-46.82
-39.38
-37.72
-46.36
-68.33
-103.47
-147.42
-192.18
-228.14
-247.02
-244.53
-221.64
-184.02
-140.11
-98.56
-66.03
-45.83
-37.49
-37.14
-38.76
-35.91
-23.76
-0.68
31.15
66.69
99.95
126.33
144.02
154.10
159.25
162.19
164.40
165.96
166.09
163.89
158.72
150.12
137.62
120.67
98.95
72.56
42.01
7.80
-30.01
-71.68
-117.16
-165.02
-211.74
-251.94
-279.52
-289.31
-278.56
-247.73
-200.42
-142.70
-82.14
-26.59
16.98
43.78
52.09
43.69
23.38
-2.26
-26.53
-44.22
-52.67
-51.82
-43.67
-31.08
-16.72
-2.37
11.23
24.01
35.86
46.01
52.89
54.46
49.10
36.43
17.90
-3.43
-23.74
-39.72
-49.74
-54.23
-55.27
-55.55
-57.26
-61.23
-66.74
-71.78
-73.80
-70.53
-60.73
-44.60
-23.97
-1.85
18.08
32.38
38.73
36.52
27.07
13.26
-1.42
-14.13
-23.66
-30.71
-37.20
-45.00
-54.74
-65.28
-74.16
-78.75
-77.41
-69.90
-57.28
-41.27
-23.75
-6.40
9.17
21.53
29.54
32.60
30.90
25.36
17.33
8.29
-0.38
-7.47
-11.88
-12.77
-9.64
-2.63
7.36
18.75
29.66
38.41
43.95
45.93
44.55
40.28
33.65
25.18
15.56
5.81
-2.76
-8.79
-11.27
-9.95
-5.35
1.28
8.40
14.47
18.41
19.58
17.93
13.86
8.06
1.31
-5.64
-12.21
-17.86
-22.15
-24.56
-24.58
-21.90
-16.55
-9.09
-0.59
7.63
14.32
18.65
20.41
19.94
17.89
14.87
11.37
7.58
3.63
-0.25
-3.62
-5.83
-6.24
-4.47
-0.70
4.40
9.75
14.23
17.01
17.80
16.77
14.38
11.10
7.18
2.66
-2.38
-7.62
-12.32
-15.46
-15.99
-13.34
-7.63
0.25
8.89
16.83
22.92
26.61
27.81
26.76
23.84
19.34
13.54
6.76
-0.52
-7.56
-13.45
-17.32
-18.52
-16.88
-12.79
-7.13
-1.06
4.31
8.17
10.17
10.36
9.05
6.62
3.39
-0.42
-4.61
-8.96
-13.12
-16.63
-18.95
-19.59
-18.22
-14.88
-9.99
-4.28
1.42
6.33
9.93
11.97
12.45
11.48
9.19
5.72
1.36
-3.33
-7.51
-10.13
-10.27
-7.47
-2.08
4.86
11.87
17.52
20.92
21.88
20.89
18.70
15.96
12.91
9.49
5.50
0.96
-3.67
-7.47
-9.37
-8.55
-4.90
0.81
7.11
12.31
15.18
15.30
13.14
9.73
6.14
3.05
0.60
-1.40
-3.22
-4.86
-5.97
-5.96
-4.29
-0.77
4.34
10.32
16.22
21.07
24.16
25.15
24.06
21.19
16.96
11.82
6.21
0.57
-4.61
-8.75
-11.24
-11.62
-9.76
-6.04
-1.34
3.10
6.13
7.03
5.72
2.71
-1.18
-5.14
-8.71
-11.67
-13.92
-15.29
-15.38
-13.75
-10.19
-4.89
1.38
7.53
12.38
15.05
15.18
13.00
9.18
4.58
-0.06
-4.18
-7.45
-9.62
-10.46
-9.73
-7.33
-3.49
1.23
5.95
9.72
11.93
12.38
11.36
9.38
6.98
4.55
2.27
0.25
-1.37
-2.40
-2.72
-2.33
-1.47
-0.62
-0.27
-0.82
-2.38
-4.71
-7.32
-9.64
-11.11
-11.41
-10.44
-8.38
-5.56
-2.42
0.63
3.34
5.56
7.33
8.77
9.95
10.81
11.13
10.63
9.13
6.74
3.88
1.20
-0.68
-1.42
-1.06
0.00
1.23
2.16
2.57
2.44
1.91
1.14
0.29
-0.49
-1.09
-1.40
-1.35
-0.97
-0.35
0.36
0.97
1.29
1.18
0.56
-0.54
-1.96
-3.41
-4.60
-5.29
-5.34
-4.76
-3.73
-2.46
-1.23
-0.25
0.36
0.61
0.61
0.61
0.77
1.18
1.76
2.33
2.66
2.65
2.36
1.95
1.60
1.45
1.46
1.48
1.33
0.93
0.35
-0.16
-0.31
0.03
0.77
1.62
2.21
2.33
1.98
1.45
1.04
0.90
0.97
1.03
0.90
0.59
0.31
0.33
0.71
1.24
1.50
1.07
-0.18
-2.01
-3.83
-4.99
-5.12
-4.22
-2.67
-1.01
0.29
0.94
0.96
0.50
-0.27
-1.22
-2.28
-3.36
-4.28
-4.81
-4.78
-4.16
-3.09
-1.87
-0.80
-0.06
0.40
0.75
1.23
2.00
3.07
4.25
5.29
5.91
5.98
5.52
4.74
3.98
3.51
3.50
3.93
4.63
5.40
6.07
6.56
6.84
6.88
6.60
5.96
4.97
3.83
2.85
2.27
2.17
2.29
2.28
1.80
0.79
-0.47
-1.53
-2.04
-1.92
-1.37
-0.80
-0.44
-0.35
-0.35
-0.18
0.30
1.04
1.84
2.47
2.79
2.83
2.72
2.63
2.65
2.74
2.74
2.47
1.80
0.80
-0.33
-1.30
-1.92
-2.18
-2.27
-2.41
-2.81
-3.58
-4.62
-5.79
-6.93
-7.82
-8.25
-8.02
-7.06
-5.47
-3.60
-1.85
-0.60
-0.02
-0.02
-0.32
-0.65
-0.83
-0.86
-0.80
-0.71
-0.62
-0.46
-0.20
0.21
0.72
1.32
1.93
2.50
2.94
3.19
3.23
3.07
2.76
2.35
1.91
1.42
0.89
0.33
-0.16
-0.51
-0.64
-0.57
-0.42
-0.35
-0.51
-0.99
-1.79
-2.78
-3.79
-4.64
-5.14
-5.19
-4.72
-3.80
-2.58
-1.28
-0.15
0.63
1.03
1.13
1.10
1.13
1.27
1.45
1.49
1.23
0.66
-0.06
-0.62
-0.75
-0.28
0.70
1.98
3.20
4.09
4.43
4.21
3.57
2.67
1.73
0.87
0.15
-0.42
-0.85
-1.20
-1.50
-1.74
-1.92
-2.08
-2.32
-2.75
-3.50
-4.66
-6.21
-8.06
-10.00
-11.83
-13.35
-14.42
-14.99
-15.14
-15.02
-14.87
-14.94
-15.44
-16.41
-17.75
-19.23
-20.68
-22.06
-23.51
-25.27
-27.56
-30.41
-33.71
-37.28
-40.94
-44.62
-48.32
-52.06
-55.79
-59.39
-62.78
-66.02
-69.33
-73.07
-77.60
-83.05
-89.26
-95.74
-101.73
-106.37
-108.76
-108.14
-103.90
-95.60
-83.06
-66.46
-46.36
-23.78
-0.02
23.52
45.62
65.37
82.22
95.89
106.25
113.25
116.95
117.57
115.55
111.50
106.18
100.26
94.26
88.44
82.84
77.38
71.89
66.26
60.53
54.84
49.46
44.65
40.59
37.18
34.14
31.07
27.64
23.65
19.08
14.04
8.71
3.26
-2.19
-7.55
-12.77
-17.77
-22.40
-26.55
-30.10
-33.10
-35.75
-38.45
-41.64
-45.60
-50.19
-54.86
-58.80
-61.33
-62.37
-62.57
-63.09
-65.19
-69.61
-76.17
-83.92
-91.53
-98.01
-103.22
-107.95
-113.54
-121.20
-131.48
-143.92
-156.88
-167.81
-173.50
-170.65
-156.39
-129.24
-90.02
-42.37
7.67
53.07
88.03
109.92
119.97
122.32
121.95
122.46
125.02
128.71
131.80
133.13
132.71
131.37
129.98
128.74
127.33
125.31
122.85
120.82
120.41
122.53
127.04
132.58
136.83
137.42
132.83
122.96
109.17
93.65
78.49
64.88
52.97
42.13
31.76
21.87
13.15
6.72
3.46
3.48
5.87
9.05
11.35
11.68
9.94
6.90
3.77
1.61
0.97
1.80
3.77
6.47
9.59
12.74
15.20
15.88
13.63
7.87
-1.02
-11.57
-21.71
-29.50
-33.88
-35.00
-34.02
-32.61
-32.18
-33.43
-36.15
-39.39
-41.89
-42.53
-40.69
-36.47
-30.69
-24.70
-19.88
-17.27
-17.18
-19.07
-21.77
-23.80
-23.88
-21.32
-16.22
-9.31
-1.62
5.95
12.90
19.28
25.49
32.05
39.27
47.12
55.25
63.05
69.88
75.25
79.19
82.40
86.13
91.74
100.02
110.83
123.04
134.95
144.85
151.68
155.33
156.52
156.34
155.64
155.15
155.35
156.19
156.92
156.21
152.72
146.24
138.14
130.82
127.38
130.18
139.23
151.78
163.43
170.12
170.34
165.21
156.83
147.21
136.74
123.21
102.71
71.73
29.08
-22.60
-77.96
-131.69
-179.04
-216.78
-244.19
-262.54
-274.19
-285.58
-301.88
-321.16
-342.48
-365.54
-385.60
-394.65
-383.73
-346.78
-284.45
-204.97
-123.01
-55.67
-15.36
-5.34
-19.88
-47.46
-75.79
-96.14
-104.68
-102.06
-91.83
-77.11
-59.46
-39.71
-18.88
1.00
17.38
28.56
34.38
36.06
36.25
37.95
42.89
50.83
59.91
67.53
71.89
72.64
70.72
67.99
66.23
66.19
67.43
68.69
68.77
67.09
63.84
59.57
54.84
49.93
44.75
39.12
32.98
26.61
20.50
15.23
11.24
8.63
7.19
6.49
5.97
5.13
3.63
1.32
-1.73
-5.34
-9.26
-13.24
-17.05
-20.55
-23.65
-26.28
-28.37
-29.84
-30.60
-30.66
-30.21
-29.74
-29.98
-31.74
-35.67
-42.05
-50.74
-61.26
-73.04
-85.48
-97.97
-109.80
-119.97
-127.23
-130.31
-128.29
-120.99
-109.18
-94.38
-78.41
-62.92
-48.99
-36.99
-26.75
-17.84
-9.87
-2.71
3.58
8.90
13.30
17.10
20.79
24.88
29.61
34.90
40.27
45.11
48.87
51.27
52.32
52.23
51.31
49.81
47.97
46.01
44.17
42.70
41.77
41.38
41.32
41.20
40.53
38.90
36.09
32.05
26.96
21.11
14.88
8.68
2.98
-1.77
-5.23
-7.24
-7.91
-7.56
-6.69
-5.91
-5.82
-6.87
-9.30
-13.00
-17.54
-22.22
-26.23
-28.86
-29.65
-28.49
-25.63
-21.64
-17.20
-13.05
-9.86
-8.11
-7.95
-9.22
-11.43
-13.84
-15.60
-15.96
-14.39
-10.80
-5.37
1.40
8.94
16.71
24.19
30.89
36.25
39.66
40.58
38.78
34.34
27.75
19.79
11.25
2.88
-4.66
-10.76
-14.87
-16.55
-15.67
-12.51
-7.81
-2.61
2.00
5.17
6.48
5.95
3.99
1.14
-2.08
-5.34
-8.51
-11.56
-14.40
-16.86
-18.71
-19.78
-20.02
-19.57
-18.63
-17.39
-15.91
-14.13
-11.94
-9.34
-6.44
-3.45
-0.67
1.56
2.91
3.07
1.90
-0.54
-3.86
-7.46
-10.62
-12.67
-13.16
-11.99
-9.33
-5.61
-1.30
3.16
7.51
11.58
15.34
18.74
21.67
23.90
25.15
25.24
24.16
22.11
19.43
16.52
13.75
11.42
9.74
8.82
8.64
9.08
9.96
11.11
12.38
13.65
14.74
15.41
15.28
14.06
11.64
8.22
4.29
0.52
-2.48
-4.28
-4.79
-4.25
-3.13
-1.99
-1.21
-0.94
-0.95
-0.89
-0.45
0.42
1.41
2.01
1.77
0.52
-1.59
-4.13
-6.64
-8.71
-10.12
-10.72
-10.42
-9.19
-7.09
-4.34
-1.28
1.69
4.28
6.33
7.84
8.86
9.30
8.98
7.68
5.30
1.99
-1.81
-5.53
-8.64
-10.77
-11.80
-11.76
-10.77
-8.96
-6.52
-3.72
-0.90
1.60
3.57
4.86
5.50
5.51
4.83
3.40
1.22
-1.53
-4.46
-7.02
-8.66
-8.97
-7.81
-5.38
-2.07
1.64
5.28
8.54
11.27
13.37
14.78
15.38
15.05
13.76
11.57
8.67
5.34
1.88
-1.41
-4.21
-6.26
-7.38
-7.46
-6.51
-4.70
-2.26
0.51
3.33
5.98
8.27
10.01
11.07
11.30
10.55
8.80
6.12
2.74
-0.97
-4.57
-7.60
-9.73
-10.81
-10.87
-10.10
-8.72
-6.88
-4.68
-2.15
0.59
3.31
5.64
7.14
7.57
6.86
5.18
2.89
0.39
-1.97
-3.88
-5.16
-5.67
-5.36
-4.29
-2.61
-0.44
2.08
4.91
7.96
11.09
14.06
16.58
18.36
19.28
19.34
18.61
17.22
15.31
13.05
10.74
8.78
7.56
7.33
8.04
9.32
10.65
11.52
11.61
10.83
9.32
7.20
4.58
1.46
-2.27
-6.73
-11.99
-17.96
-24.34
-30.60
-36.08
-40.09
-42.12
-41.98
-39.78
-35.95
-31.07
-25.71
-20.34
-15.26
-10.55
-6.23
-2.32
1.09
3.87
5.93
7.29
8.12
8.67
9.15
9.73
10.48
11.40
12.45
13.57
14.55
15.12
14.94
13.87
11.92
9.32
6.40
3.43
0.48
-2.45
-5.39
-8.25
-10.79
-12.72
-13.83
-13.96
-13.09
-11.28
-8.59
-5.21
-1.43
2.31
5.53
7.76
8.75
8.43
6.95
4.59
1.72
-1.29
-4.05
-6.21
-7.55
-7.92
-7.33
-5.89
-3.78
-1.19
1.65
4.47
6.98
8.83
9.77
9.61
8.35
6.16
3.27
-0.07
-3.56
-6.95
-9.95
-12.25
-13.58
-13.78
-12.83
-10.92
-8.38
-5.53
-2.68
-0.08
2.09
3.67
4.51
4.56
3.83
2.43
0.54
-1.59
-3.72
-5.64
-7.22
-8.37
-9.03
-9.11
-8.55
-7.29
-5.40
-3.13
-0.79
1.28
2.88
3.94
4.55
4.80
4.72
4.22
3.20
1.58
-0.49
-2.72
-4.71
-6.11
-6.71
-6.54
-5.77
-4.73
-3.68
-2.81
-2.16
-1.63
-1.03
-0.27
0.69
1.71
2.48
2.72
2.16
0.74
-1.34
-3.71
-5.94
-7.62
-8.45
-8.30
-7.23
-5.47
-3.42
-1.50
-0.01
0.94
1.47
1.92
2.53
3.42
4.42
5.16
5.25
4.48
2.89
0.77
-1.45
-3.37
-4.68
-5.15
-4.75
-3.57
-1.88
-0.01
1.71
3.08
4.05
4.74
5.35
5.94
6.39
6.36
5.47
3.49
0.48
-3.19
-6.89
-9.91
-11.68
-11.86
-10.46
-7.79
-4.40
-0.93
2.14
4.57
6.39
7.84
9.19
10.51
11.60
12.09
11.53
9.74
6.84
3.30
-0.25
-3.17
-5.01
-5.64
-5.13
-3.82
-2.10
-0.33
1.23
2.46
3.40
4.10
4.58
4.80
4.59
3.72
2.08
-0.32
-3.27
-6.41
-9.30
-11.53
-12.82
-13.10
-12.50
-11.23
-9.55
-7.63
-5.52
-3.25
-0.90
1.31
3.07
4.08
4.17
3.36
1.86
-0.09
-2.28
-4.52
-6.67
-8.53
-9.78
-10.12
-9.37
-7.64
-5.21
-2.54
0.02
2.34
4.44
6.42
8.25
9.72
10.46
10.09
8.40
5.48
1.74
-2.22
-5.74
-8.27
-9.49
-9.35
-8.06
-6.01
-3.60
-1.17
1.06
2.98
4.47
5.44
5.83
5.60
4.81
3.54
1.93
0.04
-1.99
-3.99
-5.66
-6.62
-6.57
-5.44
-3.41
-0.91
1.61
3.81
5.54
6.85
7.81
8.51
8.91
8.99
8.74
8.31
7.96
8.04
8.88
10.69
13.63
17.87
23.56
30.77
39.25
48.30
56.66
62.78
65.14
62.69
55.18
43.17
27.94
11.22
-4.96
-18.64
-28.14
-32.54
-31.98
-27.66
-21.47
-15.36
-10.58
-7.42
-5.34
-3.54
-1.50
0.73
2.70
3.87
4.07
3.59
3.02
2.86
3.37
4.47
5.96
7.77
9.99
12.89
16.66
21.27
26.32
31.20
35.28
38.07
39.39
39.27
37.90
35.42
31.94
27.58
22.55
17.13
11.69
6.67
2.51
-0.36
-1.57
-0.83
1.88
6.28
11.66
16.99
21.18
23.37
23.16
20.64
16.25
10.61
4.29
-2.25
-8.62
-14.43
-19.27
-22.83
-24.95
-25.75
-25.56
-24.87
-24.15
-23.76
-23.89
-24.52
-25.49
-26.49
-27.18
-27.25
-26.55
-25.11
-23.23
-21.31
-19.78
-18.93
-18.79
-19.20
-19.77
-20.11
-19.94
-19.25
-18.39
-17.98
-18.72
-21.09
-25.12
-30.29
-35.74
-40.60
-44.32
-46.81
-48.37
-49.37
-49.99
-50.04
-49.00
-46.21
-40.99
-32.91
-21.81
-7.98
7.74
24.08
39.50
52.63
62.50
68.83
71.94
72.47
71.12
68.40
64.60
59.96
54.76
49.40
44.35
40.04
36.69
34.31
32.71
31.67
30.98
30.56
30.40
30.42
30.40
29.97
28.69
26.18
22.26
16.92
10.24
2.34
-6.61
-16.39
-26.61
-36.78
-46.46
-55.42
-63.70
-71.62
-79.55
-87.68
-95.83
-103.42
-109.59
-113.41
-114.15
-111.45
-105.33
-96.23
-84.93
-72.45
-59.85
-48.11
-37.96
-29.73
-23.41
-18.70
-15.11
-12.16
-9.52
-6.93
-4.24
-1.38
1.63
4.62
7.30
9.29
10.28
10.07
8.72
6.57
4.20
2.35
1.64
2.48
4.85
8.32
12.23
15.79
18.39
19.69
19.72
18.69
16.94
14.73
12.28
9.71
7.10
4.51
2.04
-0.17
-1.93
-3.05
-3.29
-2.46
-0.45
2.74
6.90
11.63
16.41
20.67
23.92
25.88
26.39
25.50
23.37
20.25
16.44
12.33
8.30
4.76
2.03
0.28
-0.49
-0.45
0.14
0.99
1.87
2.62
3.17
3.49
3.55
3.37
2.95
2.28
1.45
0.58
-0.14
-0.50
-0.33
0.42
1.68
3.36
5.29
7.40
9.60
11.82
13.88
15.57
16.65
16.95
16.46
15.26
13.51
11.36
8.94
6.30
3.53
0.69
-2.17
-5.01
-7.76
-10.32
-12.56
-14.31
-15.46
-16.00
-15.97
-15.53
-14.77
-13.70
-12.26
-10.40
-8.11
-5.54
-2.96
-0.76
0.59
0.67
-0.81
-3.85
-8.13
-12.92
-17.27
-20.21
-21.07
-19.65
-16.18
-11.25
-5.58
0.08
5.16
9.23
12.10
13.85
14.84
15.70
17.18
19.85
23.93
29.11
34.61
39.48
42.88
44.33
43.83
41.77
38.78
35.46
32.22
29.25
26.57
24.05
21.47
18.58
15.11
10.91
5.99
0.58
-4.92
-9.99
-14.15
-17.05
-18.51
-18.61
-17.57
-15.69
-13.30
-10.67
-8.07
-5.71
-3.79
-2.40
-1.56
-1.16
-1.00
-0.89
-0.73
-0.57
-0.56
-0.90
-1.72
-2.98
-4.52
-6.11
-7.52
-8.68
-9.55
-10.19
-10.61
-10.75
-10.48
-9.69
-8.28
-6.27
-3.76
-0.93
1.99
4.77
7.23
9.28
10.93
12.30
13.57
14.90
16.39
17.98
19.55
20.89
21.77
21.95
21.24
19.48
16.63
12.72
7.93
2.58
-2.92
-8.17
-12.81
-16.54
-19.15
-20.38
-19.99
-17.78
-13.77
-8.31
-2.12
3.84
8.69
11.83
13.13
12.86
11.54
9.76
8.10
7.07
7.09
8.44
11.12
14.73
18.53
21.60
23.09
22.42
19.50
14.59
8.31
1.38
-5.40
-11.23
-15.42
-17.46
-17.22
-15.00
-11.52
-7.65
-4.17
-1.56
0.05
0.74
0.57
-0.59
-2.92
-6.61
-11.65
-17.77
-24.50
-31.31
-37.66
-43.11
-47.32
-50.07
-51.32
-51.18
-49.86
-47.59
-44.55
-40.86
-36.62
-31.97
-27.14
-22.44
-18.23
-14.93
-12.94
-12.55
-13.73
-15.99
-18.34
-19.62
-18.96
-16.06
-11.39
-5.95
-0.83
3.20
5.87
7.39
8.19
8.65
9.01
9.33
9.59
9.79
9.99
10.27
10.65
11.09
11.34
11.11
10.14
8.37
6.04
3.63
1.66
0.49
0.30
0.94
2.10
3.34
4.31
4.83
4.88
4.58
4.08
3.56
3.11
2.71
2.27
1.62
0.64
-0.74
-2.48
-4.41
-6.05
-6.84
-6.05
-3.11
2.10
9.20
17.22
24.94
31.21
35.30
36.97
36.45
34.15
30.45
25.55
19.61
12.78
5.47
-1.76
-8.19
-13.15
-16.13
-17.00
-15.96
-13.55
-10.53
-7.71
-5.75
-4.99
-5.35
-6.41
-7.64
-8.54
-8.89
-8.75
-8.39
-8.11
-8.09
-8.34
-8.72
-9.06
-9.12
-8.71
-7.62
-5.74
-3.11
-0.01
2.96
5.10
5.85
5.07
3.18
1.03
-0.39
-0.28
1.67
5.31
10.06
15.24
20.17
24.32
27.29
28.74
28.45
26.33
22.52
17.44
11.81
6.39
1.87
-1.42
-3.57
-5.07
-6.53
-8.40
-10.80
-13.48
-15.94
-17.70
-18.42
-17.98
-16.35
-13.57
-9.62
-4.56
1.45
8.13
15.03
21.72
27.82
33.13
37.44
40.63
42.56
43.13
42.36
40.48
37.94
35.32
33.21
32.07
32.10
33.14
34.58
35.59
35.30
33.18
29.23
23.98
18.23
12.64
7.50
2.68
-2.11
-7.13
-12.36
-17.52
-22.16
-25.74
-27.70
-27.51
-24.84
-19.69
-12.72
-5.18
1.32
5.30
5.98
3.55
-0.93
-6.04
-10.55
-13.94
-16.36
-18.28
-20.17
-22.18
-24.13
-25.74
-26.76
-27.10
-26.75
-25.66
-23.76
-21.09
-17.91
-14.75
-12.17
-10.51
-9.59
-8.85
-7.57
-5.29
-2.09
1.42
4.33
5.71
4.89
1.67
-3.61
-9.98
-15.94
-19.87
-20.43
-17.33
-11.45
-4.73
0.71
3.41
3.18
1.06
-1.41
-3.00
-3.38
-2.99
-2.60
-2.64
-3.00
-3.16
-2.69
-1.67
-0.73
-0.67
-2.00
-4.51
-7.24
-8.79
-7.88
-3.88
2.95
11.46
19.98
26.88
31.02
31.93
29.88
25.62
20.07
14.09
8.34
3.33
-0.57
-3.00
-3.69
-2.48
0.47
4.67
9.30
13.42
16.08
16.54
14.38
9.50
2.30
-6.33
-14.91
-21.62
-24.77
-23.48
-18.22
-10.82
-3.96
-0.03
-0.32
-4.63
-11.41
-18.60
-24.41
-27.82
-28.69
-27.55
-25.19
-22.47
-20.08
-18.44
-17.67
-17.57
-17.68
-17.56
-16.95
-15.89
-14.55
-13.11
-11.58
-9.86
-7.84
-5.59
-3.39
-1.62
-0.54
-0.15
-0.21
-0.42
-0.70
-1.20
-2.23
-4.01
-6.38
-8.82
-10.54
-10.84
-9.40
-6.34
-2.22
2.23
6.37
9.79
12.37
14.25
15.69
16.87
17.82
18.34
18.15
17.03
15.00
12.31
9.44
6.91
5.08
4.14
4.07
4.69
5.69
6.73
7.42
7.51
6.92
5.79
4.56
3.62
3.22
3.29
3.47
3.37
2.69
1.43
-0.14
-1.55
-2.36
-2.23
-1.02
1.17
3.99
6.98
9.63
11.56
12.73
13.27
13.48
13.60
13.61
13.34
12.55
11.14
9.25
7.31
5.82
5.22
5.82
7.56
10.15
12.99
15.35
16.45
15.77
13.18
9.03
4.03
-1.09
-5.86
-10.21
-14.41
-18.81
-23.54
-28.36
-32.72
-35.94
-37.50
-37.15
-34.94
-31.16
-26.14
-20.32
-14.14
-8.07
-2.64
1.67
4.53
5.86
5.86
5.03
3.90
2.99
2.56
2.68
3.20
3.97
4.91
6.10
7.74
10.03
13.03
16.62
20.46
24.06
26.87
28.45
28.62
27.41
25.15
22.33
19.43
16.80
14.64
12.93
11.54
10.36
9.34
8.55
8.16
8.40
9.30
10.70
12.14
12.94
12.37
9.96
5.64
-0.20
-6.81
-13.33
-19.01
-23.37
-26.20
-27.44
-27.18
-25.57
-22.79
-19.05
-14.54
-9.40
-3.78
2.18
8.26
14.11
19.29
23.27
25.59
25.90
24.14
20.46
15.24
8.99
2.27
-4.33
-10.30
-15.17
-18.63
-20.55
-21.00
-20.19
-18.49
-16.22
-13.70
-11.18
-8.84
-6.76
-4.89
-3.03
-0.98
1.34
3.79
6.01
7.53
8.08
7.74
6.91
6.11
5.72
5.82
6.18
6.48
6.48
6.09
5.39
4.40
3.16
1.66
-0.03
-1.75
-3.30
-4.49
-5.25
-5.59
-5.50
-4.81
-3.23
-0.55
3.30
8.04
13.16
18.19
22.71
26.54
29.53
31.59
32.58
32.41
31.14
28.98
26.30
23.39
20.50
17.77
15.37
13.49
12.30
11.91
12.22
12.94
13.63
13.92
13.53
12.38
10.56
8.27
5.68
2.94
0.17
-2.58
-5.25
-7.84
-10.37
-12.80
-15.05
-16.91
-18.10
-18.43
-17.87
-16.63
-15.11
-13.72
-12.71
-12.11
-11.80
-11.70
-11.85
-12.38
-13.37
-14.66
-15.89
-16.59
-16.39
-15.18
-13.12
-10.50
-7.66
-4.85
-2.25
-0.04
1.59
2.41
2.27
1.19
-0.58
-2.57
-4.32
-5.51
-6.05
-6.16
-6.23
-6.70
-7.79
-9.49
-11.57
-13.69
-15.49
-16.60
-16.68
-15.51
-13.07
-9.58
-5.61
-1.85
1.05
2.65
2.85
1.77
-0.24
-2.78
-5.39
-7.56
-8.84
-8.94
-7.91
-6.17
-4.38
-3.20
-2.97
-3.67
-4.89
-6.12
-6.98
-7.36
-7.41
-7.36
-7.37
-7.40
-7.30
-6.92
-6.19
-5.17
-4.00
-2.78
-1.49
-0.07
1.68
3.91
6.70
10.00
13.62
17.19
20.30
22.57
23.79
23.96
23.22
21.72
19.50
16.51
12.75
8.33
3.61
-0.96
-4.87
-7.78
-9.47
-9.88
-9.07
-7.21
-4.64
-1.81
0.74
2.55
3.41
3.34
2.60
1.47
0.19
-1.11
-2.41
-3.66
-4.78
-5.64
-6.07
-5.98
-5.36
-4.28
-2.92
-1.44
-0.04
1.04
1.54
1.20
-0.12
-2.27
-4.88
-7.39
-9.34
-10.49
-10.97
-11.12
-11.33
-11.88
-12.82
-14.13
-15.72
-17.50
-19.25
-20.67
-21.34
-20.92
-19.36
-16.88
-14.01
-11.28
-9.05
-7.43
-6.30
-5.49
-4.83
-4.23
-3.55
-2.59
-1.10
1.16
4.18
7.70
11.16
13.97
15.61
15.91
14.98
13.19
10.94
8.60
6.34
4.24
2.30
0.51
-1.15
-2.64
-3.87
-4.70
-5.02
-4.71
-3.80
-2.38
-0.67
1.08
2.59
3.66
4.19
4.18
3.74
3.07
2.41
1.99
1.99
2.53
3.62
5.15
6.90
8.61
10.01
10.94
11.37
11.42
11.25
11.02
10.85
10.78
10.80
10.90
11.10
11.41
11.81
12.25
12.67
12.97
13.09
12.98
12.67
12.29
12.04
12.17
12.84
14.06
15.57
16.94
17.68
17.44
16.16
14.05
11.53
9.08
7.03
5.47
4.37
3.60
3.06
2.72
2.58
2.66
2.89
3.12
3.18
3.03
2.72
2.42
2.26
2.18
1.92
1.01
-0.92
-3.81
-7.21
-10.25
-12.04
-11.93
-9.82
-6.19
-1.89
2.03
4.71
5.64
4.80
2.65
-0.12
-2.75
-4.66
-5.64
-5.78
-5.43
-4.90
-4.39
-3.83
-2.98
-1.54
0.76
3.97
7.93
12.20
16.16
19.20
20.83
20.88
19.46
17.00
14.06
11.23
8.91
7.24
6.04
4.79
2.86
-0.32
-4.91
-10.57
-16.42
-21.36
-24.42
-25.15
-23.77
-21.06
-18.04
-15.65
-14.48
-14.74
-16.28
-18.72
-21.57
-24.35
-26.61
-28.07
-28.56
-28.15
-27.00
-25.37
-23.49
-21.60
-19.96
-18.81
-18.38
-18.80
-19.98
-21.55
-23.01
-23.82
-23.68
-22.57
-20.71
-18.46
-16.12
-13.75
-11.28
-8.59
-5.63
-2.47
0.66
3.49
5.82
7.51
8.54
8.93
8.71
7.93
6.71
5.22
3.73
2.57
2.09
2.48
3.76
5.80
8.38
11.30
14.34
17.26
19.73
21.37
21.78
20.72
18.13
14.25
9.47
4.27
-0.88
-5.60
-9.57
-12.52
-14.30
-14.93
-14.62
-13.71
-12.65
-11.81
-11.39
-11.37
-11.58
-11.80
-11.94
-12.02
-12.06
-12.09
-11.97
-11.57
-10.80
-9.74
-8.59
-7.67
-7.20
-7.19
-7.48
-7.68
-7.46
-6.59
-5.01
-2.80
-0.13
2.80
5.81
8.68
11.20
13.10
14.11
14.05
12.95
11.17
9.29
8.04
7.94
9.21
11.62
14.74
18.05
21.26
24.20
26.85
29.13
30.87
31.90
32.05
31.28
29.62
27.05
23.56
19.15
13.90
8.04
1.97
-3.93
-9.36
-14.14
-18.23
-21.66
-24.55
-27.10
-29.54
-32.02
-34.51
-36.77
-38.34
-38.76
-37.64
-34.90
-30.68
-25.38
-19.53
-13.72
-8.53
-4.30
-1.08
1.45
3.91
6.88
10.71
15.29
20.18
24.78
28.59
31.37
33.21
34.29
34.75
34.68
34.10
33.14
32.14
31.60
31.90
33.17
35.13
37.11
38.38
38.41
37.13
34.90
32.35
30.00
28.10
26.60
25.18
23.58
21.65
19.41
17.00
14.51
11.97
9.33
6.56
3.66
0.81
-1.84
-4.09
-5.81
-7.03
-7.84
-8.35
-8.66
-8.86
-8.97
-9.00
-8.90
-8.56
-7.92
-6.91
-5.53
-3.89
-2.20
-0.65
0.52
1.17
1.24
0.74
-0.25
-1.58
-3.09
-4.67
-6.25
-7.84
-9.42
-10.92
-12.16
-12.90
-12.98
-12.37
-11.25
-9.89
-8.56
-7.37
-6.21
-4.91
-3.34
-1.51
0.40
2.22
3.91
5.62
7.58
9.95
12.67
15.46
17.90
19.61
20.40
20.25
19.30
17.67
15.42
12.59
9.20
5.37
1.30
-2.71
-6.35
-9.38
-11.67
-13.22
-14.11
-14.45
-14.33
-13.83
-12.98
-11.81
-10.35
-8.63
-6.66
-4.41
-1.94
0.63
2.95
4.59
5.07
4.11
1.72
-1.69
-5.58
-9.44
-13.05
-16.57
-20.31
-24.48
-28.83
-32.59
-34.60
-33.60
-28.65
-19.45
-6.66
8.20
22.94
35.24
43.23
46.03
43.94
38.23
30.75
23.21
16.78
11.90
8.41
5.94
4.13
2.72
1.61
0.69
-0.03
-0.35
0.19
1.95
4.69
7.18
7.30
2.86
-7.26
-22.26
-39.46
-55.22
-66.36
-71.31
-70.30
-64.88
-56.84
-47.54
-37.75
-27.91
-18.53
-10.24
-3.58
1.26
4.55
6.90
8.85
10.78
12.72
14.41
15.48
15.68
15.07
13.93
12.84
12.32
12.75
14.18
16.39
19.02
21.70
24.21
26.46
28.46
30.15
31.38
31.80
31.07
28.97
25.51
21.00
15.90
10.66
5.47
0.33
-4.91
-10.32
-15.76
-20.93
-25.50
-29.22
-32.04
-34.02
-35.17
-35.43
-34.69
-33.03
-30.77
-28.48
-26.74
-25.92
-26.03
-26.69
-27.34
-27.35
-26.23
-23.72
-19.76
-14.58
-8.75
-3.03
1.72
4.82
6.06
5.73
4.45
2.94
1.72
0.99
0.67
0.62
0.67
0.74
0.79
0.82
0.87
1.00
1.27
1.78
2.60
3.76
5.24
6.95
8.63
10.06
10.98
11.28
11.05
10.52
9.92
9.36
8.74
7.75
6.01
3.16
-0.93
-6.18
-12.24
-18.46
-24.11
-28.46
-30.94
-31.21
-29.24
-25.41
-20.57
-15.99
-13.04
-12.68
-14.91
-18.61
-21.83
-22.70
-20.22
-14.70
-7.50
-0.23
6.02
11.00
15.23
19.33
23.68
28.24
32.78
37.15
41.31
45.24
48.73
51.34
52.48
51.81
49.41
45.80
41.78
38.14
35.33
33.34
31.83
30.16
27.75
24.19
19.51
14.13
8.75
4.12
0.70
-1.48
-2.93
-4.43
-6.69
-10.07
-14.39
-19.12
-23.53
-27.06
-29.42
-30.68
-31.23
-31.60
-32.38
-33.99
-36.62
-40.17
-44.24
-48.26
-51.52
-53.32
-53.18
-50.96
-46.97
-41.98
-37.00
-32.92
-30.13
-28.24
-26.23
-22.83
-17.13
-8.90
1.38
12.87
24.82
36.84
48.90
61.03
72.95
83.90
92.91
99.01
101.71
101.12
97.85
92.77
86.76
80.48
74.31
68.34
62.38
56.17
49.58
42.72
36.02
29.97
24.89
20.73
17.02
13.14
8.63
3.48
-1.91
-6.94
-11.14
-14.43
-17.07
-19.51
-22.19
-25.25
-28.51
-31.59
-34.00
-35.38
-35.70
-35.23
-34.50
-34.10
-34.46
-35.66
-37.46
-39.37
-40.82
-41.41
-40.96
-39.58
-37.55
-35.29
-33.17
-31.48
-30.34
-29.63
-29.10
-28.39
-27.19
-25.31
-22.72
-19.54
-16.04
-12.52
-9.26
-6.47
-4.23
-2.50
-1.18
-0.14
0.65
1.13
1.22
0.91
0.32
-0.24
-0.46
-0.11
0.80
2.05
3.32
4.31
4.94
5.20
5.21
4.99
4.51
3.72
2.60
1.29
-0.03
-1.16
-2.08
-2.84
-3.64
-4.67
-6.07
-7.95
-10.41
-13.47
-17.03
-20.85
-24.60
-27.95
-30.72
-32.86
-34.39
-35.21
-35.12
-33.87
-31.45
-28.20
-24.75
-21.83
-19.87
-18.93
-18.68
-18.59
-18.06
-16.55
-13.53
-8.62
-1.74
6.77
16.10
25.15
32.82
38.32
41.44
42.48
42.01
40.62
38.57
35.73
31.61
25.77
18.16
9.40
0.64
-6.80
-11.93
-14.57
-15.28
-14.97
-14.41
-13.88
-13.21
-12.18
-10.87
-9.74
-9.37
-10.11
-11.78
-13.77
-15.42
-16.41
-16.86
-17.19
-17.73
-18.35
-18.48
-17.41
-14.80
-10.98
-6.98
-4.05
-3.17
-4.67
-8.03
-12.15
-15.83
-18.20
-18.94
-18.27
-16.65
-14.42
-11.71
-8.46
-4.72
-0.83
2.65
5.15
6.59
7.50
8.96
11.96
16.81
22.62
27.64
30.05
28.87
24.57
18.81
13.67
10.61
9.92
10.83
12.16
13.15
13.72
14.26
15.14
16.37
17.47
17.93
17.55
16.62
15.80
15.72
16.62
18.15
19.54
19.76
18.03
14.06
8.32
1.92
-3.79
-7.64
-9.00
-7.99
-5.15
-1.06
4.05
10.33
18.07
27.09
36.51
44.92
50.78
53.06
51.49
46.30
37.75
25.93
10.88
-6.78
-25.38
-42.23
-54.39
-59.79
-58.12
-50.93
-40.92
-30.85
-22.59
-16.94
-13.80
-12.66
-12.97
-14.25
-15.97
-17.42
-17.77
-16.29
-12.67
-7.22
-0.85
5.14
9.50
11.43
10.83
8.26
4.79
1.61
-0.32
-0.48
1.11
3.96
7.29
10.34
12.63
14.12
15.18
16.36
18.13
20.62
23.67
26.90
29.99
32.85
35.65
38.76
42.63
47.87
55.19
65.49
79.67
98.22
120.75
145.92
171.56
195.28
215.30
230.88
242.52
251.47
258.88
265.07
269.24
269.60
264.06
250.96
229.52
200.22
164.58
124.88
83.69
43.45
6.07
-27.33
-56.47
-82.04
-105.51
-128.87
-154.10
-182.19
-212.44
-242.07
-266.81
-282.26
-285.81
-277.73
-261.24
-241.25
-222.34
-207.16
-195.90
-186.88
-177.79
-166.91
-153.59
-138.21
-121.65
-104.89
-88.79
-74.11
-61.54
-51.72
-45.23
-42.32
-42.72
-45.48
-49.15
-52.00
-52.65
-50.48
-45.80
-39.67
-33.34
-27.78
-23.39
-20.06
-17.53
-15.69
-14.69
-14.82
-16.26
-18.83
-22.02
-25.09
-27.37
-28.50
-28.38
-27.19
-25.26
-22.95
-20.58
-18.35
-16.31
-14.31
-12.14
-9.63
-6.76
-3.77
-1.04
1.02
2.17
2.42
2.09
1.56
1.22
1.21
1.49
1.88
2.20
2.45
2.75
3.26
4.05
5.03
6.04
6.86
7.47
7.87
8.08
8.03
7.58
6.59
5.12
3.47
2.05
1.25
1.15
1.50
1.83
1.64
0.62
-1.29
-3.91
-6.98
-10.12
-13.04
-15.44
-17.13
-18.03
-18.20
-17.87
-17.32
-16.89
-16.76
-16.98
-17.47
-18.05
-18.59
-18.98
-19.14
-18.94
-18.28
-17.01
-15.10
-12.60
-9.73
-6.80
-4.06
-1.73
0.13
1.55
2.69
3.71
4.76
5.87
6.90
7.67
7.96
7.79
7.47
7.54
8.56
10.92
14.59
19.08
23.68
27.59
30.34
31.77
31.99
31.21
29.59
27.15
23.86
19.86
15.48
11.29
7.88
5.64
4.60
4.42
4.60
4.75
4.74
4.67
4.71
4.90
5.02
4.66
3.29
0.54
-3.59
-8.69
-13.95
-18.41
-21.18
-21.81
-20.35
-17.32
-13.42
-9.28
-5.28
-1.54
1.94
5.10
7.66
9.25
9.48
8.25
5.84
2.91
0.31
-1.17
-1.06
0.69
3.83
7.95
12.65
17.62
22.63
27.44
31.54
34.31
35.07
33.42
29.38
23.55
16.89
10.53
5.45
2.22
0.92
1.21
2.49
4.14
5.61
6.67
7.31
7.80
8.40
9.33
10.64
12.14
13.48
14.17
13.77
12.18
9.64
6.79
4.47
3.35
3.73
5.39
7.67
9.73
10.83
10.62
9.12
6.72
3.84
0.75
-2.42
-5.62
-8.67
-11.17
-12.52
-12.12
-9.76
-5.71
-0.82
3.88
7.56
9.79
10.63
10.39
9.42
7.86
5.68
2.79
-0.78
-4.79
-8.77
-12.06
-13.99
-13.94
-11.61
-7.06
-0.92
5.76
11.77
16.06
18.12
18.05
16.39
13.88
11.11
8.48
6.20
4.42
3.27
2.89
3.39
4.74
6.90
9.78
13.19
16.86
20.34
23.01
24.35
24.03
22.15
19.15
15.65
12.27
9.32
6.83
4.56
2.35
0.19
-1.64
-2.66
-2.42
-0.80
1.92
5.11
7.96
9.82
10.31
9.43
7.46
4.82
1.92
-0.96
-3.77
-6.65
-9.82
-13.40
-17.19
-20.57
-22.75
-23.01
-21.02
-17.07
-11.94
-6.71
-2.35
0.45
1.46
0.83
-1.11
-3.91
-7.22
-10.74
-14.26
-17.57
-20.39
-22.39
-23.22
-22.69
-20.73
-17.52
-13.37
-8.68
-3.95
0.27
3.47
5.22
5.29
3.85
1.24
-1.98
-5.28
-8.22
-10.43
-11.60
-11.39
-9.63
-6.37
-2.04
2.70
7.10
10.56
12.73
13.48
12.88
11.14
8.60
5.68
2.84
0.43
-1.46
-2.89
-3.98
-4.66
-4.64
-3.51
-1.06
2.48
6.48
10.02
12.33
13.02
12.21
10.34
7.94
5.41
2.97
0.69
-1.40
-3.19
-4.50
-5.10
-4.76
-3.35
-0.87
2.59
6.76
11.24
15.54
19.10
21.47
22.46
22.24
21.30
20.11
18.95
17.75
16.22
14.08
11.38
8.60
6.44
5.50
5.96
7.49
9.47
11.19
12.11
11.94
10.62
8.25
5.09
1.38
-2.60
-6.67
-10.76
-14.77
-18.45
-21.26
-22.50
-21.53
-18.08
-12.54
-5.92
0.39
5.16
7.64
7.88
6.52
4.54
2.84
1.90
1.71
1.74
1.30
-0.16
-2.84
-6.46
-10.32
-13.61
-15.69
-16.32
-15.78
-14.69
-13.77
-13.50
-13.93
-14.61
-14.83
-13.97
-11.70
-8.13
-3.79
0.59
4.28
6.78
7.90
7.80
6.88
5.68
4.70
4.24
4.33
4.72
5.04
4.95
4.27
3.00
1.32
-0.63
-2.74
-4.85
-6.66
-7.63
-7.09
-4.50
0.30
6.90
14.39
21.63
27.56
31.41
32.81
31.74
28.52
23.77
18.29
12.95
8.32
4.52
1.20
-2.16
-5.81
-9.45
-12.24
-13.21
-11.73
-7.86
-2.40
3.39
8.22
11.16
11.80
10.27
7.19
3.43
-0.12
-2.81
-4.39
-5.03
-5.13
-5.04
-4.83
-4.26
-2.97
-0.78
2.14
5.28
7.96
9.58
9.87
8.87
6.86
4.17
1.09
-2.24
-5.73
-9.30
-12.75
-15.75
-17.89
-18.78
-18.21
-16.19
-13.00
-9.12
-5.15
-1.69
0.76
1.89
1.62
0.14
-2.20
-4.94
-7.72
-10.33
-12.64
-14.59
-16.03
-16.57
-15.73
-13.08
-8.50
-2.32
4.62
11.20
16.29
19.17
19.66
18.20
15.51
12.30
9.02
5.74
2.36
-1.09
-4.29
-6.62
-7.37
-6.14
-2.99
1.50
6.45
10.94
14.29
16.16
16.41
15.00
11.89
7.13
0.99
-6.01
-13.06
-19.27
-23.88
-26.43
-26.71
-24.74
-20.71
-14.94
-7.96
-0.48
6.67
12.68
17.00
19.39
19.92
18.79
16.24
12.53
7.98
2.97
-2.00
-6.38
-9.66
-11.38
-11.21
-9.07
-5.09
0.28
6.31
12.13
16.96
20.30
22.05
22.44
21.84
20.68
19.26
17.84
16.64
15.92
15.94
17.03
19.43
23.25
28.29
34.05
39.74
44.58
48.16
50.76
53.37
57.23
63.15
71.08
80.03
88.68
96.19
102.57
108.58
115.09
122.44
130.27
137.88
144.78
151.01
156.99
162.85
168.06
171.33
171.26
167.07
159.17
149.07
138.91
130.70
125.81
124.74
127.31
132.80
140.25
148.48
156.23
162.15
164.94
163.44
156.77
144.44
126.44
103.30
76.02
46.09
15.38
-14.20
-41.06
-64.41
-84.61
-103.06
-121.71
-142.26
-165.33
-190.04
-214.45
-236.30
-254.16
-268.15
-279.92
-292.12
-307.63
-328.96
-357.66
-393.53
-433.81
-472.80
-502.59
-514.93
-504.20
-469.79
-416.78
-354.18
-291.57
-235.64
-188.85
-150.10
-117.15
-88.96
-66.51
-51.88
-46.34
-48.67
-54.68
-58.38
-54.16
-39.16
-14.87
13.62
39.96
59.60
71.81
79.72
88.42
101.99
121.45
144.65
168.00
188.64
205.78
220.38
233.64
245.65
254.98
259.45
257.33
248.32
233.57
215.12
195.29
176.08
158.86
144.33
132.43
122.43
113.06
102.87
90.57
75.48
57.61
37.52
16.04
-6.05
-28.09
-49.46
-69.42
-87.09
-101.61
-112.40
-119.44
-123.24
-124.69
-124.72
-123.94
-122.53
-120.20
-116.52
-111.21
-104.44
-96.77
-88.93
-81.38
-74.14
-66.82
-58.94
-50.28
-41.12
-32.17
-24.12
-17.44
-12.25
-8.44
-6.01
-5.15
-6.08
-8.83
-12.95
-17.50
-21.27
-23.26
-23.10
-21.22
-18.73
-16.96
-16.92
-18.86
-22.33
-26.50
-30.50
-33.87
-36.52
-38.55
-40.02
-40.79
-40.58
-39.12
-36.40
-32.51
-27.56
-21.49
-14.10
-5.21
5.06
15.84
25.52
32.05
33.79
30.18
22.20
12.11
2.67
-3.82
-6.19
-4.59
-0.05
6.12
12.83
19.31
25.03
29.40
31.79
31.67
28.86
23.68
16.95
9.73
3.10
-2.13
-5.60
-7.38
-7.83
-7.27
-5.89
-3.62
-0.34
3.92
8.74
13.32
16.66
17.94
16.77
13.45
8.81
3.94
-0.09
-2.51
-2.84
-0.92
3.22
9.24
16.34
23.37
29.05
32.56
33.84
33.54
32.62
31.73
30.89
29.60
27.31
23.91
19.92
16.18
13.40
11.74
10.90
10.38
9.91
9.65
9.98
11.14
12.94
14.75
15.65
14.90
12.16
7.61
1.95
-3.86
-8.92
-12.56
-14.44
-14.56
-13.17
-10.61
-7.14
-2.82
2.52
9.23
17.48
26.87
36.15
43.26
46.06
43.24
35.07
23.46
11.34
1.44
-4.51
-6.28
-4.73
-1.22
2.96
6.79
9.46
10.39
9.30
6.37
2.28
-2.00
-5.65
-8.29
-10.04
-11.17
-11.93
-12.35
-12.33
-11.73
-10.51
-8.66
-6.16
-3.02
0.64
4.47
7.94
10.42
11.41
10.65
8.23
4.55
0.20
-4.14
-7.85
-10.42
-11.55
-11.15
-9.34
-6.33
-2.35
2.30
7.22
11.86
15.53
17.62
17.73
15.88
12.47
8.04
3.12
-1.93
-6.90
-11.57
-15.64
-18.64
-20.09
-19.67
-17.37
-13.49
-8.57
-3.31
1.65
5.72
8.52
9.87
9.79
8.53
6.47
4.03
1.53
-0.72
-2.46
-3.47
-3.52
-2.45
-0.14
3.34
7.75
12.62
17.37
21.37
24.11
25.30
24.84
22.91
19.77
15.73
11.05
6.03
0.97
-3.71
-7.46
-9.73
-10.10
-8.44
-4.98
-0.30
4.82
9.55
13.20
15.41
16.07
15.36
13.59
11.11
8.31
5.45
2.71
0.25
-1.79
-3.22
-3.79
-3.32
-1.82
0.43
2.90
5.00
6.26
6.51
5.89
4.74
3.39
2.03
0.73
-0.59
-1.98
-3.37
-4.58
-5.36
-5.37
-4.42
-2.44
0.35
3.50
6.39
8.42
9.15
8.38
6.26
3.13
-0.54
-4.24
-7.53
-9.97
-11.23
-11.11
-9.60
-6.83
-3.12
1.20
5.79
10.28
14.32
17.52
19.53
20.10
19.20
17.05
14.10
10.90
7.93
5.58
4.05
3.41
3.63
4.68
6.45
8.79
11.48
14.20
16.57
18.22
18.87
18.40
16.88
14.53
11.65
8.51
5.33
2.30
-0.41
-2.55
-3.81
-3.92
-2.76
-0.45
2.70
6.25
9.82
13.19
16.26
18.88
20.72
21.14
19.46
15.22
8.42
-0.33
-9.90
-19.02
-26.56
-31.74
-34.21
-34.09
-31.82
-28.18
-24.07
-20.36
-17.52
-15.51
-13.77
-11.50
-8.11
-3.67
1.08
4.95
6.95
6.73
4.67
1.67
-1.30
-3.51
-4.55
-4.29
-2.64
0.41
4.65
9.61
14.48
18.25
20.12
19.70
17.26
13.68
10.12
7.65
6.92
8.09
10.77
14.27
17.84
20.94
23.26
24.66
25.14
24.72
23.43
21.35
18.58
15.23
11.54
7.78
4.29
1.39
-0.77
-2.25
-3.25
-4.01
-4.65
-5.14
-5.41
-5.51
-5.66
-6.23
-7.57
-9.86
-12.99
-16.63
-20.34
-23.82
-26.92
-29.60
-31.89
-33.72
-34.93
-35.28
-34.46
-32.24
-28.54
-23.54
-17.68
-11.73
-6.47
-2.46
0.11
1.56
2.41
3.20
4.14
5.15
5.95
6.35
6.39
6.34
6.50
6.96
7.50
7.74
7.28
5.95
3.93
1.57
-0.67
-2.50
-3.78
-4.50
-4.66
-4.25
-3.22
-1.58
0.49
2.70
4.69
6.15
6.95
7.04
6.47
5.34
3.81
2.11
0.54
-0.61
-1.14
-1.00
-0.33
0.62
1.58
2.36
2.85
3.08
3.12
3.02
2.86
2.73
2.78
3.20
4.14
5.70
7.76
10.08
12.31
14.05
15.04
15.20
14.61
13.44
11.91
10.19
8.38
6.48
4.51
2.47
0.40
-1.63
-3.59
-5.49
-7.41
-9.33
-11.11
-12.48
-13.19
-13.02
-12.04
-10.44
-8.51
-6.55
-4.73
-3.12
-1.71
-0.48
0.62
1.59
2.43
3.10
3.52
3.67
3.60
3.46
3.45
3.71
4.24
4.90
5.50
5.89
6.05
6.07
6.10
6.18
6.26
6.19
5.89
5.42
4.93
4.60
4.52
4.57
4.56
4.27
3.63
2.74
1.81
1.03
0.48
0.13
-0.09
-0.28
-0.47
-0.68
-0.86
-0.96
-0.92
-0.71
-0.42
-0.18
-0.16
-0.35
-0.64
-0.76
-0.51
0.14
1.01
1.82
2.34
2.53
2.49
2.32
2.06
1.66
1.05
0.28
-0.55
-1.29
-1.85
-2.27
-2.69
-3.20
-3.89
-4.75
-5.70
-6.66
-7.47
-7.97
-8.08
-7.77
-7.14
-6.34
-5.55
-4.80
-4.08
-3.31
-2.51
-1.71
-1.05
-0.61
-0.36
-0.16
0.23
0.97
2.07
3.36
4.53
5.30
5.55
5.37
4.99
4.64
4.40
4.23
3.96
3.51
2.95
2.46
2.21
2.22
2.33
2.25
1.85
1.17
0.38
-0.31
-0.87
-1.41
-2.14
-3.09
-4.13
-4.97
-5.30
-5.01
-4.16
-2.98
-1.68
-0.37
0.94
2.29
3.60
4.78
5.66
6.20
6.43
6.52
6.63
6.85
7.20
7.54
7.73
7.67
7.30
6.65
5.79
4.80
3.71
2.59
1.45
0.39
-0.52
-1.21
-1.72
-2.13
-2.59
-3.23
-4.01
-4.73
-5.19
-5.24
-4.90
-4.32
-3.73
-3.26
-2.96
-2.78
-2.66
-2.54
-2.40
-2.17
-1.77
-1.11
-0.24
0.69
1.46
1.89
2.04
2.08
2.23
2.58
3.01
3.29
3.30
3.08
2.87
2.96
3.56
4.65
5.97
7.25
8.25
8.93
9.31
9.40
9.20
8.66
7.72
6.37
4.70
2.80
0.75
-1.40
-3.67
-5.97
-8.19
-10.12
-11.61
-12.64
-13.31
-13.88
-14.58
-15.53
-16.65
-17.66
-18.23
-18.05
-16.98
-15.05
-12.42
-9.33
-6.09
-2.96
-0.15
2.19
4.03
5.41
6.53
7.52
8.53
9.55
10.48
11.17
11.50
11.47
11.14
10.65
10.10
9.52
8.90
8.16
7.27
6.25
5.12
3.93
2.60
1.04
-0.87
-3.13
-5.66
-8.26
-10.70
-12.85
-14.66
-16.13
-17.22
-17.81
-17.74
-16.86
-15.15
-12.71
-9.79
-6.61
-3.39
-0.25
2.76
5.56
8.08
10.21
11.85
12.98
13.66
13.95
13.98
13.84
13.56
13.15
12.54
11.77
10.91
10.12
9.47
8.96
8.41
7.64
6.47
4.88
3.03
1.12
-0.60
-1.96
-2.93
-3.52
-3.79
-3.83
-3.74
-3.67
-3.77
-4.12
-4.74
-5.52
-6.30
-6.92
-7.27
-7.35
-7.17
-6.85
-6.47
-6.09
-5.77
-5.55
-5.43
-5.41
-5.46
-5.48
-5.37
-4.94
-4.04
-2.67
-0.87
1.15
3.17
4.96
6.42
7.51
8.26
8.74
8.92
8.79
8.27
7.39
6.22
4.90
3.50
2.06
0.50
-1.32
-3.40
-5.64
-7.72
-9.25
-9.84
-9.32
-7.79
-5.52
-3.00
-0.65
1.22
2.47
3.10
3.23
3.02
2.63
2.19
1.75
1.40
1.21
1.22
1.47
1.87
2.26
2.40
2.14
1.40
0.32
-0.79
-1.57
-1.70
-1.03
0.52
2.82
5.54
8.22
10.33
11.41
11.31
10.21
8.56
6.95
5.84
5.47
5.75
6.43
7.21
7.82
8.12
7.99
7.34
6.11
4.40
2.41
0.46
-1.12
-2.04
-2.18
-1.60
-0.57
0.47
1.10
1.04
0.25
-1.03
-2.39
-3.40
-3.78
-3.52
-2.91
-2.31
-2.08
-2.34
-2.94
-3.62
-4.09
-4.23
-4.10
-3.88
-3.73
-3.68
-3.63
-3.35
-2.81
-2.10
-1.51
-1.48
-2.49
-4.94
-9.01
-14.61
-21.21
-27.90
-33.52
-36.98
-37.58
-35.21
-30.40
-24.04
-17.15
-10.48
-4.45
0.84
5.51
9.63
13.22
16.15
18.26
19.37
19.36
18.27
16.23
13.50
10.43
7.43
4.92
3.35
2.95
3.71
5.27
6.94
7.93
7.59
5.69
2.42
-1.61
-5.70
-9.31
-12.11
-14.09
-15.32
-15.87
-15.68
-14.63
-12.64
-9.70
-6.08
-2.21
1.27
3.73
4.70
3.98
1.73
-1.55
-5.21
-8.54
-10.99
-12.20
-12.04
-10.53
-7.92
-4.63
-1.16
1.98
4.56
6.63
8.49
10.54
12.91
15.32
17.20
17.94
17.23
15.28
12.74
10.37
8.71
7.96
7.94
8.24
8.58
8.82
8.93
8.94
8.72
7.95
6.24
3.23
-1.15
-6.61
-12.52
-18.06
-22.47
-25.14
-25.51
-22.94
-16.79
-7.00
5.48
18.56
29.55
36.14
37.28
33.49
26.36
17.65
8.61
-0.29
-8.87
-16.70
-22.95
-26.58
-26.81
-23.30
-16.28
-6.54
4.54
15.05
22.88
26.49
25.58
21.22
15.28
9.41
4.21
-0.74
-6.24
-12.54
-18.87
-23.82
-26.11
-25.31
-22.08
-17.67
-13.32
-9.80
-7.32
-5.79
-4.95
-4.66
-4.89
-5.67
-7.07
-8.96
-11.08
-12.88
-13.70
-12.95
-10.34
-6.05
-0.68
4.94
9.97
13.75
15.98
16.64
15.94
14.13
11.48
8.24
4.67
1.14
-1.98
-4.34
-5.71
-6.09
-5.60
-4.50
-3.03
-1.31
0.56
2.48
4.27
5.61
6.15
5.64
3.95
1.18
-2.32
-6.14
-9.76
-12.70
-14.52
-14.89
-13.65
-10.84
-6.70
-1.68
3.66
8.71
12.93
15.84
17.14
16.80
14.94
11.97
8.41
4.80
1.68
-0.57
-1.71
-1.66
-0.50
1.52
4.00
6.49
8.55
9.95
10.58
10.47
9.66
8.14
5.83
2.68
-1.21
-5.52
-9.73
-13.27
-15.63
-16.51
-15.88
-13.93
-11.03
-7.60
-4.15
-1.09
1.20
2.48
2.68
1.94
0.52
-1.20
-2.83
-4.07
-4.74
-4.85
-4.49
-3.85
-3.04
-2.16
-1.23
-0.30
0.51
1.06
1.19
0.76
-0.25
-1.72
-3.49
-5.28
-6.81
-7.84
-8.22
-7.96
-7.22
-6.26
-5.34
-4.66
-4.27
-4.19
-4.40
-4.95
-5.87
-7.10
-8.46
-9.67
-10.42
-10.54
-9.99
-8.83
-7.19
-5.14
-2.72
0.03
3.02
5.99
8.59
10.44
11.26
10.97
9.75
7.96
6.05
4.40
3.22
2.66
2.66
3.14
3.97
4.96
5.91
6.65
7.10
7.27
7.22
6.99
6.51
5.66
4.34
2.58
0.53
-1.51
-3.30
-4.63
-5.46
-5.86
-5.94
-5.82
-5.54
-5.13
-4.52
-3.62
-2.38
-0.79
1.06
3.04
5.01
6.90
8.67
10.27
11.53
12.19
11.98
10.70
8.49
5.73
3.02
0.91
-0.27
-0.56
-0.19
0.47
1.11
1.57
1.82
1.86
1.70
1.30
0.57
-0.54
-2.03
-3.80
-5.68
-7.42
-8.77
-9.46
-9.36
-8.47
-6.95
-5.07
-3.12
-1.35
0.07
1.03
1.44
1.32
0.74
-0.07
-0.91
-1.57
-1.92
-1.93
-1.64
-1.04
-0.19
0.86
2.02
3.12
4.07
4.82
5.43
5.97
6.48
6.89
7.11
7.13
7.00
6.91
7.00
7.29
7.65
7.88
7.83
7.54
7.17
6.82
6.49
5.91
4.68
2.50
-0.67
-4.48
-8.34
-11.59
-13.75
-14.60
-14.17
-12.63
-10.22
-7.22
-4.01
-1.00
1.38
2.79
3.12
2.42
0.95
-0.88
-2.68
-4.09
-4.90
-5.06
-4.66
-3.82
-2.67
-1.26
0.42
2.32
4.22
5.89
7.04
7.50
7.31
6.57
5.49
4.19
2.77
1.29
-0.18
-1.51
-2.60
-3.39
-3.91
-4.22
-4.43
-4.58
-4.75
-5.06
-5.65
-6.68
-8.26
-10.34
-12.69
-14.96
-16.72
-17.57
-17.26
-15.70
-12.97
-9.33
-5.12
-0.78
3.27
6.68
9.24
10.85
11.61
11.69
11.30
10.70
10.07
9.51
9.11
8.85
8.70
8.64
8.62
8.58
8.49
8.30
7.98
7.48
6.77
5.80
4.53
2.96
1.20
-0.58
-2.16
-3.36
-4.11
-4.47
-4.67
-4.98
-5.68
-6.85
-8.38
-9.99
-11.33
-12.13
-12.29
-11.88
-11.05
-9.92
-8.55
-6.92
-5.01
-2.88
-0.65
1.51
3.44
5.02
6.18
6.85
7.01
6.74
6.21
5.68
5.37
5.42
5.72
6.01
5.99
5.50
4.58
3.47
2.42
1.58
0.94
0.32
-0.44
-1.32
-2.16
-2.75
-2.98
-2.97
-2.95
-3.17
-3.73
-4.56
-5.44
-6.13
-6.46
-6.41
-6.01
-5.34
-4.45
-3.34
-1.99
-0.42
1.27
2.95
4.43
5.57
6.32
6.70
6.81
6.80
6.78
6.80
6.94
7.27
7.82
8.58
9.41
10.12
10.55
10.63
10.38
9.93
9.34
8.64
7.74
6.62
5.32
3.98
2.79
1.80
0.99
0.14
-0.99
-2.54
-4.50
-6.66
-8.71
-10.33
-11.27
-11.38
-10.69
-9.39
-7.72
-5.99
-4.40
-3.00
-1.77
-0.64
0.38
1.20
1.63
1.61
1.16
0.53
0.04
-0.01
0.47
1.34
2.38
3.29
3.94
4.35
4.62
4.90
5.28
5.69
5.99
6.07
5.77
5.14
4.27
3.31
2.44
1.73
1.13
0.51
-0.25
-1.18
-2.24
-3.36
-4.46
-5.52
-6.55
-7.55
-8.42
-9.01
-9.15
-8.79
-7.96
-6.79
-5.43
-4.00
-2.60
-1.22
0.17
1.59
3.05
4.52
5.88
7.05
8.01
8.82
9.60
10.44
11.28
11.95
12.21
11.87
10.93
9.62
8.23
7.03
6.18
5.66
5.36
5.13
4.90
4.64
4.42
4.21
3.95
3.47
2.55
1.10
-0.81
-2.97
-5.06
-6.84
-8.29
-9.47
-10.51
-11.50
-12.36
-12.91
-13.02
-12.59
-11.63
-10.26
-8.56
-6.59
-4.43
-2.17
0.04
1.98
3.43
4.24
4.36
3.89
3.02
2.03
1.22
0.87
1.12
1.96
3.21
4.54
5.62
6.22
6.30
6.02
5.56
5.06
4.60
4.15
3.69
3.22
2.72
2.14
1.41
0.40
-0.97
-2.65
-4.53
-6.40
-8.06
-9.39
-10.36
-11.01
-11.43
-11.68
-11.79
-11.71
-11.41
-10.87
-10.12
-9.27
-8.36
-7.39
-6.23
-4.78
-2.95
-0.83
1.38
3.49
5.35
6.93
8.24
9.31
10.12
10.65
10.97
11.19
11.43
11.75
12.01
11.99
11.54
10.63
9.40
8.13
6.96
5.91
4.80
3.45
1.78
-0.09
-1.94
-3.60
-4.94
-6.05
-7.09
-8.24
-9.57
-11.05
-12.53
-13.83
-14.81
-15.37
-15.50
-15.17
-14.31
-12.86
-10.77
-8.12
-5.15
-2.20
0.43
2.51
4.04
5.18
6.10
6.95
7.72
8.37
8.89
9.39
9.93
10.51
10.99
11.10
10.71
9.81
8.62
7.42
6.47
5.82
5.42
5.13
4.88
4.70
4.64
4.68
4.65
4.36
3.59
2.26
0.42
-1.83
-4.28
-6.76
-9.07
-11.02
-12.44
-13.28
-13.52
-13.26
-12.62
-11.67
-10.50
-9.16
-7.70
-6.18
-4.70
-3.27
-1.88
-0.52
0.85
2.17
3.36
4.41
5.37
6.33
7.40
8.55
9.61
10.35
10.54
10.16
9.36
8.35
7.33
6.37
5.40
4.39
3.39
2.46
1.70
1.08
0.43
-0.42
-1.65
-3.30
-5.26
-7.22
-8.90
-10.02
-10.44
-10.23
-9.61
-8.88
-8.24
-7.72
-7.15
-6.35
-5.18
-3.71
-2.11
-0.63
0.63
1.70
2.68
3.69
4.73
5.77
6.79
7.82
8.95
10.22
11.65
13.16
14.63
15.94
16.97
17.69
18.07
18.21
18.24
18.30
18.52
19.03
19.86
20.95
22.20
23.43
24.56
25.58
26.63
27.87
29.50
31.59
34.11
37.01
40.16
43.50
46.98
50.49
53.97
57.48
61.30
65.94
71.97
79.60
88.59
98.20
107.45
115.72
123.05
130.14
138.09
147.65
158.82
170.60
181.30
189.00
192.04
189.18
179.77
163.74
141.60
114.55
84.22
52.24
19.77
-12.99
-46.85
-83.14
-122.51
-164.04
-204.81
-240.56
-267.22
-282.16
-284.71
-275.86
-257.51
-231.79
-200.71
-166.25
-130.60
-96.53
-67.09
-45.25
-33.12
-31.10
-37.29
-47.47
-56.10
-58.12
-50.80
-34.40
-11.50
14.81
42.50
71.04
100.46
129.90
156.64
176.16
184.12
178.03
158.10
127.07
89.05
48.39
8.63
-27.82
-60.67
-90.67
-118.75
-145.24
-169.49
-190.39
-207.02
-219.61
-229.76
-241.61
-259.40
-286.33
-324.02
-372.25
-428.87
-489.38
-546.69
-591.78
-617.59
-620.07
-599.67
-561.51
-513.70
-464.68
-420.91
-385.71
-346.23
