1681309014.00
64.000000
-0.00
-0.00
-0.00
-0.00
-0.00
-0.00
-0.00
-0.00
-0.00
-0.00
0.00
0.01
0.01
-0.00
-0.03
-0.05
-0.05
0.00
0.13
0.36
0.66
1.01
1.37
1.72
2.06
2.40
2.79
3.24
3.80
4.42
5.06
5.66
6.20
6.68
7.15
7.68
8.31
9.14
10.09
11.04
11.88
12.56
13.14
13.76
14.65
15.96
17.91
20.32
22.90
25.38
27.58
29.57
31.68
34.32
37.81
42.54
48.15
54.10
59.83
64.97
69.58
74.14
79.34
85.71
93.76
103.00
112.62
121.73
129.77
136.75
143.30
150.75
157.77
166.64
177.95
191.79
206.97
220.57
228.25
225.36
208.53
176.87
132.76
80.05
23.07
-34.95
-92.44
-149.16
-205.23
-260.37
-313.73
-363.85
-409.80
-450.85
-486.42
-515.62
-537.07
-549.02
-549.71
-538.06
-513.84
-478.24
-433.38
-381.88
-326.38
-269.13
-211.85
-155.80
-102.02
-51.36
-4.81
36.76
72.70
102.72
126.98
145.98
160.43
171.04
178.44
183.02
185.08
184.84
182.57
178.62
173.41
167.34
160.76
153.92
146.96
139.96
132.94
125.96
119.08
112.36
105.88
99.68
93.80
88.25
83.04
78.18
73.67
69.51
65.73
62.35
59.35
56.76
54.52
52.64
51.05
49.67
48.38
47.04
45.48
43.50
40.94
37.64
33.52
28.55
22.81
16.35
9.36
2.06
-5.26
-12.32
-18.86
-24.61
-29.36
-32.96
-35.24
-36.11
-35.53
-33.52
-30.18
-25.64
-20.11
-13.83
-7.07
-0.13
6.72
13.20
19.10
24.23
28.50
31.89
34.42
36.16
37.19
37.57
37.24
36.11
34.11
31.24
27.55
23.21
18.50
13.76
9.40
5.65
2.73
0.74
-0.22
-0.11
1.15
3.64
7.37
12.28
17.95
23.89
29.65
34.86
39.43
43.54
47.60
52.10
57.36
63.09
68.67
73.22
75.79
75.66
72.48
66.14
56.49
44.86
31.33
15.42
-3.60
-26.24
-52.29
-80.69
-109.60
-136.99
-161.12
-181.35
-198.05
-212.38
-226.11
-240.94
-257.90
-276.56
-294.90
-309.26
-315.55
-310.08
-290.97
-259.06
-217.87
-172.78
-129.53
-92.61
-64.16
-43.77
-28.95
-16.52
-4.03
9.13
21.98
32.80
40.53
45.69
50.34
56.91
66.90
80.04
94.66
108.97
122.30
135.25
149.02
163.88
178.47
190.42
197.46
198.96
196.12
191.47
187.38
184.96
183.70
182.09
178.51
171.99
162.49
150.84
138.30
126.37
116.27
108.36
102.07
96.06
89.09
80.49
70.45
59.44
47.53
34.17
18.42
-0.08
-20.44
-40.63
-58.23
-71.66
-80.79
-86.61
-90.63
-93.76
-96.18
-97.64
-97.97
-97.53
-96.87
-96.43
-96.13
-95.34
-93.24
-89.04
-82.68
-74.75
-66.44
-59.15
-53.88
-50.82
-49.30
-48.12
-46.07
-42.62
-37.93
-32.79
-28.13
-24.66
-22.69
-22.11
-22.72
-24.15
-26.09
-28.16
-30.08
-31.76
-33.14
-34.28
-34.99
-35.07
-34.32
-32.88
-31.24
-30.09
-29.99
-30.93
-32.42
-33.57
-33.61
-32.30
-30.15
-28.19
-27.58
-29.07
-32.60
-37.48
-42.53
-46.77
-49.66
-51.42
-52.76
-54.43
-57.08
-60.83
-65.42
-70.20
-74.29
-76.73
-76.89
-74.82
-71.37
-68.07
-66.41
-67.35
-70.66
-75.13
-79.13
-81.18
-80.28
-75.87
-67.84
-56.62
-43.50
-30.58
-20.11
-13.12
-8.27
-1.73
11.90
37.08
75.64
125.28
180.16
232.80
276.14
305.62
319.72
319.72
308.59
289.89
266.70
241.17
214.67
188.12
162.47
138.80
118.12
100.91
86.79
74.74
63.46
52.09
40.53
29.41
19.69
12.04
6.48
2.31
-1.62
-6.47
-12.80
-20.60
-29.09
-37.24
-44.22
-49.70
-54.01
-58.01
-62.59
-68.29
-74.91
-81.51
-86.79
-89.92
-90.73
-89.83
-88.09
-86.02
-83.42
-79.55
-73.81
-66.05
-56.92
-47.37
-38.11
-29.20
-20.10
-10.15
0.90
12.54
23.85
33.75
41.66
47.47
51.34
53.48
54.03
53.18
51.33
49.10
47.21
46.09
45.72
45.59
45.09
43.64
41.16
37.86
34.16
30.39
26.67
22.98
19.29
15.61
11.97
8.44
5.02
1.80
-1.15
-3.81
-6.23
-8.69
-11.35
-14.36
-17.50
-20.36
-22.45
-23.49
-23.54
-22.81
-21.56
-19.84
-17.49
-14.35
-10.65
-6.91
-3.78
-1.67
-0.38
0.61
1.94
3.83
5.90
7.45
7.71
6.46
3.88
0.58
-2.81
-5.90
-8.63
-11.05
-13.08
-14.55
-15.03
-14.37
-12.78
-10.83
-9.38
-9.05
-10.11
-11.97
-13.60
-13.94
-12.56
-9.79
-6.81
-4.86
-4.71
-6.34
-8.88
-11.36
-13.04
-13.73
-13.68
-13.18
-12.46
-11.53
-10.49
-9.61
-9.31
-9.83
-11.08
-12.49
-13.41
-13.46
-12.50
-10.82
-8.67
-6.16
-3.28
0.12
4.08
8.65
13.67
18.96
24.01
28.22
30.85
31.55
30.58
28.72
27.10
26.38
26.49
26.64
25.66
22.77
17.93
11.73
5.06
-1.48
-7.96
-15.06
-23.82
-34.88
-48.11
-62.22
-74.93
-83.97
-87.81
-86.25
-80.83
-73.84
-67.93
-65.36
-67.52
-74.79
-86.49
-101.12
-116.69
-131.12
-142.57
-150.33
-155.08
-158.78
-163.86
-172.14
-183.93
-197.48
-209.35
-214.63
-208.99
-189.82
-157.02
-112.74
-60.48
-3.77
54.44
111.84
167.37
219.91
268.06
310.57
346.18
374.14
394.30
406.49
405.86
388.43
351.90
297.03
228.05
151.61
74.95
4.36
-56.04
-104.61
-140.95
-166.02
-181.29
-187.84
-186.24
-176.99
-159.57
-133.73
-100.21
-60.68
-17.79
25.24
65.75
101.82
132.56
158.15
179.59
198.56
217.35
237.45
256.65
270.58
272.84
257.10
220.04
163.12
92.87
18.95
-49.29
-105.70
-148.07
-177.56
-196.64
-207.35
-211.18
-209.32
-203.45
-195.92
-189.15
-184.43
-181.61
-179.18
-173.71
-162.54
-144.36
-119.72
-90.65
-60.03
-30.39
-3.43
20.25
40.78
58.29
72.67
83.35
89.60
90.87
87.25
79.54
69.05
57.35
45.70
35.01
25.75
18.10
12.19
8.13
6.14
6.43
9.04
13.71
19.86
26.79
33.70
40.00
45.30
49.48
52.60
54.83
56.33
57.24
57.62
57.42
56.59
54.93
52.29
48.49
43.36
36.78
28.69
19.29
8.58
-3.17
-15.59
-28.12
-40.17
-51.20
-60.75
-68.50
-74.33
-78.29
-80.55
-81.51
-81.53
-80.96
-80.23
-79.62
-79.35
-79.41
-79.67
-79.81
-79.46
-77.98
-74.76
-69.38
-61.45
-50.84
-37.63
-22.16
-4.30
14.52
32.95
49.70
63.66
74.06
80.43
82.65
80.89
75.47
66.84
55.67
42.86
28.52
13.02
-3.10
-19.06
-33.88
-46.62
-56.38
-62.49
-64.81
-63.70
-59.62
-53.01
-44.08
-32.10
-17.73
-1.72
14.85
30.42
43.16
51.77
55.80
56.05
54.28
52.55
52.70
55.17
58.76
61.12
60.03
54.30
44.47
32.55
20.96
11.98
6.00
1.66
-4.17
-14.16
-29.98
-51.58
-76.79
-101.42
-119.04
-122.67
-106.62
-69.25
-14.73
46.53
100.70
135.35
142.58
125.66
95.64
65.77
45.22
36.30
35.28
35.95
33.49
26.10
15.14
3.02
-7.52
-14.75
-17.26
-14.06
-5.59
6.01
17.24
24.90
26.84
23.16
15.46
5.69
-4.80
-15.36
-25.25
-33.20
-37.38
-36.72
-31.61
-24.15
-17.16
-12.95
-12.56
-15.20
-18.89
-21.35
-21.14
-18.12
-13.41
-8.71
-5.52
-4.56
-5.55
-7.48
-9.08
-9.44
-8.28
-6.00
-3.37
-1.18
0.06
0.32
-0.26
-1.05
-1.61
-1.67
-1.23
-0.51
0.20
0.63
0.66
0.32
-0.27
-0.95
-1.55
-1.95
-2.10
-2.05
-1.96
-2.04
-2.50
-3.44
-4.84
-6.43
-7.85
-8.82
-9.25
-9.37
-9.69
-10.76
-12.93
-16.13
-19.80
-23.16
-25.51
-26.65
-27.01
-27.55
-29.30
-32.97
-38.40
-44.67
-50.43
-54.49
-56.49
-57.08
-57.67
-59.59
-63.60
-69.24
-74.90
-78.45
-77.69
-70.75
-56.21
-33.69
-4.06
29.46
61.54
86.03
98.44
98.23
89.37
78.52
72.65
75.62
86.61
101.69
116.17
127.21
134.62
139.99
144.54
148.12
149.64
147.79
142.28
133.72
123.31
112.18
100.54
87.64
71.86
51.87
27.21
-1.25
-31.77
-62.20
-90.38
-114.86
-134.06
-147.98
-156.87
-161.99
-162.87
-159.29
-151.33
-139.47
-124.57
-107.69
-89.95
-72.16
-54.97
-38.89
-24.73
-13.29
-5.20
-0.40
1.69
2.21
2.55
3.64
5.72
7.79
8.41
6.20
0.84
-6.86
-15.09
-21.94
-26.17
-27.72
-27.89
-28.44
-31.10
-36.80
-46.14
-58.87
-73.57
-86.96
-93.59
-87.96
-66.31
-29.95
14.48
56.85
87.34
100.88
98.48
86.12
70.95
57.99
48.58
41.60
35.37
29.47
25.15
23.52
25.00
28.02
30.29
29.69
25.49
18.97
12.27
7.74
6.30
7.52
9.74
11.10
10.36
7.41
3.56
0.33
-0.54
1.24
5.18
10.01
14.37
17.47
18.87
18.88
17.65
15.85
13.89
12.38
11.65
11.30
11.13
10.08
8.02
4.97
1.62
-0.90
-2.31
-2.62
-2.80
-3.65
-5.53
-8.17
-10.89
-13.07
-14.51
-15.11
-14.89
-14.04
-12.24
-9.84
-6.89
-3.87
-1.34
0.46
0.91
0.36
-0.91
-2.04
-2.32
-1.66
-0.30
0.78
1.07
0.49
-0.10
0.30
2.33
5.48
8.29
9.33
7.71
4.25
0.32
-2.44
-3.25
-2.22
-0.05
2.34
4.46
5.44
4.73
1.62
-4.03
-11.23
-18.13
-22.08
-21.41
-15.70
-6.84
2.43
9.39
12.64
12.68
10.86
8.89
7.45
6.57
5.59
4.28
2.97
2.42
3.27
5.06
6.77
6.87
4.86
1.18
-2.74
-5.29
-6.09
-5.37
-4.46
-4.08
-4.43
-5.08
-5.42
-5.40
-5.30
-5.61
-6.13
-6.45
-5.77
-3.83
-1.04
1.75
3.44
3.73
2.54
0.72
-1.28
-3.10
-4.63
-5.93
-6.66
-6.66
-5.51
-3.45
-0.71
1.97
3.95
4.78
4.50
4.09
4.48
6.77
10.61
14.93
18.08
18.70
16.85
13.27
9.50
6.47
4.61
3.71
3.47
3.89
5.05
6.88
8.38
8.44
5.80
0.61
-5.96
-11.82
-14.90
-14.59
-11.22
-6.59
-2.37
0.10
0.48
-0.79
-2.87
-4.61
-5.61
-5.54
-4.85
-3.98
-3.30
-3.04
-3.12
-3.80
-5.15
-7.64
-11.14
-15.43
-19.60
-22.34
-22.55
-19.46
-13.74
-6.66
-0.26
4.14
6.07
6.19
5.86
6.11
7.63
9.87
12.12
13.40
13.76
13.86
14.44
16.13
18.08
19.30
18.44
15.27
10.56
5.80
2.34
0.53
0.17
-0.01
-0.51
-1.61
-2.86
-3.64
-3.95
-3.93
-4.26
-5.04
-6.20
-7.06
-7.28
-6.96
-6.34
-6.01
-5.86
-5.82
-5.41
-4.46
-2.93
-0.93
1.22
3.26
4.38
3.96
1.28
-3.22
-8.57
-13.13
-15.27
-14.70
-11.61
-7.67
-4.18
-1.91
-0.99
-0.66
-0.54
-0.39
-0.54
-1.22
-2.69
-4.63
-6.73
-8.41
-9.08
-8.68
-7.02
-4.87
-2.64
-0.78
0.63
1.97
3.16
4.25
4.78
4.82
4.34
3.97
4.18
5.12
6.91
8.80
10.70
12.25
13.56
14.77
15.58
15.60
14.19
11.33
7.31
3.29
-0.07
-2.28
-3.57
-4.43
-5.12
-5.94
-6.33
-6.08
-4.73
-2.32
0.69
3.74
6.23
8.24
9.85
11.71
13.59
15.17
15.74
14.64
12.17
8.70
5.45
3.22
2.60
3.51
5.44
7.86
10.13
11.84
12.18
10.76
7.23
1.95
-4.11
-9.62
-13.22
-14.53
-13.62
-11.69
-9.83
-9.13
-10.00
-12.17
-14.97
-17.22
-18.47
-18.18
-16.86
-15.03
-13.27
-12.13
-11.38
-11.07
-10.72
-10.32
-9.76
-9.05
-7.97
-6.08
-3.10
1.17
5.90
10.28
13.29
14.59
14.39
13.13
11.29
8.66
5.52
1.71
-2.03
-5.04
-6.85
-7.15
-6.50
-5.10
-3.47
-1.62
0.44
2.44
3.99
4.35
3.36
1.32
-0.59
-1.40
-0.26
2.53
6.16
9.44
11.20
11.43
10.08
7.99
5.53
3.02
0.71
-1.33
-2.63
-3.09
-2.69
-2.10
-1.73
-1.86
-2.23
-2.20
-1.60
-0.41
0.73
1.57
1.91
1.97
1.94
1.54
0.43
-1.67
-4.20
-6.44
-7.15
-6.12
-3.60
-0.54
1.76
2.82
2.18
0.42
-1.92
-4.32
-6.34
-8.05
-9.50
-10.90
-12.16
-13.13
-13.33
-12.54
-10.65
-8.03
-5.30
-2.76
-0.86
0.79
2.02
2.89
3.19
2.75
2.01
1.28
1.27
2.14
3.95
6.24
8.59
10.79
12.62
14.50
16.22
17.69
18.31
17.46
15.01
11.18
6.82
2.71
-0.33
-2.09
-2.46
-2.02
-1.43
-1.46
-2.64
-4.55
-6.70
-7.79
-7.34
-5.40
-2.73
-0.67
0.09
-0.91
-3.13
-5.87
-8.38
-10.29
-11.50
-11.88
-11.44
-9.84
-7.49
-4.72
-2.31
-0.71
0.12
0.49
1.02
1.91
3.41
5.14
6.94
8.56
10.14
11.79
13.23
14.18
13.64
11.42
7.55
2.99
-0.92
-3.42
-4.15
-3.90
-3.36
-3.30
-3.77
-4.57
-5.38
-6.05
-6.72
-7.02
-6.74
-5.22
-2.48
1.01
4.19
5.91
5.80
4.16
2.14
0.37
-0.74
-1.60
-2.41
-3.22
-3.73
-3.32
-2.24
-0.50
1.14
2.43
3.35
3.89
4.46
5.09
6.10
7.57
9.71
12.35
15.11
17.24
17.91
16.85
14.12
10.70
7.24
4.30
1.79
-0.69
-3.24
-5.86
-7.91
-9.16
-9.39
-9.10
-8.64
-8.49
-8.85
-9.31
-9.74
-9.34
-8.06
-6.01
-3.48
-1.11
0.85
2.00
2.37
1.76
0.49
-1.11
-2.42
-2.73
-1.98
-0.20
1.51
2.24
1.14
-1.76
-5.37
-8.25
-9.05
-7.53
-4.55
-1.47
0.76
1.64
1.78
1.76
2.09
2.97
3.71
4.17
3.97
3.65
3.83
4.71
6.28
7.38
7.49
6.06
3.77
1.58
0.18
-0.08
-0.12
-0.61
-2.36
-5.25
-8.50
-11.42
-13.47
-14.67
-15.28
-15.18
-14.10
-11.65
-7.69
-2.77
2.32
6.46
8.85
9.49
8.54
7.19
6.03
5.72
6.22
7.11
8.22
8.98
9.49
9.18
7.86
4.99
0.23
-5.74
-12.10
-16.84
-18.65
-16.80
-11.82
-5.55
0.21
3.83
4.92
4.01
2.23
0.76
0.25
0.37
0.56
-0.03
-1.61
-3.49
-5.13
-5.52
-4.75
-2.95
-0.80
1.05
2.45
2.99
3.14
2.90
2.77
2.83
2.90
3.03
2.65
1.99
1.02
0.33
0.41
1.29
2.84
4.20
5.04
5.26
5.42
6.07
7.50
9.22
10.69
11.25
10.87
10.13
9.38
9.13
8.71
7.38
4.33
-0.47
-5.74
-10.03
-11.62
-10.40
-7.02
-3.26
-0.95
-0.70
-2.43
-4.59
-6.08
-6.12
-5.05
-3.98
-3.68
-4.67
-6.57
-8.94
-11.28
-13.30
-14.65
-15.12
-14.36
-12.61
-10.49
-8.71
-8.18
-8.69
-9.79
-10.32
-9.44
-7.03
-3.43
0.21
3.25
4.98
5.41
4.95
4.08
3.70
4.06
5.34
6.90
8.03
8.35
7.88
7.12
6.48
6.08
5.59
4.74
3.35
1.87
0.77
0.67
1.69
3.41
5.41
6.80
7.49
7.29
6.36
5.09
3.55
2.41
1.71
1.67
1.97
2.15
2.05
1.44
0.73
0.10
-0.20
-0.18
-0.01
0.09
0.12
0.20
0.61
1.45
2.33
2.91
2.67
1.80
0.67
-0.24
-0.54
-0.51
-0.18
-0.07
-0.21
-0.62
-1.23
-1.66
-2.05
-2.18
-2.33
-2.50
-2.78
-3.13
-3.50
-3.88
-4.07
-3.95
-3.31
-2.32
-1.19
-0.34
0.11
0.20
0.05
0.03
0.03
0.30
0.67
0.97
1.11
0.77
0.28
-0.36
-0.69
-0.60
-0.10
0.83
1.80
2.68
3.11
3.04
2.47
1.71
0.89
0.34
0.06
0.08
0.32
0.45
0.49
0.21
-0.04
-0.06
0.20
0.81
1.28
1.54
1.26
0.52
-0.54
-1.74
-2.68
-3.27
-3.33
-3.19
-2.99
-3.03
-3.21
-3.37
-3.28
-2.81
-2.15
-1.40
-0.99
-0.83
-0.91
-0.87
-0.44
0.30
1.25
1.87
2.11
1.91
1.52
1.29
1.25
1.58
2.04
2.53
2.75
2.64
2.18
1.61
1.15
0.88
0.88
0.76
0.53
-0.04
-0.74
-1.36
-1.71
-1.60
-1.33
-1.06
-1.14
-1.55
-2.01
-2.21
-1.80
-0.92
0.31
1.45
2.31
2.72
2.78
2.60
2.24
1.76
1.07
0.32
-0.52
-1.06
-1.26
-1.11
-0.70
-0.44
-0.28
-0.35
-0.45
-0.55
-0.66
-0.72
-0.77
-0.67
-0.41
0.08
0.67
1.27
1.69
1.89
1.82
1.52
1.13
0.62
0.27
0.01
0.01
0.23
0.51
0.80
0.78
0.65
0.32
-0.05
-0.39
-0.80
-1.00
-1.14
-0.98
-0.77
-0.64
-0.72
-1.05
-1.42
-1.64
-1.55
-1.29
-0.99
-1.01
-1.19
-1.43
-1.23
-0.47
0.63
1.65
1.94
1.56
0.71
0.01
-0.13
0.18
0.86
1.24
1.36
1.12
0.85
0.80
0.79
0.79
0.36
-0.19
-0.76
-0.91
-0.51
0.19
0.92
1.30
1.20
0.63
-0.16
-1.04
-1.66
-2.00
-1.94
-1.54
-0.98
-0.24
0.33
0.77
0.89
0.81
0.75
0.66
0.83
0.92
1.06
1.02
0.77
0.42
-0.12
-0.59
-0.98
-1.12
-1.04
-0.74
-0.29
0.24
0.73
1.02
1.05
0.69
0.18
-0.45
-1.02
-1.53
-2.03
-2.35
-2.64
-2.60
-2.51
-2.38
-2.43
-2.84
-3.35
-3.94
-4.09
-3.85
-3.22
-2.47
-1.90
-1.47
-1.01
-0.31
0.61
1.58
2.16
2.35
2.02
1.47
0.93
0.34
0.03
-0.32
-0.56
-0.78
-0.91
-0.66
-0.12
1.02
2.42
4.18
6.05
7.87
9.50
10.65
11.27
11.24
10.61
9.38
7.79
6.03
4.45
3.14
2.06
1.01
-0.18
-1.33
-2.37
-2.92
-3.02
-2.72
-2.13
-1.74
-1.46
-1.61
-1.81
-1.88
-1.80
-1.58
-1.73
-2.19
-3.07
-3.90
-4.42
-4.45
-4.03
-3.53
-3.21
-3.40
-4.04
-4.91
-5.59
-5.80
-5.43
-4.54
-3.33
-2.01
-0.95
-0.26
-0.08
-0.05
0.04
0.44
1.18
1.80
2.28
2.17
1.79
1.20
0.77
0.74
0.93
1.42
1.71
1.91
1.91
1.86
1.87
1.79
1.72
1.43
1.06
0.59
0.07
-0.36
-0.74
-1.04
-1.31
-1.51
-1.65
-1.53
-1.26
-0.69
-0.03
0.72
1.46
1.88
2.01
1.51
0.80
-0.01
-0.54
-0.72
-0.87
-0.97
-1.48
-2.16
-3.00
-3.71
-4.11
-4.35
-4.33
-4.28
-3.92
-3.13
-1.87
-0.29
1.13
2.07
2.47
2.65
2.85
3.43
4.07
4.64
4.72
4.22
3.31
2.09
1.11
0.24
-0.32
-0.79
-1.22
-1.48
-1.67
-1.47
-1.13
-0.48
0.21
0.85
1.39
1.59
1.77
1.76
1.85
1.86
1.72
1.31
0.61
-0.14
-0.79
-1.10
-1.21
-1.09
-1.05
-1.00
-0.97
-0.77
-0.33
0.02
0.22
-0.14
-0.79
-1.58
-2.18
-2.33
-2.31
-2.02
-1.83
-1.58
-1.29
-0.94
-0.41
0.08
0.68
1.18
1.73
2.18
2.53
2.64
2.47
2.18
1.87
1.84
1.99
2.40
2.71
2.92
2.86
2.51
2.03
1.31
0.68
0.07
-0.38
-0.74
-1.19
-1.57
-1.95
-2.04
-1.93
-1.71
-1.61
-1.79
-2.15
-2.51
-2.53
-2.18
-1.43
-0.78
-0.36
-0.39
-0.53
-0.38
0.11
1.07
1.91
2.49
2.55
2.17
1.61
0.88
0.26
-0.34
-0.77
-1.00
-1.02
-0.87
-0.69
-0.57
-0.68
-0.87
-1.16
-1.22
-1.05
-0.58
0.10
0.76
1.46
1.85
2.09
1.88
1.41
0.72
-0.10
-0.68
-1.08
-1.02
-0.70
-0.33
-0.12
-0.28
-0.64
-0.96
-0.98
-0.75
-0.45
-0.48
-0.80
-1.33
-1.68
-1.50
-0.92
0.14
1.06
1.80
2.12
2.08
1.89
1.46
0.96
0.18
-0.67
-1.52
-2.14
-2.39
-2.36
-2.08
-1.79
-1.54
-1.42
-1.34
-1.28
-1.09
-0.77
-0.39
-0.05
0.00
-0.13
-0.61
-1.10
-1.50
-1.67
-1.25
-0.50
0.73
1.91
2.91
3.51
3.60
3.35
2.82
2.27
1.79
1.48
1.26
1.06
0.80
0.60
0.50
0.50
0.59
0.48
0.28
-0.08
-0.34
-0.35
-0.10
0.48
0.97
1.40
1.46
1.38
1.31
1.24
1.31
1.09
0.75
0.10
-0.56
-1.05
-1.35
-1.39
-1.41
-1.45
-1.65
-1.96
-2.23
-2.28
-2.01
-1.48
-0.84
-0.33
-0.04
-0.20
-0.65
-1.33
-1.87
-1.98
-1.65
-0.80
0.01
0.81
1.21
1.36
1.34
1.12
0.98
0.67
0.44
0.14
-0.07
-0.08
0.06
0.43
0.80
1.08
1.12
0.81
0.18
-0.65
-1.40
-1.69
-1.27
-0.30
0.98
1.89
2.30
2.06
1.51
1.02
0.65
0.73
0.90
1.17
1.22
0.94
0.44
-0.21
-0.68
-0.91
-0.79
-0.63
-0.55
-0.73
-1.05
-1.21
-1.02
-0.33
0.47
1.08
1.07
0.51
-0.26
-0.94
-1.20
-1.37
-1.41
-1.78
-2.37
-3.09
-3.77
-4.00
-3.87
-3.16
-2.12
-0.86
0.44
1.60
2.43
2.82
2.66
2.10
1.42
0.75
0.45
0.43
0.73
1.24
1.61
1.91
1.73
1.37
0.87
0.44
0.34
0.39
0.72
0.99
1.24
1.27
1.13
0.90
0.68
0.55
0.45
0.30
-0.04
-0.56
-1.25
-1.89
-2.38
-2.58
-2.49
-2.33
-2.04
-1.86
-1.49
-1.01
-0.43
0.17
0.38
0.37
0.03
-0.32
-0.55
-0.64
-0.48
-0.26
0.14
0.59
1.06
1.36
1.36
0.99
0.41
-0.13
-0.31
0.05
0.70
1.45
1.75
1.65
1.18
0.57
0.13
-0.33
-0.61
-1.01
-1.26
-1.30
-1.11
-0.56
-0.05
0.37
0.46
0.28
0.03
-0.11
0.03
0.42
0.96
1.46
1.89
2.01
1.92
1.60
1.27
1.13
1.11
1.23
1.04
0.58
-0.21
-1.06
-1.66
-1.94
-1.73
-1.37
-0.91
-0.65
-0.59
-0.73
-1.01
-1.28
-1.56
-1.76
-1.92
-1.94
-1.93
-1.83
-1.66
-1.34
-0.74
-0.00
0.96
1.70
2.25
2.39
2.14
1.75
1.17
0.86
0.65
0.68
0.79
0.74
0.64
0.43
0.37
0.45
0.58
0.55
0.26
-0.30
-0.86
-1.21
-1.25
-0.94
-0.69
-0.48
-0.51
-0.51
-0.21
0.36
1.32
2.11
2.72
2.79
2.45
1.82
0.99
0.29
-0.35
-0.66
-0.76
-0.62
-0.32
-0.00
0.22
0.17
-0.17
-0.83
-1.55
-2.32
-2.89
-3.27
-3.26
-2.73
-1.82
-0.46
0.78
1.85
2.41
2.42
2.11
1.45
0.89
0.46
0.41
0.72
1.21
1.69
1.85
1.59
0.83
-0.20
-1.20
-1.82
-2.05
-1.90
-1.61
-1.35
-1.00
-0.75
-0.38
-0.14
0.09
0.21
0.18
0.15
-0.12
-0.35
-0.64
-0.78
-0.70
-0.44
0.12
0.73
1.25
1.30
0.70
-0.49
-1.99
-3.31
-4.13
-4.25
-3.75
-2.81
-1.82
-0.86
-0.14
0.50
1.09
1.48
1.71
1.49
1.15
0.76
0.62
0.70
0.90
1.18
1.28
1.35
1.25
1.22
1.30
1.39
1.46
1.20
0.83
0.32
-0.07
-0.35
-0.70
-1.11
-1.70
-2.24
-2.57
-2.48
-1.92
-0.90
0.30
1.56
2.62
3.46
4.10
4.34
4.22
3.51
2.45
1.17
-0.07
-1.06
-1.90
-2.29
-2.48
-2.22
-1.71
-1.03
-0.28
0.16
0.38
0.11
-0.31
-0.66
-0.71
-0.22
0.57
1.53
2.29
2.61
2.25
1.21
-0.33
-1.86
-2.93
-3.20
-2.64
-1.61
-0.30
0.67
1.32
1.52
1.45
1.36
1.09
0.81
0.21
-0.50
-1.17
-1.61
-1.57
-1.32
-0.83
-0.51
-0.42
-0.62
-1.10
-1.51
-1.69
-1.45
-0.99
-0.58
-0.60
-1.04
-1.81
-2.54
-2.90
-2.89
-2.45
-2.11
-1.86
-1.89
-1.88
-1.48
-0.65
0.64
1.79
2.64
2.93
2.80
2.45
2.03
1.77
1.67
1.86
2.18
2.69
3.23
3.86
4.40
4.64
4.32
3.22
1.63
-0.24
-1.64
-2.34
-2.15
-1.12
0.11
1.31
1.93
2.10
1.88
1.41
0.90
0.20
-0.38
-0.72
-0.51
0.23
1.16
1.80
1.70
0.68
-1.03
-2.89
-4.48
-5.16
-5.15
-4.49
-3.62
-2.86
-2.05
-1.32
-0.42
0.44
1.27
1.92
2.20
2.17
1.57
0.64
-0.55
-1.61
-2.32
-2.50
-2.09
-1.31
-0.38
0.28
0.52
0.29
-0.02
-0.23
-0.09
0.24
0.49
0.65
0.47
0.34
0.27
0.55
1.30
2.16
3.05
3.39
3.25
2.68
1.88
1.15
0.46
-0.08
-0.49
-0.66
-0.55
-0.16
0.30
0.70
0.69
0.18
-0.77
-1.99
-2.90
-3.54
-3.70
-3.65
-3.48
-3.03
-2.37
-1.24
0.04
1.38
2.46
3.10
3.38
3.24
2.95
2.55
2.18
1.90
1.72
1.78
2.05
2.43
2.55
2.19
1.14
-0.15
-1.42
-2.17
-2.36
-2.20
-1.69
-1.25
-0.69
-0.20
0.27
0.68
0.84
0.92
0.72
0.61
0.53
0.51
0.45
0.11
-0.31
-0.72
-0.92
-1.04
-1.24
-1.79
-2.55
-3.35
-3.74
-3.55
-2.88
-1.81
-0.98
-0.40
-0.37
-0.66
-0.85
-0.93
-0.59
-0.17
0.39
0.94
1.42
1.74
1.66
1.25
0.54
-0.03
-0.31
-0.07
0.55
1.39
2.13
2.44
2.27
1.46
0.46
-0.67
-1.50
-2.03
-2.21
-1.95
-1.49
-0.70
-0.03
0.55
0.70
0.26
-0.72
-2.25
-3.57
-4.27
-3.81
-2.29
-0.24
1.75
3.02
3.40
2.92
1.92
0.72
-0.24
-0.88
-1.05
-0.89
-0.48
0.22
0.90
1.65
2.07
2.32
2.35
2.13
1.86
1.30
0.85
0.49
0.56
0.96
1.49
1.94
1.90
1.47
0.65
-0.23
-0.86
-1.11
-1.01
-0.75
-0.51
-0.34
-0.20
-0.17
-0.25
-0.63
-1.12
-1.58
-1.82
-1.67
-1.45
-1.07
-1.01
-1.27
-1.95
-3.04
-3.97
-4.61
-4.49
-3.79
-2.65
-1.43
-0.54
-0.02
0.05
0.01
0.06
0.37
0.76
1.10
1.20
1.30
1.57
1.98
2.45
2.52
2.29
1.67
1.09
0.75
0.58
0.71
0.69
0.69
0.66
0.79
1.23
1.76
2.37
2.76
3.10
3.44
3.96
4.50
4.78
4.59
3.96
3.22
2.56
2.22
1.89
1.61
1.17
0.66
0.24
-0.22
-0.58
-1.18
-1.95
-2.93
-3.93
-4.54
-4.77
-4.56
-4.45
-4.71
-5.42
-6.24
-6.69
-6.37
-5.27
-3.82
-2.30
-1.30
-0.63
-0.17
0.51
1.51
2.46
3.04
2.70
1.75
0.50
-0.48
-0.88
-0.86
-0.45
-0.05
0.36
0.61
0.67
0.58
0.32
0.12
-0.03
-0.07
-0.09
-0.14
-0.38
-0.64
-0.86
-0.66
0.09
1.08
2.11
2.48
2.25
1.44
0.39
-0.47
-1.16
-1.37
-1.43
-1.36
-1.36
-1.55
-1.62
-1.43
-0.69
0.47
1.84
3.00
3.82
4.17
4.32
4.52
4.94
5.54
5.85
5.62
4.52
2.97
1.41
0.30
-0.18
-0.45
-0.68
-1.34
-2.16
-2.85
-3.03
-2.31
-1.09
0.19
0.70
0.09
-1.46
-3.30
-4.61
-4.92
-4.22
-2.96
-1.56
-0.63
-0.09
0.06
0.31
0.98
1.95
3.12
3.81
4.01
3.56
2.78
1.90
0.88
-0.02
-0.96
-1.57
-1.72
-1.23
-0.12
1.14
2.08
2.12
1.16
-0.48
-2.08
-3.11
-3.23
-2.68
-1.83
-1.04
-0.76
-0.86
-1.43
-1.93
-2.12
-1.93
-1.40
-1.07
-0.89
-1.05
-1.19
-1.19
-1.06
-0.78
-0.72
-0.88
-1.46
-2.24
-3.01
-3.35
-3.10
-2.20
-0.83
0.67
2.04
2.80
2.96
2.40
1.74
1.36
1.56
2.47
3.51
4.58
5.12
5.05
4.30
2.84
1.12
-0.58
-1.87
-2.73
-3.29
-3.82
-4.39
-4.92
-5.13
-4.78
-3.92
-2.70
-1.69
-1.03
-0.83
-0.67
-0.16
0.74
1.89
2.62
2.90
2.49
1.90
1.40
1.15
1.47
1.95
2.71
3.34
3.71
3.66
2.98
1.74
0.00
-1.82
-3.24
-3.77
-3.34
-2.02
-0.35
1.24
2.24
2.25
1.31
-0.55
-2.56
-4.22
-5.02
-4.88
-4.26
-3.40
-2.88
-2.58
-2.50
-2.38
-2.02
-1.59
-1.00
-0.50
0.15
0.99
2.21
3.64
5.01
6.11
6.67
6.85
6.55
5.99
5.05
3.85
2.47
0.98
-0.30
-1.26
-1.54
-1.24
-0.44
0.38
0.89
1.01
0.80
0.78
0.96
1.56
2.16
2.58
2.58
1.99
1.02
-0.25
-1.31
-2.01
-2.02
-1.41
-0.39
0.80
1.60
2.00
1.73
1.14
0.47
-0.13
-0.46
-0.78
-0.84
-0.75
-0.49
-0.27
-0.44
-1.06
-1.93
-2.66
-2.99
-2.76
-2.36
-1.83
-1.49
-1.08
-0.45
0.50
1.83
2.97
3.77
3.73
3.12
2.26
1.38
0.82
0.23
-0.27
-0.94
-1.64
-2.36
-3.15
-3.82
-4.55
-5.14
-5.75
-6.29
-6.65
-6.77
-6.48
-5.84
-4.81
-3.56
-2.24
-1.26
-0.76
-0.86
-1.19
-1.34
-1.04
-0.11
0.99
2.17
2.82
2.99
2.68
2.09
1.75
1.51
1.55
1.46
1.26
1.06
0.98
1.32
1.80
2.39
2.75
2.90
2.98
3.10
3.50
3.98
4.31
4.05
3.03
1.38
-0.36
-1.67
-2.15
-1.82
-0.94
0.17
0.92
1.32
1.10
0.72
0.39
0.27
0.43
0.47
0.48
0.21
-0.07
-0.37
-0.64
-0.75
-0.87
-0.73
-0.40
0.28
1.17
1.88
2.07
1.31
-0.10
-1.74
-2.77
-2.86
-2.04
-0.83
0.11
0.43
0.10
-0.46
-0.93
-1.03
-1.09
-1.35
-2.08
-2.97
-3.53
-3.46
-2.61
-1.54
-0.57
-0.15
-0.22
-0.36
-0.40
0.13
0.88
1.73
2.29
2.42
2.39
2.20
2.15
1.94
1.58
0.99
0.32
-0.15
-0.29
0.05
0.76
1.56
2.07
2.07
1.51
0.77
0.15
-0.09
0.06
0.25
0.49
0.37
0.05
-0.54
-1.31
-1.91
-2.43
-2.47
-2.27
-1.81
-1.27
-0.90
-0.67
-0.67
-0.57
-0.20
0.53
1.45
2.25
2.74
3.00
3.17
3.34
3.47
3.30
2.95
2.33
1.76
1.32
0.99
0.92
0.78
0.85
0.91
1.20
1.63
1.91
1.92
1.29
0.44
-0.41
-0.87
-0.96
-1.07
-1.36
-2.15
-3.16
-4.21
-4.99
-5.42
-5.61
-5.83
-6.25
-6.76
-7.09
-6.79
-5.88
-4.43
-2.89
-1.41
-0.15
0.89
1.82
2.43
2.87
2.87
2.59
2.11
1.63
1.51
1.55
1.85
1.92
1.88
1.70
1.49
1.46
1.33
1.31
1.14
1.00
0.78
0.43
-0.00
-0.64
-1.37
-2.11
-2.66
-2.86
-2.59
-2.03
-1.34
-0.77
-0.33
0.07
0.33
0.54
0.44
0.27
0.11
0.18
0.67
1.25
2.00
2.40
2.47
2.07
1.39
0.81
0.40
0.52
0.87
1.46
2.10
2.58
2.90
2.84
2.51
1.94
1.24
0.40
-0.59
-1.65
-2.50
-2.86
-2.67
-1.99
-1.23
-0.42
0.12
0.59
0.90
1.08
1.22
1.01
0.70
0.13
-0.28
-0.30
0.07
0.79
1.28
1.46
1.06
0.33
-0.51
-1.36
-1.95
-2.31
-2.28
-1.88
-1.07
0.07
1.36
2.43
2.95
2.66
1.72
0.60
-0.43
-0.95
-1.14
-0.92
-0.38
0.32
1.30
2.13
2.91
3.20
2.93
2.03
0.39
-1.43
-3.17
-4.10
-4.15
-3.35
-2.12
-1.19
-0.93
-1.61
-2.79
-3.88
-4.27
-3.78
-2.62
-1.12
0.42
1.80
2.87
3.54
3.63
3.45
3.03
2.72
2.56
2.32
2.07
1.46
0.91
0.45
0.48
1.00
1.59
1.96
1.50
0.50
-0.79
-1.84
-2.36
-2.55
-2.43
-2.46
-2.56
-2.82
-3.12
-3.35
-3.55
-3.66
-3.80
-3.81
-3.61
-3.07
-2.35
-1.57
-0.94
-0.40
0.13
0.68
1.26
1.62
1.85
1.75
1.54
1.29
1.10
1.25
1.45
1.80
1.92
1.86
1.70
1.40
1.18
0.67
0.10
-0.64
-1.24
-1.50
-1.39
-0.81
-0.12
0.57
0.91
0.89
0.62
0.30
0.05
-0.17
-0.45
-0.79
-1.12
-1.41
-1.46
-1.38
-0.96
-0.20
0.75
1.81
2.44
2.76
2.54
2.13
1.67
1.31
1.37
1.61
2.19
2.61
2.80
2.51
1.68
0.53
-0.90
-2.09
-2.92
-3.13
-2.82
-2.18
-1.37
-0.64
-0.01
0.36
0.49
0.33
0.07
-0.37
-0.85
-1.37
-1.78
-1.78
-1.49
-0.80
-0.21
0.28
0.39
0.18
-0.18
-0.72
-1.00
-1.18
-0.96
-0.50
0.23
1.20
2.04
2.70
2.81
2.63
2.39
2.42
2.86
3.33
3.64
3.45
2.93
2.31
1.89
1.72
1.72
1.52
0.93
-0.06
-1.22
-2.07
-2.66
-2.89
-3.11
-3.29
-3.18
-2.75
-1.71
-0.54
0.59
1.23
1.27
0.84
-0.07
-0.95
-1.77
-2.06
-1.77
-0.92
0.39
1.60
2.30
2.03
0.75
-1.15
-3.03
-4.34
-4.80
-4.41
-3.44
-2.18
-1.06
-0.23
0.06
0.02
-0.30
-0.78
-1.31
-1.98
-2.55
-3.07
-3.28
-3.29
-3.03
-2.63
-2.32
-2.07
-2.13
-2.30
-2.72
-3.45
-4.60
-6.20
-7.86
-9.31
-10.21
-10.67
-11.03
-11.61
-12.56
-13.77
-14.86
-15.43
-15.37
-14.43
-12.84
-10.39
-7.19
-3.46
0.21
2.81
3.72
2.57
0.27
-2.03
-2.94
-1.89
0.78
4.34
7.69
10.35
12.06
13.03
13.38
13.24
12.65
11.64
10.50
9.45
8.91
8.75
9.00
9.19
9.13
8.86
8.18
7.46
6.55
5.89
5.64
6.00
6.94
7.96
8.78
8.88
8.33
7.20
5.99
5.02
4.55
4.36
4.25
3.90
3.27
2.65
2.01
1.53
0.91
0.19
-0.46
-0.95
-0.85
-0.43
0.40
1.17
1.53
1.37
0.44
-0.73
-1.93
-2.70
-2.99
-2.93
-2.68
-2.44
-2.30
-2.33
-2.50
-2.78
-2.97
-3.11
-3.00
-2.78
-2.36
-1.77
-1.20
-0.59
-0.20
0.24
0.70
1.19
1.64
1.68
1.54
1.03
0.53
-0.00
-0.51
-0.81
-1.00
-0.90
-0.85
-1.07
-1.80
-3.02
-4.37
-5.27
-5.21
-3.95
-1.80
0.47
2.17
2.77
2.60
2.11
1.87
2.09
2.50
3.01
3.18
3.16
2.95
2.69
2.59
2.40
2.25
1.80
1.32
0.96
0.84
1.07
1.25
1.25
0.70
-0.49
-2.30
-4.55
-6.67
-8.17
-8.50
-7.65
-5.87
-3.76
-1.84
-0.47
0.40
1.07
1.91
3.07
4.16
4.81
4.51
3.55
2.28
1.35
1.04
1.22
1.67
1.88
1.77
1.33
0.77
0.37
0.03
-0.23
-0.61
-0.98
-1.21
-1.09
-0.61
0.06
0.77
1.24
1.54
1.58
1.57
1.47
1.34
1.10
0.68
0.27
-0.11
-0.18
-0.12
-0.08
-0.38
-1.22
-2.43
-3.76
-4.60
-4.59
-3.66
-2.10
-0.45
1.00
2.01
2.62
2.71
2.21
1.00
-0.71
-2.50
-3.79
-4.10
-3.44
-2.03
-0.59
0.53
1.05
1.28
1.52
1.80
2.15
2.15
1.97
1.60
1.43
1.59
1.98
2.53
2.79
2.80
2.40
1.93
1.61
1.39
1.24
0.77
-0.00
-0.99
-1.96
-2.78
-3.54
-4.20
-4.75
-4.94
-4.59
-3.65
-2.34
-0.87
0.25
0.89
0.92
0.51
0.02
-0.50
-0.73
-0.79
-0.46
0.24
1.10
1.98
2.32
2.22
1.60
0.70
-0.29
-1.50
-2.70
-3.86
-4.58
-4.61
-3.83
-2.45
-0.88
0.29
0.70
0.30
-0.59
-1.35
-1.80
-1.68
-1.32
-0.86
-0.29
0.28
1.09
1.94
2.95
3.90
4.60
4.87
4.30
3.19
1.73
0.75
0.76
1.86
3.76
5.49
6.28
5.58
3.63
1.18
-0.86
-1.97
-2.18
-1.98
-1.82
-1.88
-2.16
-2.24
-2.13
-1.65
-1.07
-0.72
-0.61
-0.95
-1.20
-1.33
-1.15
-0.89
-0.90
-1.09
-1.48
-1.61
-1.34
-0.58
0.48
1.58
2.47
3.01
3.19
3.06
2.86
2.51
2.19
1.82
1.55
1.46
1.50
1.68
1.72
1.81
1.75
1.70
1.56
1.18
0.75
0.01
-0.76
-1.78
-2.94
-4.14
-5.33
-6.27
-6.87
-6.98
-6.57
-5.66
-4.58
-3.52
-2.78
-2.18
-1.51
-0.67
0.47
1.44
2.20
2.34
1.94
1.13
0.04
-0.79
-1.49
-1.87
-2.17
-2.48
-2.63
-2.64
-2.11
-1.19
0.12
1.52
2.66
3.31
3.34
2.92
2.46
2.34
2.59
3.16
3.59
3.79
3.54
3.02
2.40
1.79
1.51
1.38
1.53
1.69
1.79
1.87
1.65
1.26
0.45
-0.45
-1.28
-1.77
-1.74
-1.52
-1.14
-0.96
-0.99
-1.22
-1.61
-1.93
-2.09
-1.99
-1.76
-1.53
-1.46
-1.52
-1.70
-1.80
-1.74
-1.39
-0.70
-0.01
0.66
0.90
1.05
1.13
1.30
1.53
1.31
0.76
-0.28
-1.25
-1.85
-1.88
-1.23
-0.40
0.41
0.71
0.55
0.16
-0.19
-0.11
0.38
1.28
2.31
3.18
3.58
3.34
2.50
1.47
0.52
-0.11
-0.42
-0.66
-0.76
-1.00
-1.13
-1.27
-1.34
-1.20
-1.13
-0.97
-0.98
-0.95
-0.79
-0.54
-0.18
-0.13
-0.24
-0.61
-0.89
-0.87
-0.56
0.13
0.83
1.44
1.61
1.34
0.66
-0.17
-0.93
-1.41
-1.43
-0.96
-0.15
0.56
0.91
0.66
0.16
-0.26
-0.24
0.26
0.77
1.12
0.87
0.31
-0.27
-0.49
0.08
1.02
2.17
2.78
2.77
2.22
1.44
0.90
0.48
0.24
-0.14
-0.56
-0.92
-0.94
-0.50
0.28
0.96
1.04
0.34
-0.90
-1.92
-2.25
-1.61
-0.49
0.42
0.62
-0.21
-1.44
-2.61
-2.97
-2.30
-0.98
0.61
1.63
2.15
2.15
2.02
1.93
1.66
1.18
0.27
-0.72
-1.51
-1.68
-1.16
-0.13
0.84
1.23
0.68
-0.72
-2.46
-4.14
-5.23
-5.72
-5.42
-4.53
-3.30
-1.99
-1.09
-0.52
-0.42
-0.50
-0.60
-0.63
-0.41
-0.22
0.01
0.00
-0.19
-0.38
-0.50
-0.30
0.12
0.81
1.61
2.38
2.90
3.04
2.79
2.43
2.22
2.24
2.49
2.61
2.60
2.28
1.90
1.58
1.33
1.22
0.94
0.50
-0.24
-1.04
-1.63
-1.84
-1.54
-1.07
-0.53
-0.16
0.05
0.17
0.22
0.26
0.33
0.46
0.60
0.76
0.80
0.93
1.03
1.17
1.30
1.23
1.27
1.16
1.18
1.06
0.76
0.40
-0.19
-0.66
-1.14
-1.50
-1.68
-1.78
-1.79
-1.90
-2.14
-2.47
-2.86
-3.22
-3.42
-3.38
-2.87
-1.93
-0.78
0.23
0.68
0.69
0.26
-0.05
-0.04
0.44
1.36
2.12
2.62
2.40
1.82
1.15
0.59
0.37
0.08
-0.18
-0.60
-0.84
-0.72
-0.26
0.46
1.06
1.27
0.96
0.25
-0.59
-1.07
-1.15
-0.81
-0.30
0.21
0.79
1.22
1.68
1.87
1.91
1.81
1.59
1.43
1.04
0.63
0.14
-0.10
0.08
0.65
1.64
2.40
2.70
2.01
0.46
-1.55
-3.55
-4.95
-5.67
-5.68
-5.20
-4.42
-3.65
-2.87
-2.22
-1.46
-0.52
0.41
1.35
1.81
2.07
2.08
2.11
2.16
1.92
1.55
0.77
0.03
-0.58
-0.85
-0.81
-0.81
-0.89
-1.24
-1.47
-1.41
-0.93
-0.33
-0.01
-0.12
-0.51
-0.76
-0.65
-0.16
0.23
0.38
0.07
-0.43
-0.80
-0.96
-0.57
-0.10
0.45
0.69
0.67
0.63
0.52
0.67
0.75
0.95
1.08
1.23
1.38
1.40
1.45
1.51
1.85
2.36
2.96
3.33
3.27
2.76
1.85
0.89
0.06
-0.47
-0.92
-1.44
-2.17
-2.90
-3.34
-3.38
-2.88
-2.24
-1.50
-0.96
-0.53
-0.13
0.22
0.64
0.82
0.86
0.53
0.20
0.11
0.32
0.81
1.04
1.02
0.56
0.09
-0.12
0.08
0.67
1.19
1.40
1.00
0.31
-0.29
-0.46
-0.14
0.29
0.62
0.53
0.12
-0.63
-1.59
-2.73
-3.85
-4.68
-5.06
-4.70
-3.82
-2.51
-1.27
-0.40
0.01
0.13
0.38
0.91
1.88
2.94
3.94
4.56
4.64
4.19
3.20
2.01
0.71
-0.40
-1.24
-1.69
-1.66
-1.27
-0.56
0.22
1.07
1.80
2.42
2.80
2.92
2.87
2.52
2.08
1.42
0.75
0.19
-0.25
-0.53
-0.91
-1.35
-1.97
-2.64
-3.35
-4.09
-4.67
-5.06
-4.95
-4.37
-3.28
-1.94
-0.67
0.21
0.53
0.42
0.27
0.45
0.99
1.81
2.52
3.07
3.37
3.50
3.54
3.35
3.07
2.47
1.80
1.11
0.66
0.63
0.78
1.02
0.86
0.40
-0.18
-0.56
-0.46
-0.14
0.32
0.49
0.32
-0.24
-1.12
-2.04
-2.91
-3.51
-3.86
-3.89
-3.67
-3.26
-2.82
-2.43
-2.04
-1.46
-0.55
0.53
1.52
1.96
1.90
1.36
0.76
0.33
0.12
0.25
0.42
0.69
0.86
1.08
1.35
1.60
1.77
1.60
1.24
0.67
0.19
-0.14
-0.31
-0.30
-0.30
-0.24
-0.29
-0.29
-0.33
-0.30
-0.26
-0.27
-0.21
-0.12
0.21
0.55
0.85
0.83
0.40
-0.32
-1.18
-1.75
-1.97
-1.71
-1.33
-0.97
-0.74
-0.60
-0.24
0.17
0.66
0.83
0.60
-0.04
-0.84
-1.43
-1.65
-1.31
-0.85
-0.33
-0.13
0.07
0.41
1.02
1.89
2.53
2.95
2.77
2.32
1.73
1.20
0.94
0.65
0.34
-0.29
-0.96
-1.47
-1.62
-1.35
-1.05
-0.81
-0.92
-1.24
-1.67
-2.10
-2.39
-2.56
-2.56
-2.47
-2.15
-1.63
-0.82
0.03
0.76
1.26
1.55
1.86
2.12
2.38
2.30
1.95
1.35
0.83
0.74
1.15
2.24
3.50
4.66
5.12
4.75
3.66
2.02
0.39
-1.14
-2.06
-2.40
-2.05
-1.28
-0.41
0.36
0.70
0.76
0.44
0.07
-0.23
-0.40
-0.44
-0.56
-0.71
-1.00
-1.27
-1.73
-2.37
-3.23
-4.15
-4.71
-4.75
-4.02
-2.90
-1.72
-1.04
-1.04
-1.53
-2.06
-2.08
-1.59
-0.59
0.35
1.17
1.67
2.06
2.50
2.95
3.56
3.95
4.20
4.06
3.81
3.58
3.33
3.14
2.62
2.06
1.36
0.91
0.72
0.62
0.59
0.24
-0.26
-1.02
-1.77
-2.47
-3.13
-3.83
-4.66
-5.30
-5.53
-5.00
-3.98
-2.86
-2.14
-2.00
-2.08
-2.10
-1.65
-0.93
-0.18
0.13
-0.04
-0.40
-0.44
0.35
1.76
3.53
4.81
5.43
5.24
4.54
3.65
2.64
1.91
1.30
1.21
1.51
2.17
2.97
3.40
3.39
2.76
2.04
1.48
1.40
1.69
2.01
2.26
2.17
1.94
1.38
0.57
-0.73
-2.42
-4.34
-6.15
-7.19
-7.38
-6.55
-5.28
-3.95
-3.01
-2.55
-2.34
-2.34
-2.17
-2.06
-1.95
-2.07
-2.40
-2.66
-2.61
-1.89
-0.78
0.56
1.57
2.08
2.03
1.51
0.95
0.37
0.13
0.01
0.15
0.41
0.77
1.24
1.47
1.59
1.29
0.78
0.12
-0.55
-0.93
-0.97
-0.53
0.09
0.68
0.89
0.68
0.24
-0.21
-0.32
-0.04
0.54
1.05
1.20
0.89
0.26
-0.28
-0.56
-0.30
0.35
1.37
2.41
3.27
3.70
3.64
3.23
2.46
1.57
0.58
-0.24
-0.81
-0.97
-0.73
-0.18
0.56
1.16
1.47
1.25
0.64
-0.11
-0.75
-1.09
-1.33
-1.46
-1.69
-1.94
-2.22
-2.55
-2.80
-3.04
-3.15
-3.14
-2.89
-2.37
-1.56
-0.68
0.17
0.92
1.64
2.47
3.18
3.67
3.52
2.85
1.81
0.83
0.27
0.07
0.37
0.71
1.10
1.27
1.29
1.26
0.99
0.60
-0.14
-0.82
-1.26
-1.12
-0.37
0.68
1.80
2.51
2.73
2.27
1.29
-0.16
-1.87
-3.64
-5.30
-6.41
-6.77
-6.07
-4.53
-2.55
-0.69
0.49
0.89
0.44
-0.24
-0.86
-1.01
-0.73
-0.28
0.24
0.57
0.94
1.16
1.37
1.36
1.12
0.79
0.42
0.37
0.52
0.89
1.07
0.97
0.68
0.49
0.75
1.33
2.04
2.40
2.20
1.51
0.62
0.00
-0.15
0.30
0.98
1.65
2.00
1.97
1.74
1.28
0.90
0.53
0.43
0.41
0.36
0.14
-0.38
-0.90
-1.29
-1.29
-0.97
-0.51
-0.21
-0.29
-0.65
-1.03
-1.05
-0.69
-0.06
0.48
0.81
0.86
0.84
0.83
0.91
1.04
1.06
0.98
0.70
0.38
0.03
-0.34
-0.73
-1.25
-1.60
-1.81
-1.67
-1.31
-0.83
-0.34
-0.07
-0.05
-0.45
-1.02
-1.61
-1.83
-1.58
-0.96
-0.13
0.50
0.86
0.70
0.28
-0.30
-0.73
-0.93
-1.00
-0.86
-0.68
-0.38
-0.21
-0.17
-0.31
-0.45
-0.32
0.05
0.67
1.12
1.25
0.84
0.07
-0.77
-1.39
-1.54
-1.45
-1.26
-1.31
-1.50
-1.64
-1.58
-1.16
-0.61
-0.03
0.22
0.10
-0.26
-0.63
-0.58
-0.05
0.99
2.16
3.15
3.63
3.48
2.87
2.04
1.42
1.14
1.26
1.54
1.85
1.97
1.89
1.63
1.24
0.84
0.42
0.03
-0.43
-0.84
-1.19
-1.31
-1.16
-0.81
-0.24
0.27
0.67
0.75
0.57
0.25
-0.13
-0.42
-0.82
-1.18
-1.53
-1.64
-1.38
-0.80
0.01
0.61
0.80
0.18
-1.07
-2.71
-4.24
-5.16
-5.42
-4.86
-3.94
-2.82
-1.93
-1.27
-0.72
-0.10
0.87
1.90
2.98
3.60
3.84
3.61
3.10
2.52
1.86
1.40
0.91
0.65
0.46
0.41
0.45
0.36
0.32
0.18
0.29
0.53
0.88
1.15
1.08
0.75
0.12
-0.45
-0.85
-0.97
-0.89
-0.81
-0.76
-0.74
-0.56
-0.33
-0.02
0.16
0.33
0.60
1.12
1.97
2.93
3.85
4.27
4.16
3.40
2.34
1.32
0.58
0.31
0.32
0.71
1.20
1.79
2.19
2.26
1.95
1.11
-0.07
-1.55
-2.88
-3.81
-4.06
-3.79
-3.42
-3.25
-3.54
-4.06
-4.71
-5.30
-5.95
-6.80
-7.86
-9.00
-9.66
-9.53
-8.45
-6.86
-5.37
-4.56
-4.50
-4.85
-5.20
-5.11
-4.63
-3.65
-2.48
-1.06
0.54
2.15
3.93
5.34
6.45
6.97
7.16
7.55
8.40
10.13
12.29
14.60
16.25
16.88
16.44
15.09
13.42
11.80
10.57
9.75
9.25
8.85
8.32
7.22
5.33
2.53
-0.76
-3.74
-5.80
-6.44
-6.04
-4.99
-3.86
-3.18
-2.72
-2.65
-2.41
-1.98
-1.41
-0.87
-0.91
-1.48
-2.71
-4.07
-5.27
-5.97
-6.04
-5.85
-5.73
-6.18
-7.22
-8.63
-9.86
-10.58
-10.61
-10.03
-8.93
-7.48
-5.97
-4.55
-3.65
-3.14
-3.07
-3.03
-2.75
-2.23
-1.28
-0.35
0.66
1.44
2.03
2.54
2.80
2.99
2.90
2.73
2.46
2.15
1.84
1.41
1.00
0.62
0.45
0.48
0.65
0.81
0.87
0.84
0.86
1.11
1.54
2.17
2.55
2.74
2.55
2.27
2.13
2.08
2.24
2.15
1.95
1.51
1.10
0.86
0.72
0.83
0.86
0.94
0.89
0.82
0.69
0.45
0.15
-0.25
-0.54
-0.64
-0.47
-0.19
0.07
0.16
0.18
0.22
0.33
0.46
0.29
-0.14
-0.89
-1.61
-2.03
-2.14
-1.88
-1.68
-1.51
-1.57
-1.58
-1.40
-1.12
-0.76
-0.77
-0.95
-1.32
-1.43
-1.12
-0.43
0.52
1.23
1.67
1.65
1.44
1.26
1.23
1.47
1.87
2.46
3.07
3.67
3.99
3.94
3.45
2.71
1.96
1.24
0.65
-0.06
-0.88
-1.83
-2.62
-2.99
-2.75
-1.88
-0.75
0.37
1.07
1.33
1.20
0.85
0.54
0.37
0.54
0.87
1.32
1.67
1.82
1.89
1.76
1.63
1.25
0.85
0.38
-0.02
-0.29
-0.66
-0.99
-1.57
-2.19
-2.95
-3.71
-4.37
-4.81
-4.87
-4.60
-3.86
-2.96
-2.04
-1.46
-1.26
-1.18
-0.76
0.29
1.78
3.17
3.71
3.24
1.87
0.25
-1.00
-1.55
-1.35
-0.89
-0.44
-0.30
-0.25
-0.01
0.57
1.58
2.59
3.45
3.69
3.43
2.71
2.01
1.72
1.88
2.44
2.72
2.60
1.84
0.90
0.14
-0.07
0.36
1.15
2.09
2.75
3.17
3.19
2.98
2.37
1.35
0.15
-1.07
-1.85
-2.30
-2.53
-2.98
-3.96
-5.31
-6.82
-7.77
-7.96
-7.23
-6.05
-4.92
-4.10
-3.64
-3.04
-2.25
-1.04
0.09
0.83
0.88
0.20
-0.78
-1.65
-1.90
-1.61
-0.88
-0.15
0.50
0.91
1.17
1.53
1.90
2.54
3.12
3.58
3.67
3.37
3.08
2.98
3.45
4.22
5.14
5.78
5.87
5.42
4.38
3.24
1.93
0.79
-0.31
-1.35
-2.17
-2.88
-3.41
-4.01
-4.59
-5.09
-5.18
-4.77
-3.73
-2.37
-0.84
0.56
1.49
1.90
1.57
0.89
-0.01
-0.76
-1.32
-1.75
-2.00
-2.32
-2.47
-2.61
-2.54
-2.31
-2.17
-2.19
-2.70
-3.38
-4.05
-4.32
-4.07
-3.42
-2.59
-1.95
-1.49
-1.28
-0.94
-0.40
0.57
1.67
2.71
3.47
3.75
3.91
3.98
4.46
5.33
6.61
7.97
8.85
9.12
8.63
8.16
8.23
9.34
11.38
13.44
14.54
13.48
10.04
4.41
-2.42
-9.34
-15.28
-19.20
-20.62
-19.27
-15.71
-10.79
-5.81
-1.60
1.22
2.69
3.23
3.09
2.77
2.18
1.53
0.76
0.15
-0.09
-0.08
0.09
-0.04
-0.30
-0.66
-0.73
-0.21
0.83
2.24
3.38
4.04
4.00
3.65
3.48
3.70
4.36
4.83
4.83
4.04
2.65
0.77
-1.32
-3.40
-5.25
-6.47
-7.05
-6.81
-6.15
-5.54
-5.55
-6.49
-8.05
-9.49
-9.73
-8.26
-5.16
-1.27
2.39
4.91
5.95
5.67
4.51
3.13
1.76
0.56
-0.54
-1.41
-1.77
-1.58
-0.80
0.17
1.02
1.40
1.24
0.76
0.05
-0.50
-0.88
-0.93
-0.83
-0.64
-0.44
-0.31
-0.14
-0.02
0.20
0.39
0.55
0.56
0.40
0.20
0.01
-0.04
-0.19
-0.38
-0.56
-0.47
0.30
1.66
3.43
4.92
5.55
5.02
3.53
1.92
0.92
1.01
1.79
2.40
1.88
-0.17
-3.37
-6.47
-8.24
-7.68
-4.91
-1.15
2.38
4.22
4.37
3.07
1.23
-0.60
-2.42
-3.95
-5.47
-6.46
-6.85
-6.52
-5.63
-4.85
-4.30
-4.27
-4.04
-3.06
-0.82
2.64
6.48
10.06
12.58
14.18
15.18
16.32
17.93
19.78
20.91
20.05
16.52
10.22
2.55
-4.98
-10.76
-13.98
-14.68
-13.26
-10.73
-7.40
-3.94
-0.56
2.16
3.56
3.36
1.46
-1.37
-4.34
-6.51
-7.47
-7.05
-5.59
-3.68
-1.75
-0.28
0.77
1.34
1.82
2.20
2.57
2.93
2.95
2.79
2.18
1.58
1.03
0.66
0.42
-0.06
-0.62
-1.40
-1.94
-2.30
-2.36
-2.38
-2.81
-3.79
-5.53
-7.55
-9.39
-10.32
-10.09
-8.60
-6.13
-3.26
-0.51
1.39
2.10
1.33
-0.68
-3.56
-6.56
-8.84
-9.79
-8.84
-6.29
-2.51
1.63
5.37
8.09
9.28
9.06
7.63
5.70
3.71
2.15
1.09
0.54
0.42
0.45
0.66
0.78
1.06
1.32
1.59
1.76
1.81
1.94
2.14
2.65
3.21
3.82
4.27
4.46
4.29
3.62
2.63
1.34
-0.00
-1.48
-3.03
-4.66
-6.26
-7.46
-8.12
-7.82
-6.54
-4.28
-1.50
1.19
3.28
4.36
4.66
4.29
3.84
3.57
3.70
4.00
4.01
3.35
1.68
-0.67
-3.26
-5.33
-6.27
-5.62
-3.39
-0.18
3.18
5.56
6.42
5.60
3.82
1.89
0.43
-0.35
-0.97
-1.82
-3.18
-4.49
-5.05
-4.35
-2.41
-0.02
1.95
2.75
2.28
0.91
-0.71
-2.03
-2.84
-3.13
-3.06
-2.74
-2.06
-1.15
-0.11
0.82
1.22
1.03
0.22
-0.79
-1.40
-1.27
-0.25
1.17
2.56
3.46
3.75
3.60
2.93
1.96
0.63
-0.66
-1.51
-1.48
-0.25
1.65
3.49
4.19
3.11
0.35
-3.44
-7.02
-9.29
-9.12
-5.92
0.27
8.66
17.57
25.02
29.24
29.44
25.79
19.76
13.08
7.43
3.65
1.48
0.17
-1.52
-4.20
-7.91
-12.01
-15.56
-17.57
-17.57
-15.81
-12.72
-9.22
-6.13
-4.14
-3.83
-5.13
-7.61
-10.19
-11.96
-12.18
-10.84
-8.36
-5.14
-1.86
1.40
4.32
6.70
8.11
8.19
6.98
4.87
2.86
1.60
1.59
2.63
4.17
5.53
6.18
5.96
5.31
4.97
5.45
6.99
8.95
10.56
11.01
9.99
7.58
4.20
0.51
-3.07
-6.05
-8.27
-9.63
-10.19
-10.39
-10.72
-11.77
-13.60
-15.88
-17.82
-18.81
-18.56
-17.12
-15.06
-12.78
-10.83
-9.16
-7.86
-6.76
-5.90
-5.53
-5.48
-5.77
-5.55
-4.38
-1.75
2.03
6.13
9.51
10.93
10.35
7.73
4.21
0.56
-2.50
-4.49
-5.44
-5.02
-3.50
-0.63
3.09
7.25
11.07
13.59
14.56
13.73
11.77
9.23
6.88
5.22
4.61
5.58
8.09
12.12
16.77
20.91
23.20
22.66
19.23
13.75
7.67
2.31
-1.38
-3.46
-4.00
-3.74
-3.20
-2.86
-3.05
-3.48
-3.95
-3.50
-1.92
0.93
4.45
7.61
9.61
9.71
8.22
5.58
2.86
0.87
0.22
1.29
3.52
6.07
7.29
5.85
0.96
-6.79
-15.58
-22.90
-26.43
-25.22
-19.66
-11.96
-4.12
1.87
5.33
6.51
6.05
4.94
3.32
1.72
-0.02
-1.73
-3.22
-4.29
-4.47
-4.00
-2.83
-1.75
-1.44
-2.73
-6.00
-10.63
-15.59
-19.32
-20.96
-20.31
-18.08
-14.95
-11.49
-7.76
-3.49
1.25
6.28
10.63
13.70
14.86
14.41
13.09
11.64
10.71
10.07
9.75
9.34
8.88
8.41
8.00
7.66
6.97
5.78
3.74
1.30
-1.01
-2.45
-2.78
-2.52
-2.38
-3.05
-4.31
-5.54
-5.49
-3.52
0.17
4.41
7.33
7.79
5.28
0.99
-3.76
-7.70
-10.40
-12.18
-13.08
-13.13
-11.24
-7.01
-0.55
6.51
11.79
13.45
10.70
5.21
-0.69
-4.14
-3.67
0.45
6.54
11.90
14.67
13.47
8.84
2.06
-4.79
-9.65
-11.52
-10.06
-6.65
-2.73
0.01
0.89
0.19
-1.50
-3.20
-4.75
-6.06
-7.41
-8.71
-9.53
-9.10
-6.70
-2.51
2.65
7.19
9.85
9.92
7.98
5.36
3.65
3.85
5.65
8.15
9.76
10.04
9.14
7.97
7.26
6.94
6.64
5.40
3.26
0.44
-2.37
-4.97
-7.69
-10.93
-14.93
-18.80
-21.29
-21.03
-17.65
-11.84
-4.85
1.78
6.85
9.33
8.70
4.48
-2.73
-11.64
-20.00
-25.33
-26.06
-21.91
-14.50
-6.12
0.83
5.43
7.57
8.28
8.62
9.06
9.93
10.68
11.31
11.63
12.17
13.35
15.19
17.60
19.56
20.72
20.57
19.46
18.11
17.13
17.14
17.59
17.76
15.98
11.28
3.39
-6.91
-17.49
-26.32
-31.43
-32.14
-29.01
-23.94
-19.18
-16.45
-16.17
-17.40
-18.19
-16.68
-12.31
-5.72
0.63
4.45
3.98
-0.48
-6.56
-11.73
-13.43
-11.51
-7.07
-2.21
1.45
4.01
6.14
9.24
13.18
17.16
19.39
18.45
14.55
8.78
3.58
0.55
0.71
3.58
7.53
10.92
12.33
11.39
9.04
6.81
6.03
7.50
10.18
12.76
13.50
11.63
7.90
3.32
-0.23
-2.15
-2.27
-1.41
-0.58
-0.09
-0.30
-0.58
-1.10
-1.97
-3.89
-7.60
-12.81
-18.72
-23.28
-24.67
-21.66
-14.38
-4.51
5.62
13.77
18.56
20.04
19.18
17.13
15.38
14.15
13.49
12.51
10.45
7.45
3.92
1.46
0.85
2.45
4.89
6.22
4.94
0.32
-6.21
-12.88
-17.58
-19.37
-18.59
-16.09
-13.36
-11.36
-10.95
-12.78
-17.16
-23.94
-31.90
-38.77
-41.73
-38.71
-29.09
-14.91
0.16
11.85
17.21
15.62
8.96
0.72
-5.88
-8.77
-8.17
-5.55
-2.94
-1.24
0.04
1.98
5.67
11.00
16.77
21.06
22.53
21.26
18.64
16.76
17.05
19.80
23.84
27.61
29.84
29.88
27.95
24.25
19.59
14.76
10.85
8.72
8.58
9.90
11.22
11.15
8.43
2.98
-4.64
-13.25
-21.45
-28.17
-32.40
-33.94
-33.14
-31.33
-30.02
-30.12
-31.36
-32.21
-30.85
-26.22
-19.04
-11.01
-4.29
-0.25
0.99
0.09
-1.93
-4.70
-8.07
-11.87
-15.27
-17.02
-15.89
-11.38
-4.33
3.67
10.68
15.58
17.81
17.91
16.65
14.80
13.17
11.90
11.38
11.16
11.06
10.78
10.41
10.42
11.06
12.68
14.67
16.58
17.91
18.76
19.66
21.00
22.88
24.61
25.43
24.61
22.28
18.92
15.42
12.28
9.51
6.83
3.47
-0.74
-6.13
-12.09
-17.83
-22.41
-24.95
-25.64
-24.78
-23.66
-22.88
-22.60
-22.17
-20.60
-17.76
-13.86
-10.46
-8.50
-8.41
-9.47
-10.37
-10.23
-8.71
-6.98
-5.86
-6.23
-7.50
-8.51
-8.10
-5.64
-2.16
1.17
2.48
1.38
-1.87
-5.88
-8.94
-10.34
-9.61
-7.79
-5.52
-3.84
-2.76
-1.72
-0.17
2.67
6.18
9.78
12.06
12.43
11.33
9.73
9.15
9.84
11.35
12.01
10.60
6.96
2.45
-0.67
-0.72
2.69
8.18
13.76
17.26
18.28
16.93
14.49
12.04
9.88
8.26
6.48
4.62
2.47
0.66
-0.41
-0.52
0.37
1.41
2.31
2.43
2.14
2.05
3.21
6.38
11.42
17.28
21.79
23.01
19.51
11.70
1.21
-9.04
-16.59
-20.03
-19.47
-17.04
-14.81
-15.00
-18.01
-23.26
-29.34
-34.38
-37.34
-37.08
-33.58
-26.59
-16.86
-5.22
6.79
16.96
23.60
24.94
21.14
13.09
3.32
-5.90
-12.78
-16.24
-16.77
-14.60
-10.82
-5.76
-0.32
4.63
8.21
9.63
9.52
8.95
10.14
14.07
20.76
28.08
32.96
33.21
28.03
19.48
10.46
4.50
3.06
5.95
11.01
15.18
16.84
15.15
11.51
7.47
4.94
4.65
6.07
8.07
8.55
6.20
-0.26
-10.61
-23.81
-38.10
-50.77
-59.61
-62.35
-58.34
-47.69
-32.16
-14.34
2.70
15.61
22.57
22.83
18.03
10.99
5.03
2.43
3.66
7.60
11.75
14.19
14.01
11.84
9.08
6.95
5.90
5.37
4.69
3.44
1.91
0.67
0.28
0.60
0.84
0.23
-1.66
-4.21
-6.52
-7.60
-7.02
-5.34
-3.32
-2.05
-1.95
-3.01
-4.63
-5.91
-6.37
-5.72
-4.33
-2.67
-1.16
-0.19
0.45
0.72
0.92
0.82
0.50
0.10
-0.12
0.70
2.57
5.24
7.66
8.65
7.62
4.78
1.30
-1.47
-2.42
-1.60
0.28
2.01
2.60
2.00
0.56
-0.86
-1.77
-1.71
-0.89
0.50
2.09
3.42
4.35
4.50
4.06
3.01
1.88
0.66
-0.26
-0.91
-1.12
-0.50
0.85
2.90
4.83
5.83
4.99
2.35
-1.52
-5.38
-7.87
-8.64
-7.83
-6.32
-5.19
-4.90
-5.55
-6.28
-6.38
-5.16
-2.83
-0.29
1.48
1.80
1.02
0.20
0.43
2.29
5.38
8.41
10.28
10.25
9.09
7.90
7.97
9.51
11.71
13.14
12.28
9.15
4.69
1.33
1.35
6.06
14.93
25.71
35.30
40.95
41.44
36.99
29.12
19.42
9.33
-0.24
-8.75
-15.71
-21.11
-24.93
-28.15
-31.48
-35.42
-39.64
-42.98
-44.74
-44.26
-42.42
-39.98
-37.59
-34.89
-30.69
-24.32
-15.58
-6.10
2.66
9.46
14.39
18.32
21.94
25.36
27.09
25.94
21.00
13.19
4.55
-2.52
-6.02
-5.76
-2.25
2.63
7.58
11.30
13.16
13.13
10.97
7.20
2.05
-3.44
-8.36
-11.85
-13.28
-12.90
-11.20
-9.11
-7.33
-6.35
-6.04
-5.93
-5.44
-4.01
-1.80
0.92
3.34
4.84
5.00
3.82
1.85
-0.38
-2.16
-3.25
-3.43
-3.07
-2.23
-1.37
-0.64
0.09
1.13
2.91
5.28
7.72
9.18
9.20
7.98
6.58
6.06
6.92
8.59
9.63
8.88
5.65
0.63
-4.98
-10.06
-13.96
-16.72
-18.39
-18.85
-17.68
-14.66
-10.24
-5.30
-0.79
3.16
7.00
12.05
19.11
27.83
36.36
41.95
42.26
36.47
26.08
14.09
3.94
-2.12
-3.84
-2.58
-0.81
-0.17
-1.28
-3.33
-4.95
-5.22
-4.14
-2.97
-2.74
-4.12
-6.42
-8.37
-8.64
-6.74
-3.68
-0.73
0.64
0.26
-1.16
-2.41
-2.41
-1.23
0.47
1.49
1.32
0.29
-0.78
-0.87
0.13
1.52
2.23
1.60
-0.15
-2.04
-3.05
-2.75
-1.77
-1.29
-2.19
-4.55
-7.54
-10.21
-11.88
-13.01
-14.24
-16.10
-18.43
-20.31
-20.98
-19.72
-16.62
-11.81
-5.62
2.03
11.01
20.66
29.88
37.04
41.08
41.66
39.90
36.92
33.96
31.28
28.44
25.00
20.27
14.70
8.53
2.49
-3.02
-7.81
-11.80
-15.53
-19.01
-22.74
-26.28
-28.97
-29.66
-27.48
-22.97
-17.41
-13.40
-12.75
-16.17
-22.34
-28.60
-32.20
-30.97
-24.83
-14.72
-2.89
8.33
16.82
21.03
20.56
15.55
7.65
-1.32
-9.15
-14.25
-16.06
-14.68
-11.24
-6.67
-2.03
1.88
4.49
5.35
4.53
2.30
-0.33
-2.46
-3.29
-2.65
-1.09
0.70
1.88
2.39
2.57
3.16
4.51
6.50
8.61
10.00
10.37
9.44
7.74
5.70
4.13
3.47
3.75
4.79
5.70
6.06
5.39
3.98
2.82
2.54
3.50
4.93
5.54
4.38
1.33
-2.51
-5.81
-7.42
-7.18
-5.72
-3.97
-2.88
-2.72
-3.52
-5.18
-7.42
-10.04
-12.29
-13.34
-12.56
-9.96
-6.68
-3.78
-2.21
-1.58
-0.58
2.49
8.61
17.13
25.88
31.88
33.11
29.11
21.70
13.47
6.76
2.70
0.92
0.51
0.33
0.49
1.54
4.33
8.99
14.38
18.60
19.31
15.65
8.04
-1.29
-9.48
-14.15
-14.07
-10.14
-4.18
1.38
4.94
5.46
3.15
-1.59
-8.26
-15.67
-22.01
-24.14
-19.31
-5.89
14.43
36.81
54.80
62.64
58.67
44.89
26.86
10.06
-2.16
-9.57
-14.55
-19.38
-25.53
-32.01
-37.08
-38.96
-37.19
-33.03
-28.33
-25.20
-24.39
-25.47
-26.58
-26.26
-23.69
-19.21
-14.20
-9.61
-5.82
-1.95
2.40
7.44
11.99
14.64
14.49
11.33
6.47
1.32
-2.69
-4.86
-5.02
-3.96
-2.93
-3.48
-6.92
-12.94
-19.57
-23.26
-20.85
-11.34
3.35
18.97
31.06
36.82
36.48
32.08
26.48
21.27
16.52
11.46
5.34
-1.21
-7.17
-10.98
-12.08
-10.79
-8.29
-6.07
-5.10
-5.71
-7.11
-8.26
-7.98
-6.19
-3.32
-0.53
1.14
1.27
-0.10
-2.34
-5.12
-8.08
-11.37
-14.53
-16.88
-17.32
-14.77
-9.23
-1.35
7.22
14.82
20.11
22.52
22.32
19.98
16.23
11.35
5.96
0.53
-4.01
-6.73
-7.03
-4.93
-1.41
2.18
4.08
3.49
0.42
-4.08
-8.51
-11.94
-13.66
-14.19
-13.91
-13.41
-12.67
-11.42
-9.49
-6.83
-4.03
-1.51
0.38
1.86
3.23
4.86
6.86
9.00
11.23
13.22
15.05
16.36
16.85
16.07
13.75
10.28
6.49
3.76
2.86
4.30
7.56
11.52
15.04
16.68
16.21
13.72
10.46
7.79
6.66
7.45
9.37
11.72
13.57
15.08
16.65
18.73
21.04
21.91
19.69
12.71
1.27
-12.93
-26.92
-37.70
-43.55
-43.77
-39.45
-31.71
-22.10
-11.85
-2.15
5.54
10.45
11.90
10.59
7.41
3.53
-0.34
-3.91
-6.71
-8.42
-8.00
-5.37
-0.98
3.34
5.36
3.73
-1.73
-8.96
-15.65
-19.21
-18.77
-14.76
-8.74
-3.01
0.97
1.96
0.17
-3.85
-8.95
-13.91
-17.92
-20.18
-20.60
-19.07
-15.91
-11.79
-7.55
-4.44
-3.25
-4.17
-6.43
-8.83
-10.04
-9.68
-8.13
-6.46
-5.69
-6.07
-7.01
-7.15
-5.66
-2.18
2.04
5.51
6.85
5.60
2.56
-1.18
-4.07
-5.32
-4.37
-1.19
4.18
11.16
18.83
25.62
30.12
31.65
30.60
28.60
27.16
27.59
29.63
32.17
33.79
33.25
30.64
26.47
22.25
18.81
16.83
16.01
15.31
14.07
11.17
6.69
0.67
-5.92
-12.31
-17.92
-21.99
-24.41
-24.46
-22.10
-16.99
-9.94
-1.92
5.38
10.29
12.26
11.18
8.49
5.40
3.44
2.88
3.32
3.85
3.46
2.13
-0.13
-2.30
-4.15
-5.41
-6.34
-7.66
-9.44
-12.02
-14.65
-16.86
-17.51
-16.08
-12.78
-8.25
-4.33
-2.25
-3.15
-6.33
-10.63
-14.02
-15.05
-13.59
-9.92
-5.27
0.05
5.60
11.85
18.52
24.98
29.91
31.54
29.07
22.04
11.68
-0.62
-12.78
-22.80
-29.48
-31.82
-30.27
-25.53
-19.52
-13.64
-9.22
-6.76
-5.74
-5.71
-5.66
-5.54
-5.00
-4.34
-3.34
-1.63
0.80
4.27
8.09
12.14
15.87
19.62
23.46
27.18
30.22
30.91
28.29
21.40
11.06
-1.41
-13.74
-23.57
-29.46
-30.34
-26.74
-19.37
-10.09
-0.39
7.98
13.61
15.81
13.92
8.51
0.03
-9.99
-20.41
-29.56
-35.93
-38.72
-37.21
-32.42
-25.77
-19.84
-16.32
-15.94
-17.62
-18.92
-17.98
-13.56
-6.84
0.43
6.07
9.30
10.92
12.21
14.77
18.45
22.59
25.57
26.52
25.35
22.57
19.46
16.63
14.78
13.56
12.92
12.34
11.63
10.86
9.44
7.25
3.48
-1.72
-8.08
-14.46
-19.54
-22.40
-22.13
-18.93
-12.80
-4.50
5.05
14.51
22.29
27.33
28.96
28.12
25.99
24.16
23.18
22.43
20.95
17.31
11.44
3.73
-4.48
-12.05
-18.18
-22.52
-25.49
-27.13
-27.95
-27.93
-27.19
-25.72
-23.52
-20.88
-17.93
-14.85
-11.69
-8.56
-5.34
-2.00
1.50
4.94
7.91
10.00
11.06
11.51
11.68
12.14
12.92
13.77
14.39
14.50
14.25
13.55
12.50
10.72
7.91
3.93
-0.85
-5.70
-9.97
-13.33
-16.11
-18.66
-21.30
-23.63
-25.28
-25.54
-23.99
-20.61
-15.43
-9.23
-2.59
3.23
7.46
9.47
9.42
8.54
8.10
9.85
14.30
21.42
29.79
37.32
41.96
41.62
35.83
24.83
10.55
-4.82
-18.94
-30.04
-37.46
-40.73
-40.39
-36.67
-30.47
-22.80
-15.04
-8.78
-4.74
-3.03
-2.31
-1.24
1.41
5.60
10.42
14.89
18.03
20.23
21.99
23.96
25.88
26.74
25.53
21.46
15.36
8.48
2.50
-1.58
-3.67
-4.20
-4.15
-3.56
-2.49
-0.49
2.50
6.02
9.32
11.29
11.61
10.03
7.00
3.17
-0.64
-3.41
-4.33
-2.60
1.39
6.88
11.88
14.79
14.48
11.01
5.85
0.32
-4.00
-7.08
-9.03
-10.62
-12.31
-13.83
-15.03
-15.12
-14.20
-12.14
-9.70
-7.69
-6.78
-7.62
-9.84
-12.95
-15.52
-16.64
-15.68
-12.69
-8.51
-3.90
0.15
3.41
5.76
7.45
8.57
9.16
9.06
8.39
7.41
6.63
6.74
7.96
10.49
13.56
16.35
17.82
17.36
14.90
10.94
6.50
2.47
-0.22
-1.56
-1.87
-2.09
-3.07
-5.21
-8.18
-11.04
-12.79
-12.62
-10.69
-7.55
-4.43
-2.01
-0.84
-0.72
-1.13
-1.80
-1.79
-1.02
1.14
4.54
8.87
13.56
17.34
19.63
19.55
17.43
13.55
9.05
4.81
1.33
-0.88
-2.29
-2.98
-3.65
-4.20
-4.94
-5.72
-6.70
-8.64
-11.69
-16.36
-21.82
-27.25
-31.06
-32.36
-30.92
-27.27
-23.10
-19.46
-17.57
-17.22
-17.92
-18.51
-17.77
-15.42
-11.22
-6.19
-1.02
3.12
5.96
7.96
9.64
12.11
15.37
19.29
22.55
24.36
24.03
21.93
19.44
17.52
17.21
17.86
18.63
17.94
15.16
10.51
4.89
0.04
-3.23
-4.16
-3.50
-1.89
-0.51
0.01
-0.14
-0.95
-1.58
-2.08
-2.16
-2.30
-2.67
-3.12
-3.59
-3.33
-2.43
-0.61
1.45
3.65
5.52
6.85
7.51
6.72
4.43
0.20
-5.10
-10.64
-14.94
-16.90
-16.24
-13.10
-8.80
-4.17
-0.51
2.01
3.09
3.12
2.87
2.76
3.75
5.63
8.35
10.75
12.28
12.48
11.45
9.88
7.89
5.95
3.51
0.74
-2.52
-5.70
-7.95
-9.08
-8.61
-7.23
-5.08
-2.85
-0.34
2.54
5.74
9.03
11.01
10.64
6.50
-1.19
-11.56
-22.36
-31.16
-36.62
-38.18
-37.18
-34.88
-32.89
-31.30
-29.82
-27.45
-23.43
-18.16
-12.15
-6.94
-3.04
-1.00
-0.13
0.50
1.56
3.84
7.03
11.24
15.80
20.63
25.24
29.16
31.88
32.70
32.02
30.13
28.38
27.40
27.58
28.36
28.60
27.18
23.40
17.76
11.21
5.56
1.57
-0.57
-1.88
-3.79
-7.00
-11.51
-15.70
-18.13
-17.42
-13.86
-8.92
-4.12
-1.06
0.39
0.56
0.54
0.44
0.20
-0.44
-1.69
-2.68
-2.88
-1.53
0.87
3.62
5.63
6.48
6.56
6.58
7.43
8.86
10.49
11.16
10.29
7.81
4.22
0.71
-2.04
-3.16
-2.84
-1.25
1.02
3.14
4.86
5.48
5.11
3.57
1.41
-0.99
-3.42
-5.69
-8.66
-12.79
-18.87
-26.53
-34.97
-42.59
-47.66
-49.35
-47.05
-41.47
-33.18
-23.40
-13.11
-3.29
5.21
12.33
18.02
23.10
27.74
31.96
35.01
36.06
35.04
32.16
28.75
25.57
23.19
21.03
18.16
13.86
7.64
0.28
-7.37
-14.05
-18.89
-21.55
-22.23
-21.82
-20.78
-19.86
-19.05
-18.17
-16.81
-14.53
-11.46
-7.68
-3.94
-0.69
1.59
2.93
3.67
4.30
5.58
7.48
9.92
11.88
12.51
11.38
8.84
6.28
4.80
5.40
7.64
10.47
12.62
13.01
11.69
9.01
5.85
2.74
0.19
-1.45
-2.05
-1.46
-0.10
1.55
2.76
3.33
3.43
3.45
3.86
4.70
5.75
6.62
7.25
7.84
8.80
10.11
11.33
11.72
11.02
9.50
7.97
7.22
7.51
8.51
9.33
9.17
7.31
3.52
-2.25
-9.49
-17.20
-23.95
-27.91
-28.08
-24.34
-18.27
-11.99
-7.53
-5.71
-6.04
-7.77
-10.08
-13.34
-18.01
-24.66
-32.75
-40.49
-45.52
-45.17
-38.55
-25.78
-9.25
8.08
22.94
32.75
36.82
35.34
30.19
23.13
16.06
10.15
5.81
3.10
0.98
-1.29
-4.99
-10.42
-17.02
-23.17
-26.71
-26.32
-21.61
-14.15
-6.02
0.73
5.26
8.19
10.65
13.98
18.20
22.64
26.00
27.27
26.24
23.32
19.54
15.38
11.43
7.73
4.60
2.36
1.12
1.06
1.53
2.23
2.32
1.83
0.93
-0.08
-0.55
-0.58
0.06
0.77
1.50
1.93
1.98
2.08
2.41
3.71
6.09
9.85
14.77
20.38
25.99
30.47
33.03
32.74
30.05
25.65
20.99
16.54
11.85
5.56
-3.82
-16.00
-29.39
-40.52
-46.83
-46.92
-42.02
-34.84
-27.81
-22.59
-18.49
-14.72
-10.20
-5.43
-1.57
0.37
-0.03
-1.43
-2.50
-1.71
1.03
4.94
8.43
9.77
8.34
4.19
-0.94
-5.48
-7.55
-7.02
-4.76
-2.70
-2.82
-5.41
-9.66
-13.03
-13.76
-10.72
-4.99
1.37
6.39
8.48
7.82
4.66
0.19
-4.78
-8.96
-11.25
-11.03
-8.15
-4.09
-0.34
1.34
0.55
-1.71
-4.00
-4.80
-3.96
-1.91
0.01
1.38
2.14
3.14
5.18
8.05
11.23
13.28
13.65
12.02
9.43
6.79
5.11
4.82
5.38
6.43
6.87
6.42
4.64
2.02
-0.91
-3.62
-5.36
-6.25
-6.00
-5.03
-3.30
-0.97
1.67
4.38
6.47
7.80
7.97
7.57
6.87
6.34
6.07
5.51
4.46
2.43
-0.01
-2.53
-4.16
-4.75
-4.30
-3.14
-2.09
-1.30
-1.29
-1.67
-2.40
-3.12
-3.77
-4.52
-5.33
-6.58
-7.92
-9.32
-10.32
-10.75
-10.76
-10.57
-10.57
-10.43
-9.85
-8.09
-5.05
-1.09
2.98
6.20
8.14
9.05
9.64
10.52
12.00
13.67
15.03
15.66
15.70
15.79
16.72
19.00
22.47
26.23
28.93
29.46
27.36
23.17
18.11
13.54
10.06
7.44
4.75
0.93
-4.32
-10.59
-16.72
-21.67
-24.72
-25.68
-24.93
-22.67
-19.74
-16.54
-14.15
-13.00
-13.18
-14.13
-14.38
-12.99
-9.11
-3.39
3.49
10.25
16.31
21.31
24.55
25.58
23.21
17.27
8.08
-2.34
-11.60
-17.42
-18.48
-15.52
-10.00
-4.53
-0.82
-0.29
-3.15
-8.44
-15.00
-20.67
-24.05
-23.88
-20.51
-14.97
-8.73
-3.61
-0.35
0.52
-0.51
-3.24
-7.00
-11.25
-15.19
-17.50
-17.49
-14.56
-9.60
-3.78
1.40
5.01
6.87
6.87
5.30
1.63
-4.22
-11.87
-19.68
-25.18
-26.32
-21.92
-13.22
-2.52
7.26
14.15
17.60
18.02
16.67
14.22
11.34
8.31
5.58
3.60
2.61
2.79
3.68
5.05
6.42
7.73
8.88
9.57
9.74
8.94
7.56
5.95
5.12
5.66
7.56
10.43
13.08
14.97
15.58
15.16
14.03
12.41
10.52
8.21
6.08
4.45
4.08
4.72
5.76
6.15
4.97
2.60
-0.24
-2.20
-2.97
-2.82
-3.13
-4.94
-8.33
-12.59
-15.83
-16.96
-15.18
-11.30
-6.30
-1.60
1.74
3.50
3.42
2.23
0.37
-1.29
-2.18
-1.93
-0.24
2.43
5.81
8.67
10.50
10.25
7.96
4.04
-0.58
-4.37
-6.55
-6.31
-4.24
-0.82
2.59
4.96
5.62
4.06
0.93
-3.14
-6.48
-8.20
-7.38
-4.75
-1.59
0.61
0.48
-1.68
-5.27
-8.58
-10.73
-11.09
-9.93
-7.86
-5.23
-2.79
-0.59
0.59
0.52
-1.18
-4.43
-8.24
-11.57
-13.23
-13.02
-11.21
-9.01
-7.54
-7.16
-7.71
-8.10
-7.64
-5.73
-2.62
1.14
4.73
7.47
9.25
9.96
10.26
10.34
10.81
11.79
13.29
15.01
16.40
17.39
17.58
17.32
16.33
14.83
12.73
10.32
8.33
7.25
7.46
8.18
8.68
7.84
5.59
2.78
0.53
0.10
1.51
4.09
6.53
7.97
8.22
7.73
7.31
7.03
6.98
6.46
5.33
3.44
1.19
-1.01
-3.06
-4.78
-6.62
-8.42
-10.59
-12.82
-15.17
-17.21
-18.65
-19.16
-18.36
-16.63
-14.04
-11.69
-10.05
-9.81
-11.14
-13.90
-17.94
-22.38
-26.62
-29.14
-29.15
-25.92
-19.94
-12.62
-5.72
-1.31
0.01
-2.07
-6.20
-11.10
-15.07
-16.97
-16.41
-13.42
-9.06
-3.90
1.02
5.87
10.53
15.44
20.61
25.40
29.42
31.55
31.74
29.57
25.85
21.18
16.48
12.81
10.32
9.30
8.87
8.66
7.63
5.54
2.35
-1.71
-5.47
-8.23
-8.56
-6.22
-0.95
5.95
12.89
18.17
20.19
18.96
14.73
9.26
3.79
-0.09
-1.66
-0.63
2.83
7.57
12.81
17.00
19.59
20.01
18.65
16.19
13.49
11.27
9.30
7.67
5.66
3.52
1.46
0.07
-0.45
-0.60
-0.92
-2.36
-4.44
-6.62
-7.48
-6.38
-3.53
0.09
2.55
2.70
-0.53
-6.70
-15.39
-25.15
-34.80
-42.96
-48.35
-50.32
-48.29
-43.02
-35.13
-26.12
-16.75
-7.90
-0.07
6.75
12.15
16.54
19.73
22.37
24.45
26.36
28.20
29.57
30.42
30.05
28.56
25.74
22.11
17.74
12.63
6.43
-1.26
-10.05
-19.27
-27.11
-32.34
-33.82
-31.78
-27.17
-21.38
-15.77
-11.14
-7.82
-5.66
-4.33
-3.48
-2.57
-1.54
-0.41
0.41
0.37
-0.98
-3.63
-6.98
-10.45
-13.00
-14.22
-14.03
-12.77
-11.02
-9.27
-7.74
-6.26
-4.63
-2.57
-0.19
2.14
4.17
5.74
7.26
9.08
11.64
14.90
18.20
20.89
21.79
20.60
16.98
11.61
5.08
-1.65
-7.50
-11.59
-12.72
-10.69
-5.42
1.50
8.26
12.40
12.12
7.34
-0.60
-8.44
-13.39
-13.05
-7.65
1.13
10.32
16.77
18.96
16.45
11.14
5.12
1.17
0.35
2.58
6.60
10.35
12.89
13.66
13.73
13.78
14.83
16.63
18.49
19.71
19.34
17.59
14.33
10.43
6.10
2.06
-1.44
-4.18
-5.60
-5.67
-3.70
0.08
5.63
11.67
16.75
19.22
18.26
14.48
9.15
4.56
1.70
1.07
1.72
2.45
2.24
0.64
-2.16
-6.31
-11.55
-18.34
-26.35
-34.84
-42.46
-47.95
-50.87
-51.56
-51.39
-50.87
-50.23
-48.39
-44.12
-36.62
-26.39
-15.20
-5.41
0.60
2.02
-0.86
-5.99
-11.07
-14.00
-13.85
-11.05
-6.69
-2.30
1.49
4.36
6.82
9.02
10.88
11.99
11.99
11.20
10.31
10.39
11.69
13.82
15.68
16.25
15.50
14.12
13.29
13.80
15.72
18.30
20.47
21.59
21.20
19.51
16.82
13.35
9.33
5.00
0.71
-3.27
-6.55
-9.21
-11.10
-12.18
-12.45
-11.81
-10.54
-8.85
-6.99
-4.80
-2.28
0.46
3.25
5.56
7.48
9.26
11.77
15.59
20.74
26.54
31.36
33.98
32.97
28.30
20.10
9.56
-1.95
-12.73
-21.01
-25.58
-25.56
-21.66
-14.75
-6.66
1.56
8.87
14.73
18.74
20.27
19.45
16.32
12.35
8.73
6.89
7.29
9.37
11.92
13.41
13.17
10.77
7.06
2.75
-1.28
-4.58
-7.08
-8.92
-10.63
-12.21
-13.95
-15.13
-15.20
-13.52
-9.96
-5.28
-0.39
3.07
4.30
2.41
-2.34
-9.51
-18.25
-27.02
-34.78
-40.03
-42.50
-42.27
-40.37
-37.85
-35.33
-32.69
-28.73
-22.60
-13.41
-1.50
11.99
25.09
35.64
41.83
42.57
38.49
31.13
23.17
17.13
14.64
15.89
19.66
24.37
28.46
31.09
31.95
31.00
28.36
23.86
17.94
11.18
4.52
-1.50
-6.73
-11.69
-17.15
-23.35
-29.80
-34.93
-37.32
-35.94
-31.19
-24.31
-16.90
-10.28
-4.88
-0.59
3.34
7.21
11.01
14.15
15.89
15.58
12.96
8.39
2.64
-2.96
-7.17
-9.14
-8.73
-6.64
-3.75
-1.09
0.85
1.51
0.67
-2.24
-7.25
-13.74
-20.34
-24.83
-25.75
-22.21
-15.46
-7.48
-0.45
4.31
6.77
7.41
7.04
5.39
2.30
-2.50
-8.17
-12.83
-14.66
-12.11
-5.68
3.42
12.90
21.06
26.88
29.94
30.84
29.81
27.62
24.35
20.55
16.45
12.46
9.48
7.70
7.73
8.91
10.62
11.51
10.26
6.47
0.25
-6.85
-13.29
-17.07
-17.40
-14.37
-9.32
-4.59
-1.85
-2.26
-5.03
-8.80
-11.72
-12.82
-12.15
-10.07
-7.36
-3.88
0.09
4.43
8.06
9.71
8.60
4.66
-0.54
-5.41
-8.31
-8.96
-8.02
-6.54
-5.71
-5.56
-5.92
-6.10
-5.99
-6.04
-6.90
-9.03
-11.70
-13.85
-13.95
-11.47
-6.89
-1.53
2.92
5.66
6.39
5.89
4.51
2.64
0.14
-2.91
-5.87
-7.94
-7.99
-5.99
-2.37
1.40
4.02
4.68
3.33
1.05
-1.19
-2.44
-2.57
-2.03
-1.22
-0.54
0.32
1.54
3.49
5.92
8.39
10.55
12.12
13.50
14.66
15.92
17.00
17.90
18.56
19.06
19.51
19.57
18.98
17.14
14.36
11.09
8.66
7.77
8.68
10.53
11.82
11.43
8.61
3.90
-1.93
-7.85
-13.44
-18.56
-23.25
-27.29
-29.91
-30.55
-28.78
-25.17
-20.77
-16.93
-14.36
-13.09
-12.42
-11.46
-9.88
-7.77
-6.04
-5.29
-5.84
-7.11
-7.87
-7.08
-3.84
1.16
6.99
11.79
14.48
14.68
12.74
10.02
7.51
6.52
7.25
9.99
13.85
17.94
20.99
21.60
19.29
13.75
6.16
-2.42
-10.15
-16.27
-20.17
-21.91
-22.08
-20.81
-18.77
-15.91
-12.92
-9.90
-7.48
-5.74
-4.47
-3.39
-1.55
1.10
4.99
9.47
14.04
17.84
20.31
21.20
20.48
18.93
16.98
15.57
14.88
14.93
15.10
14.62
12.86
9.34
4.55
-1.11
-6.38
-10.54
-12.99
-13.81
-13.55
-12.95
-12.90
-13.52
-14.68
-15.27
-14.41
-11.40
-6.34
-0.31
5.15
8.31
8.41
5.50
0.88
-3.98
-7.77
-10.02
-11.05
-11.50
-11.88
-12.04
-11.55
-9.80
-6.72
-2.66
1.66
5.31
7.87
9.24
9.77
10.04
10.61
11.86
13.53
15.03
15.59
14.62
12.11
8.50
4.57
0.89
-2.21
-4.82
-7.08
-8.91
-10.42
-11.59
-12.83
-14.47
-16.68
-19.07
-20.73
-20.83
-18.69
-14.85
-10.20
-6.02
-2.89
-1.02
0.17
1.50
3.36
6.09
9.11
12.17
14.49
15.87
16.13
15.44
14.15
12.47
10.88
9.16
7.52
5.52
3.19
0.58
-1.82
-3.56
-4.28
-3.82
-2.83
-1.76
-1.41
-1.90
-2.92
-3.63
-3.26
-1.53
1.36
4.42
7.07
8.81
9.99
11.22
13.01
15.32
17.46
18.44
17.25
13.54
7.54
0.27
-7.05
-13.13
-17.21
-19.19
-19.50
-18.91
-17.85
-16.53
-14.53
-11.52
-7.40
-2.63
1.92
5.49
7.67
8.74
9.10
9.34
9.56
9.73
9.74
9.57
9.23
8.75
8.18
7.49
6.85
6.31
6.01
5.83
5.61
5.13
4.35
3.50
2.99
3.19
4.35
6.26
8.48
10.60
11.97
12.30
11.38
9.40
6.69
3.98
1.90
0.84
0.81
1.07
0.89
-0.63
-3.74
-8.16
-12.90
-16.76
-18.76
-18.55
-16.74
-14.17
-12.13
-11.09
-11.03
-11.26
-11.08
-10.22
-8.64
-7.00
-5.10
-2.95
0.28
4.96
10.97
17.49
23.30
27.45
29.04
28.35
25.29
20.54
14.62
8.28
2.21
-3.42
-8.63
-14.44
-21.04
-28.73
-36.18
-41.90
-44.27
-42.41
-37.06
-29.60
-22.62
-17.65
-16.02
-17.30
-20.37
-23.78
-25.67
-25.09
-20.87
-13.09
-1.71
11.86
26.20
39.05
48.14
52.38
51.15
45.78
37.74
29.31
21.60
15.43
10.76
6.85
3.72
0.73
-1.71
-3.86
-5.42
-6.94
-9.10
-12.51
-18.12
-25.65
-34.87
-44.31
-52.82
-59.07
-62.14
-61.74
-57.60
-50.57
-41.19
-31.05
-21.11
-12.64
-6.15
-1.43
1.99
5.29
8.73
12.80
16.74
20.16
22.36
22.73
21.46
18.60
15.35
12.61
12.08
14.26
19.13
25.45
31.31
35.42
37.00
36.95
36.37
36.75
38.30
40.35
41.53
40.43
36.86
31.16
24.86
18.90
14.32
11.01
8.57
6.52
4.35
2.69
1.71
2.26
4.14
6.72
8.65
8.46
5.59
0.04
-6.65
-13.13
-17.85
-20.76
-22.52
-24.51
-27.65
-31.71
-35.89
-38.60
-39.16
-37.22
-33.63
-29.15
-24.49
-19.94
-15.57
-11.90
-9.27
-8.32
-8.70
-9.65
-9.99
-8.61
-5.24
-0.27
5.53
11.52
17.27
22.19
25.92
27.51
26.71
23.70
19.47
15.29
12.12
10.08
8.35
6.19
2.93
-0.83
-4.21
-6.20
-6.34
-5.19
-3.64
-2.67
-2.68
-3.81
-5.91
-8.66
-11.88
-14.82
-16.72
-16.47
-13.58
-8.52
-2.48
2.51
5.27
5.00
2.69
-0.60
-3.43
-5.18
-5.79
-5.45
-4.64
-3.16
-1.37
0.77
2.44
3.25
2.67
0.83
-1.46
-3.40
-3.83
-2.72
-0.08
3.17
6.23
8.39
9.24
9.01
8.01
7.51
8.34
11.59
17.43
25.28
33.61
40.37
43.91
43.24
39.16
33.02
27.04
22.67
20.38
19.34
17.81
14.10
7.22
-2.43
-13.56
-24.01
-32.23
-37.39
-39.61
-39.82
-38.86
-37.49
-35.95
-34.39
-32.79
-31.19
-29.72
-28.05
-26.18
-23.62
-20.35
-16.44
-12.24
-8.21
-4.72
-2.33
-0.92
-0.56
-0.59
-0.45
0.36
1.95
3.86
5.25
5.22
3.47
0.17
-3.51
-6.31
-7.04
-5.05
-0.65
5.29
11.53
17.19
21.77
25.31
27.89
29.40
29.93
29.21
27.63
25.69
23.93
22.42
20.50
17.15
11.33
3.33
-5.78
-13.84
-18.86
-19.84
-17.19
-12.73
-8.67
-6.93
-7.99
-11.06
-14.13
-15.07
-12.75
-7.08
0.36
7.52
12.45
14.38
13.68
11.58
9.32
7.53
6.40
5.29
4.14
2.90
2.09
2.13
2.98
4.18
4.62
3.63
0.61
-3.88
-8.93
-13.13
-15.16
-14.38
-10.76
-5.28
0.75
5.79
8.70
9.18
7.38
4.51
1.73
0.44
1.26
4.21
8.57
12.96
16.05
16.42
13.78
8.15
0.63
-7.52
-15.25
-21.41
-25.58
-26.84
-24.90
-19.38
-11.23
-2.31
4.91
8.10
6.85
2.22
-2.86
-5.85
-5.15
-1.41
3.18
6.49
7.14
5.71
3.45
1.80
1.26
1.40
1.46
0.77
-0.04
-0.25
1.33
4.51
8.25
10.79
10.48
7.17
1.65
-3.96
-8.26
-10.37
-10.74
-10.51
-10.45
-11.02
-11.54
-11.44
-9.90
-7.18
-3.65
0.02
3.15
5.67
7.29
8.30
8.77
9.07
9.40
10.07
11.09
12.08
12.74
12.23
10.59
7.57
3.79
-0.28
-3.93
-6.50
-7.90
-7.95
-7.42
-6.76
-6.74
-7.52
-8.88
-10.50
-11.57
-12.01
-11.38
-9.95
-7.54
-4.73
-2.15
-0.66
-1.12
-3.15
-6.03
-7.70
-7.02
-3.19
2.43
7.75
10.68
9.94
6.53
2.10
-0.68
-0.64
2.55
7.56
12.46
15.80
16.50
14.99
11.87
8.62
6.06
4.78
4.66
5.16
5.63
5.32
4.22
2.22
-0.02
-2.28
-4.46
-6.70
-8.92
-10.63
-11.10
-9.67
-6.51
-2.52
0.77
2.21
1.50
-0.71
-3.20
-5.05
-5.95
-6.33
-6.61
-6.89
-6.71
-5.54
-3.20
-0.35
1.73
1.81
-0.85
-5.82
-11.97
-17.60
-21.33
-22.39
-20.86
-17.52
-13.51
-9.98
-7.58
-6.37
-5.70
-4.83
-2.94
-0.02
3.44
6.55
8.53
9.24
8.88
8.19
7.44
6.74
5.90
4.83
3.66
2.54
1.85
1.55
1.67
2.08
2.94
4.30
6.36
8.93
11.69
14.20
16.22
17.70
18.57
18.92
18.44
17.43
15.93
14.53
13.53
12.96
12.54
11.60
9.97
7.43
4.67
2.32
1.16
1.08
1.50
1.23
-0.90
-5.15
-11.19
-17.50
-22.88
-26.17
-27.49
-27.42
-26.70
-25.78
-24.08
-21.28
-16.59
-10.54
-3.78
2.46
7.40
10.93
13.48
16.10
19.14
23.06
27.14
30.71
32.91
33.35
32.21
29.81
27.20
24.65
22.93
21.89
21.55
21.51
21.22
20.20
17.69
13.75
8.02
1.28
-6.11
-13.39
-20.21
-26.70
-33.01
-39.80
-46.72
-53.66
-59.36
-63.14
-64.16
-62.31
-58.62
-54.27
-51.42
-51.09
-54.16
-59.65
-65.95
-70.89
-72.12
-68.48
-59.28
-45.37
-27.59
-7.79
12.53
31.31
46.34
56.19
59.86
58.40
53.61
48.52
45.10
44.65
46.74
49.88
52.79
54.41
54.91
54.49
53.75
52.49
50.24
46.38
40.42
32.77
23.98
15.38
7.88
2.25
-1.36
-3.31
-4.26
-4.97
-5.66
-6.48
-7.05
-7.20
-6.96
-6.44
-6.06
-5.72
-5.27
-4.19
-2.26
0.41
3.31
5.60
6.93
7.23
7.15
7.23
7.78
8.55
8.80
7.80
4.96
0.46
-5.31
-11.10
-15.86
-18.60
-18.75
-16.57
-12.79
-8.87
-5.93
-4.99
-6.07
-8.81
-12.33
-15.35
-17.21
-17.23
-15.48
-12.32
-8.58
-5.29
-3.26
-3.19
-4.52
-6.61
-7.90
-7.29
-4.10
1.41
7.83
13.65
17.02
17.68
15.83
13.15
10.93
9.77
9.64
9.35
8.40
6.15
3.24
-0.21
-3.68
-7.29
-11.40
-15.69
-20.10
-23.63
-26.13
-27.04
-26.78
-25.29
-22.58
-18.91
-14.14
-9.27
-4.80
-1.82
-0.27
0.09
0.17
1.10
3.07
6.36
10.05
13.81
16.81
18.95
20.28
20.71
20.54
19.28
17.17
14.02
10.69
7.75
5.78
4.83
3.89
2.30
-0.94
-5.22
-9.79
-12.84
-13.10
-9.99
-3.84
3.66
10.99
16.16
18.55
17.89
15.24
11.97
9.46
8.41
8.23
8.00
5.98
1.74
-4.61
-11.96
-19.10
-25.29
-30.18
-34.07
-36.57
-37.69
-36.88
-34.20
-30.18
-25.87
-22.66
-21.11
-21.23
-21.67
-21.16
-18.35
-13.02
-6.04
0.95
6.01
7.96
6.51
2.66
-2.14
-6.16
-8.53
-9.12
-8.09
-5.92
-2.64
1.82
7.51
13.94
20.15
24.90
26.93
26.31
23.60
20.51
18.43
18.14
19.40
21.01
21.83
20.80
18.10
14.14
9.89
6.23
3.67
2.60
3.00
4.74
7.24
9.79
11.40
11.48
9.86
6.70
2.75
-1.53
-5.67
-9.61
-13.32
-16.76
-19.68
-21.37
-21.31
-18.49
-12.80
-4.21
6.34
17.40
27.21
33.84
36.52
35.23
31.83
28.48
27.54
29.98
35.07
40.56
43.39
41.72
34.86
24.52
12.95
2.62
-5.52
-11.85
-17.52
-23.59
-30.03
-36.09
-40.42
-42.26
-41.58
-39.30
-36.67
-34.54
-33.16
-32.02
-30.54
-28.16
-24.92
-21.10
-17.36
-14.28
-12.26
-11.42
-11.46
-11.99
-12.13
-11.40
-9.36
-6.01
-1.61
3.43
8.74
14.06
19.05
23.28
25.82
26.13
23.66
19.11
13.58
8.64
5.42
3.92
3.51
2.80
1.26
-1.23
-3.66
-5.24
-5.44
-4.43
-3.05
-1.83
-1.21
-0.83
-0.56
-0.13
0.26
0.47
0.34
0.01
-0.06
0.08
0.57
0.84
0.62
-0.41
-2.16
-4.21
-6.06
-7.17
-7.14
-5.86
-3.35
0.32
4.83
9.77
14.62
18.77
21.85
23.65
24.21
23.70
22.11
19.22
14.77
8.69
1.29
-6.51
-13.77
-19.36
-22.98
-24.72
-25.01
-24.51
-23.33
-21.78
-19.73
-17.39
-14.74
-11.94
-8.72
-4.95
-0.48
4.52
9.26
13.12
15.22
15.40
13.82
11.19
8.21
5.61
3.86
3.17
3.58
4.60
5.89
6.90
7.59
7.89
8.07
8.38
8.79
9.31
9.69
9.79
9.57
9.17
8.70
8.31
7.79
6.66
4.35
0.60
-4.49
-10.04
-14.93
-18.06
-19.03
-18.17
-16.28
-14.33
-12.84
-12.14
-11.82
-11.64
-10.90
-9.42
-6.77
-3.27
0.87
4.99
8.45
11.14
12.85
13.96
14.48
14.78
14.79
14.87
14.95
15.07
15.01
14.27
12.55
9.72
6.24
2.35
-1.40
-4.97
-8.33
-11.38
-14.14
-16.33
-17.97
-19.12
-19.99
-20.64
-20.89
-20.41
-18.84
-16.33
-13.19
-10.15
-7.74
-6.17
-5.25
-4.53
-3.66
-2.19
-0.15
2.44
5.27
7.77
9.66
10.42
10.37
9.61
8.71
7.84
7.03
5.96
4.17
1.63
-1.66
-4.94
-7.63
-8.65
-7.56
-3.90
1.82
8.82
15.81
21.44
25.18
26.71
26.64
25.30
23.21
20.29
16.47
11.50
5.28
-2.28
-10.92
-20.31
-29.45
-37.35
-42.74
-44.91
-43.91
-40.18
-34.70
-28.07
-20.97
-13.49
-6.13
1.11
7.77
13.64
18.52
22.12
24.26
24.59
23.36
20.59
17.07
13.20
9.48
6.23
3.55
1.70
0.82
1.16
2.24
3.40
3.48
1.74
-1.71
-6.11
-9.81
-11.67
-11.04
-8.45
-4.90
-1.46
1.15
2.91
3.39
2.63
0.12
-4.14
-9.66
-15.21
-19.27
-20.71
-19.04
-15.02
-9.51
-3.88
1.09
5.02
7.97
10.22
11.91
13.39
14.31
14.68
13.90
11.90
8.88
5.37
2.43
0.69
0.80
2.52
5.55
9.15
12.65
15.85
18.26
19.97
20.51
20.03
18.31
15.85
13.03
10.32
8.15
6.34
5.01
3.62
2.35
1.01
-0.04
-0.63
-0.90
-0.85
-1.16
-1.94
-3.62
-5.81
-8.10
-9.68
-9.81
-8.36
-5.45
-1.96
1.31
3.55
4.35
3.68
1.80
-0.81
-3.89
-6.86
-9.68
-12.11
-14.10
-15.74
-17.13
-18.56
-19.97
-21.22
-21.59
-20.49
-17.61
-12.82
-7.05
-1.09
3.60
6.44
6.82
5.14
2.04
-1.90
-5.80
-9.53
-12.71
-15.74
-18.55
-21.42
-23.89
-25.36
-25.07
-22.31
-17.40
-10.83
-4.05
2.12
6.75
9.81
11.54
12.22
12.40
12.19
12.13
12.53
13.88
16.30
19.17
21.81
22.79
21.70
18.39
13.86
9.29
5.62
3.51
2.76
3.51
5.43
8.91
13.55
18.95
23.90
26.97
27.42
24.90
20.45
14.98
9.89
5.47
1.95
-0.95
-3.44
-5.32
-6.70
-7.28
-7.53
-7.56
-7.85
-8.54
-9.47
-10.53
-11.55
-12.81
-14.13
-15.53
-16.42
-16.32
-14.96
-12.57
-10.08
-8.22
-7.60
-7.74
-7.94
-7.46
-5.94
-4.06
-2.40
-1.93
-2.71
-4.59
-6.96
-9.37
-11.51
-13.20
-14.76
-16.26
-18.16
-20.33
-22.32
-23.09
-21.50
-16.60
-8.13
2.80
14.58
24.85
32.04
34.98
34.11
30.59
26.11
22.43
20.54
20.80
22.64
25.33
28.05
30.04
30.75
29.42
25.73
19.66
12.10
4.55
-1.26
-4.37
-5.17
-5.11
-6.21
-9.31
-14.13
-19.02
-22.23
-22.81
-21.20
-18.97
-17.61
-18.22
-20.17
-22.43
-23.47
-22.51
-19.58
-15.24
-10.26
-5.11
-0.41
3.35
5.23
4.68
1.65
-2.77
-6.63
-7.86
-5.28
0.68
8.37
15.49
20.25
21.99
21.07
18.58
15.73
13.34
11.84
11.16
11.03
11.00
10.61
9.33
6.74
2.86
-1.90
-6.60
-10.31
-12.45
-12.87
-12.29
-11.42
-11.09
-11.35
-11.78
-11.76
-10.70
-8.80
-6.38
-4.27
-2.53
-1.30
-0.03
1.07
1.75
1.39
-0.61
-3.86
-7.93
-11.53
-14.22
-15.47
-15.79
-15.35
-14.23
-12.27
-8.84
-4.31
1.01
5.76
9.01
9.98
8.81
6.43
3.97
2.81
3.27
5.22
7.62
9.59
10.41
9.99
8.82
7.25
6.20
5.68
6.13
7.33
9.25
11.50
13.50
14.72
14.42
12.82
10.01
7.16
4.83
3.60
3.43
3.72
3.80
2.87
1.04
-1.51
-3.61
-4.49
-3.63
-1.04
2.61
6.48
9.37
10.55
9.34
6.01
1.51
-2.94
-5.69
-6.10
-4.01
-0.56
3.07
5.59
6.58
6.35
5.23
3.86
1.99
-0.12
-2.52
-4.45
-5.37
-4.93
-3.41
-1.91
-1.29
-2.50
-5.19
-8.74
-11.83
-13.75
-14.14
-13.12
-11.30
-8.97
-6.74
-4.92
-4.02
-4.34
-5.68
-7.82
-9.97
-12.02
-13.73
-15.48
-17.30
-18.85
-19.46
-18.00
-14.29
-8.24
-1.10
6.20
12.45
17.21
20.52
22.52
23.84
24.47
24.89
24.88
24.83
24.42
23.42
21.42
17.87
13.19
7.92
3.78
1.82
2.92
6.40
10.55
13.31
12.77
9.03
3.19
-1.99
-4.42
-2.85
1.84
7.16
10.10
7.85
-0.17
-12.90
-27.18
-39.77
-48.02
-51.16
-50.13
-46.80
-42.85
-38.75
-34.09
-27.91
-19.86
-10.65
-1.92
4.60
7.92
8.15
6.39
3.88
1.64
0.12
-0.68
-0.80
-0.20
1.21
3.42
6.21
9.12
11.51
13.02
13.23
12.14
10.09
7.46
4.63
1.63
-1.59
-5.23
-9.14
-12.91
-15.84
-16.82
-15.52
-11.81
-6.44
-0.33
5.62
10.94
15.67
19.87
23.87
27.30
29.93
31.25
31.28
30.30
29.03
28.10
27.80
28.31
29.00
29.73
30.04
29.96
29.61
29.23
28.98
28.77
28.32
26.68
23.43
17.98
10.77
2.75
-4.90
-11.29
-16.42
-20.74
-25.17
-29.68
-33.90
-36.81
-37.64
-36.43
-34.07
-32.02
-31.53
-33.29
-36.75
-40.91
-44.31
-45.66
-44.43
-40.65
-35.32
-29.64
-24.80
-21.10
-18.20
-15.19
-11.19
-6.31
-0.93
3.83
7.30
9.40
10.63
11.61
12.65
13.65
14.12
14.04
13.71
13.67
14.33
15.44
16.25
15.84
13.96
10.73
7.16
4.33
2.80
2.73
3.43
4.21
4.40
4.00
3.24
2.58
2.35
1.97
1.22
-0.81
-3.91
-7.51
-10.21
-10.65
-8.09
-2.57
4.39
11.39
16.73
19.85
20.77
20.19
18.98
17.93
17.98
19.27
22.27
26.24
30.55
34.08
36.12
36.42
35.08
32.52
28.37
22.63
14.72
5.21
-4.69
-13.07
-18.12
-19.03
-16.24
-11.76
-7.45
-5.33
-5.94
-8.77
-12.58
-16.06
-18.70
-20.72
-23.26
-26.91
-31.97
-37.51
-42.12
-44.51
-44.21
-41.95
-38.85
-35.99
-33.50
-31.00
-27.81
-23.53
-18.53
-13.48
-9.28
-6.22
-4.22
-2.51
-0.54
1.99
5.04
8.00
10.47
12.11
13.07
13.77
14.67
15.95
17.48
19.03
20.10
20.83
21.54
22.77
24.75
27.13
29.20
30.03
29.22
26.64
22.84
18.64
14.65
11.42
8.79
6.55
4.20
1.51
-1.77
-5.52
-9.30
-12.76
-15.09
-15.81
-14.40
-10.88
-5.57
0.69
6.83
11.67
14.03
13.59
10.31
5.20
-0.75
-6.37
-11.04
-14.80
-18.10
-21.50
-24.94
-28.01
-29.62
-29.17
-26.59
-22.47
-17.83
-13.42
-9.68
-6.47
-3.76
-1.45
0.26
1.17
1.32
0.80
0.03
-0.83
-1.39
-1.37
-0.44
1.55
4.22
7.10
9.36
10.86
11.38
11.40
11.12
10.48
9.22
6.91
3.59
-0.53
-4.57
-7.82
-9.69
-10.01
-9.18
-7.80
-6.59
-5.71
-4.85
-3.12
0.17
5.06
10.82
15.94
19.30
20.38
19.78
18.71
18.37
19.40
21.74
25.07
28.65
32.35
35.56
37.97
39.18
38.85
36.84
32.76
26.44
17.26
5.28
-8.72
-23.16
-35.86
-45.03
-49.66
-50.19
-47.70
-43.71
-39.21
-34.55
-29.92
-25.11
-20.56
-16.28
-12.67
-9.50
-6.58
-3.69
-0.81
1.71
3.78
4.67
4.37
2.76
0.23
-2.55
-4.88
-6.13
-6.26
-5.13
-3.42
-1.67
-0.57
-0.74
-2.22
-4.77
-7.43
-9.26
-9.08
-6.33
-1.03
6.30
14.19
21.48
26.67
29.31
28.91
25.93
21.30
16.22
12.45
10.68
11.49
13.83
16.68
18.43
18.07
15.38
10.66
5.28
0.32
-2.67
-3.29
-1.23
2.88
8.01
12.85
16.06
17.01
15.36
12.10
8.01
4.24
1.35
-0.56
-1.86
-3.40
-5.97
-10.46
-16.84
-24.84
-33.33
-40.90
-46.22
-48.32
-47.14
-43.26
-37.88
-31.91
-25.92
-19.77
-13.09
-5.72
2.00
9.19
15.03
19.06
21.64
23.53
25.50
27.83
29.61
29.96
27.95
23.68
18.08
12.50
7.94
4.54
1.90
-0.80
-3.57
-6.03
-7.10
-5.96
-2.52
2.51
7.83
12.26
14.96
15.96
15.56
14.39
12.96
11.45
9.89
8.16
6.23
4.02
1.36
-1.92
-6.08
-10.70
-15.50
-19.50
-21.96
-22.45
-21.19
-18.98
-16.73
-15.36
-15.14
-16.09
-17.71
-19.67
-21.60
-23.11
-23.95
-23.69
-22.12
-19.18
-15.51
-11.82
-8.73
-6.62
-4.90
-3.15
-0.59
2.62
6.12
9.07
10.89
11.37
10.59
9.12
7.04
4.76
2.26
0.08
-1.53
-2.08
-1.68
-0.83
-0.10
-0.07
-0.68
-1.78
-2.71
-3.15
-2.77
-1.68
0.13
2.72
6.26
10.81
16.21
21.65
26.33
29.00
29.29
27.03
22.85
17.43
11.35
5.03
-1.52
-7.81
-13.57
-17.97
-20.84
-21.80
-21.25
-19.31
-16.30
-12.68
-8.57
-4.69
-1.21
1.55
4.01
6.43
9.16
11.92
14.12
15.28
15.18
14.39
13.65
13.62
14.30
14.87
14.01
10.49
4.32
-3.37
-10.30
-13.82
-12.60
-6.85
1.37
9.10
13.80
14.57
11.94
7.63
3.20
-0.70
-3.44
-4.85
-3.94
-0.28
6.22
13.84
20.23
23.18
21.52
16.24
9.12
2.49
-2.57
-5.63
-7.30
-7.83
-7.10
-5.05
-1.71
2.09
5.12
6.17
4.72
0.81
-4.35
-9.28
-12.57
-13.09
-10.93
-6.73
-1.75
2.97
6.84
9.74
11.93
12.97
12.60
10.03
5.31
-0.74
-6.39
-9.65
-9.34
-5.49
0.16
5.69
8.98
9.30
7.08
3.39
-0.63
-4.61
-8.50
-12.66
-16.55
-19.45
-20.39
-18.84
-15.49
-11.41
-8.27
-6.73
-6.94
-7.67
-7.89
-6.43
-3.00
1.63
6.45
9.93
11.39
10.47
7.96
4.59
1.51
-0.78
-2.11
-2.46
-1.90
-0.37
2.10
5.20
8.22
10.43
11.11
10.05
7.41
3.86
-0.12
-3.88
-7.37
-10.39
-12.81
-14.22
-14.11
-12.19
-8.76
-4.81
-1.47
0.17
0.01
-1.57
-3.67
-5.69
-7.43
-9.11
-10.99
-12.92
-14.45
-15.14
-15.02
-14.53
-14.12
-13.73
-12.74
-10.12
-5.22
1.71
9.54
16.84
22.33
25.65
27.02
26.88
25.46
22.59
18.21
12.57
6.73
1.67
-1.51
-2.98
-3.17
-3.35
-4.20
-6.22
-9.25
-12.74
-16.53
-20.15
-23.76
-27.09
-30.20
-32.44
-33.31
-31.82
-27.64
-21.00
-12.83
-4.63
2.54
8.03
12.37
16.05
19.73
23.11
25.66
26.82
26.60
25.48
24.09
22.57
20.59
17.55
13.31
8.29
3.64
0.32
-1.14
-0.67
1.11
3.92
7.15
10.71
13.76
15.57
15.17
12.19
6.99
0.50
-5.96
-11.56
-15.45
-17.52
-17.37
-15.29
-11.66
-7.44
-3.82
-1.56
-0.80
-0.77
-0.59
0.55
2.46
4.64
6.36
7.15
7.22
6.97
6.70
6.31
5.42
3.79
1.31
-1.57
-4.52
-7.17
-9.25
-10.83
-11.61
-11.59
-10.35
-8.08
-4.90
-1.58
1.08
2.35
1.84
0.11
-2.30
-4.12
-4.93
-4.33
-2.82
-1.03
0.41
1.03
1.04
0.47
-0.01
-0.19
0.51
2.04
4.43
7.22
9.85
11.94
13.18
13.68
13.46
12.44
10.18
6.06
-0.22
-8.43
-17.30
-25.13
-30.33
-32.00
-30.45
-26.65
-21.95
-17.21
-13.03
-9.56
-6.66
-4.35
-2.35
-0.87
0.30
0.81
0.93
0.72
0.64
1.16
2.32
3.82
4.59
3.95
1.29
-2.80
-7.22
-10.63
-12.00
-11.04
-7.96
-3.49
1.85
7.10
11.70
15.00
16.63
16.64
15.18
12.77
9.80
6.81
4.09
1.95
0.67
0.17
0.88
2.55
5.24
8.57
12.01
14.83
16.24
15.77
13.25
9.34
5.00
1.47
-0.20
0.32
2.92
6.63
10.42
12.93
13.50
11.63
7.69
2.58
-2.67
-6.67
-8.92
-8.98
-7.50
-4.94
-2.11
0.75
3.35
5.19
6.00
5.17
2.89
-0.41
-3.58
-5.99
-7.07
-7.06
-6.23
-4.87
-2.93
-0.41
2.52
5.30
7.20
7.87
7.48
6.47
5.15
3.40
0.57
-3.70
-9.38
-15.11
-19.28
-20.04
-17.01
-10.92
-3.85
1.82
4.51
3.70
0.46
-3.80
-7.53
-10.26
-11.91
-13.11
-13.82
-13.78
-12.09
-8.20
-2.30
4.61
10.86
15.28
17.14
16.85
15.26
13.36
11.65
10.15
8.36
5.96
2.69
-0.95
-4.47
-6.93
-8.01
-7.45
-5.51
-2.51
1.14
4.96
8.70
11.75
13.92
14.69
14.17
12.27
9.70
7.02
5.26
5.00
6.12
8.09
9.49
9.27
6.82
2.62
-2.06
-6.09
-8.81
-10.85
-13.16
-16.90
-22.51
-29.48
-36.91
-43.34
-47.93
-49.79
-48.92
-45.25
-39.41
-31.94
-23.43
-14.38
-4.90
4.59
13.83
22.08
28.64
33.04
35.31
35.91
34.81
31.90
26.28
17.60
6.30
-6.06
-16.93
-24.44
-27.33
-26.29
-22.31
-16.82
-10.43
-3.52
3.58
10.31
15.79
19.95
23.01
26.25
30.36
35.55
40.76
44.48
45.67
43.74
39.07
32.40
24.28
15.32
5.80
-3.30
-11.21
-16.49
-18.55
-17.11
-13.06
-7.92
-3.43
-1.24
-1.79
-4.92
-9.20
-13.42
-16.32
-17.91
-18.45
-18.61
-18.58
-17.83
-15.75
-11.72
-5.97
0.70
7.23
12.45
16.08
17.81
18.00
16.78
14.36
10.92
6.68
2.34
-1.80
-5.04
-7.42
-8.77
-9.54
-9.93
-10.23
-10.34
-9.71
-7.75
-3.79
2.08
9.25
16.28
22.08
25.76
27.12
26.06
22.37
15.60
5.73
-6.55
-19.09
-29.39
-34.98
-35.31
-31.19
-25.19
-19.55
-15.82
-14.24
-13.74
-13.50
-12.73
-11.64
-10.44
-9.65
-9.07
-8.56
-7.54
-5.62
-2.60
1.36
5.89
10.50
14.48
17.49
19.30
19.89
19.38
17.70
14.71
10.46
5.10
-0.41
-5.16
-8.02
-8.74
-7.30
-4.64
-1.39
1.74
4.36
6.42
7.66
8.09
7.32
5.35
2.02
-2.41
-7.63
-13.24
-18.97
-24.59
-29.80
-34.18
-37.17
-38.16
-36.88
-33.12
-27.81
-21.84
-16.30
-11.79
-8.14
-5.24
-2.97
-2.14
-3.46
-7.71
-14.12
-21.35
-27.13
-29.72
-28.34
-23.13
-15.30
-5.97
3.72
13.43
22.79
31.73
39.89
46.81
51.86
54.29
53.86
50.62
45.38
39.14
32.66
26.34
19.81
12.82
5.62
-0.78
-4.76
-5.26
-1.97
3.72
10.08
14.77
16.96
16.42
14.00
10.83
7.35
3.81
-0.09
-4.06
-7.93
-10.93
-12.99
-13.89
-14.03
-13.54
-12.17
-9.85
-6.20
-1.75
2.93
6.52
8.23
7.46
4.68
0.75
-3.17
-6.02
-7.40
-7.36
-6.41
-5.11
-3.72
-2.56
-1.53
-0.92
-0.98
-1.61
-2.29
-1.71
1.03
6.37
12.88
18.60
21.11
19.72
15.28
9.96
6.29
5.33
6.92
9.46
11.66
12.44
11.93
10.15
7.31
3.31
-1.99
-8.02
-14.00
-18.65
-21.49
-22.40
-22.05
-21.08
-19.87
-18.31
-16.05
-12.87
-8.91
-4.32
0.26
4.76
8.56
11.49
12.87
12.35
9.85
5.63
0.72
-3.91
-7.00
-8.10
-6.80
-3.66
0.91
6.03
11.33
16.72
22.08
27.65
32.96
37.59
40.63
41.75
40.79
38.04
33.44
26.62
16.95
4.08
-11.39
-27.41
-41.68
-51.70
-56.95
-57.85
-56.10
-53.03
-49.06
-44.08
-37.63
-30.35
-23.28
-18.20
-15.67
-15.39
-15.39
-13.72
-8.96
-0.87
9.01
18.99
27.16
32.85
35.76
36.37
34.87
31.76
27.65
23.32
20.07
18.64
19.29
21.32
23.40
24.13
22.27
17.52
10.11
1.04
-8.14
-15.94
-20.78
-22.24
-20.52
-17.27
-13.99
-12.33
-12.36
-13.58
-14.83
-15.20
-14.64
-13.54
-12.78
-12.62
-13.25
-14.11
-15.00
-15.77
-16.56
-17.59
-18.54
-19.13
-18.87
-17.67
-15.62
-12.98
-9.97
-6.47
-2.52
1.99
6.64
10.75
13.75
15.03
14.79
13.15
10.90
8.24
5.72
3.37
1.67
0.92
1.54
3.73
7.32
12.04
17.02
21.59
25.09
27.08
27.53
26.20
23.34
19.08
14.12
9.47
5.94
4.03
2.96
1.76
-1.13
-5.96
-12.26
-18.34
-22.33
-23.01
-20.30
-15.48
-10.00
-5.69
-3.14
-2.64
-3.53
-5.17
-6.88
-7.93
-8.36
-7.82
-6.83
-5.55
-4.33
-3.64
-3.20
-3.03
-2.17
-0.21
3.64
9.17
15.80
22.46
27.61
30.49
30.45
28.08
23.93
19.35
15.05
11.92
10.11
9.28
9.09
8.47
7.08
4.33
0.55
-3.94
-8.43
-12.18
-15.07
-16.60
-17.13
-16.65
-15.45
-13.84
-12.24
-11.33
-11.56
-13.24
-15.87
-18.78
-20.90
-21.28
-19.79
-16.59
-12.76
-8.98
-6.25
-4.60
-4.03
-4.05
-4.06
-3.89
-3.16
-2.06
-0.30
2.07
5.59
10.06
15.37
20.72
25.15
28.09
29.25
29.31
28.87
28.54
28.20
27.47
25.72
22.56
18.11
12.88
7.47
2.61
-1.48
-4.42
-6.48
-7.41
-7.52
-6.71
-5.23
-3.45
-1.82
-1.05
-1.32
-2.85
-5.15
-7.97
-10.79
-13.83
-17.22
-21.32
-25.85
-30.03
-33.06
-34.02
-32.92
-30.13
-26.44
-22.75
-19.39
-16.73
-14.54
-12.83
-11.50
-10.46
-9.85
-9.42
-9.33
-9.25
-9.35
-9.34
-9.42
-9.22
-8.57
-6.90
-3.51
1.98
9.66
18.51
27.32
34.21
38.24
39.02
36.96
32.78
26.78
19.39
10.92
2.28
-5.01
-9.83
-11.31
-10.11
-7.24
-4.25
-1.84
-0.13
1.26
2.79
4.25
5.46
5.69
4.99
3.34
1.37
-0.48
-1.69
-1.81
-0.91
0.97
3.14
5.14
6.44
6.91
6.83
6.39
5.88
4.97
3.38
0.93
-1.80
-3.63
-3.18
0.31
6.36
13.67
20.03
24.13
25.30
24.20
21.98
19.53
17.48
15.30
12.62
9.12
5.08
1.26
-1.76
-3.36
-3.79
-3.16
-2.13
-0.87
0.40
1.76
3.21
4.61
5.76
6.22
5.89
4.50
2.36
-0.36
-3.27
-5.99
-8.38
-10.11
-11.54
-12.67
-13.88
-15.11
-15.98
-16.10
-14.84
-12.42
-9.39
-7.07
-6.43
-7.74
-9.84
-10.65
-8.31
-2.04
6.74
15.51
21.14
22.22
18.90
12.98
6.33
0.25
-5.05
-10.04
-14.98
-19.42
-22.52
-23.28
-21.86
-18.75
-15.40
-12.43
-10.20
-8.27
-6.14
-3.69
-1.13
0.71
1.43
0.57
-1.42
-4.19
-6.86
-8.95
-10.28
-11.04
-11.58
-11.93
-12.05
-11.62
-10.35
-8.18
-5.27
-2.17
0.77
3.17
5.07
6.67
8.32
10.21
12.09
13.77
14.62
14.52
13.33
11.56
9.63
8.04
7.13
6.62
6.07
4.86
2.82
0.28
-1.86
-2.53
-1.08
2.51
7.14
11.37
13.73
13.62
11.33
7.81
4.27
1.15
-1.35
-3.86
-6.59
-9.83
-13.07
-15.83
-17.54
-17.93
-17.04
-14.90
-11.55
-6.92
-0.92
5.99
13.07
18.75
21.67
20.72
15.75
7.79
-1.68
-10.73
-18.17
-23.26
-26.31
-27.69
-28.17
-27.77
-26.52
-23.98
-19.86
-14.18
-7.17
0.50
8.38
15.97
22.98
29.15
33.90
36.65
36.64
33.74
28.17
20.62
12.12
3.28
-4.98
-12.44
-18.44
-22.81
-25.31
-25.91
-24.64
-21.45
-16.26
-8.99
-0.03
10.05
20.15
29.32
36.89
42.47
45.90
46.74
44.72
39.52
31.75
22.66
14.05
7.47
3.33
1.30
-0.25
-2.41
-6.05
-10.82
-16.03
-20.85
-24.62
-27.29
-28.55
-28.46
-26.63
-23.36
-19.15
-15.06
-12.14
-10.79
-10.81
-11.10
-10.72
-8.97
-5.90
-1.98
2.23
6.16
9.79
12.72
14.90
15.75
15.21
13.30
10.52
7.74
5.42
3.92
2.89
2.11
1.35
0.63
0.41
1.09
3.35
7.04
11.85
16.45
19.55
20.35
18.70
15.71
12.54
10.46
9.45
9.30
9.11
8.68
7.86
6.76
5.16
2.44
-1.79
-7.31
-13.11
-17.67
-20.06
-19.98
-18.38
-16.21
-14.54
-13.62
-13.38
-13.68
-14.30
-15.59
-17.42
-19.88
-22.36
-24.62
-26.05
-26.31
-25.17
-22.49
-18.57
-13.75
-8.89
-4.53
-1.08
1.68
4.26
7.01
10.06
12.85
14.69
14.98
13.79
11.65
9.37
7.62
6.39
5.40
3.98
1.93
-0.91
-3.95
-6.54
-8.35
-9.05
-8.94
-7.94
-6.25
-3.78
-0.76
2.30
4.75
5.89
5.91
5.51
6.04
8.33
12.27
16.64
19.51
19.63
16.62
11.67
6.11
1.44
-2.09
-4.47
-6.20
-7.18
-6.99
-5.07
-1.17
3.93
9.13
13.06
15.14
15.54
14.85
13.59
11.81
9.08
5.27
0.52
-4.17
-8.04
-10.23
-11.14
-11.19
-11.27
-11.56
-11.67
-11.16
-9.60
-7.52
-5.53
-4.76
-5.42
-7.36
-9.34
-10.24
-9.24
-6.27
-2.38
1.02
2.49
1.58
-1.46
-5.74
-10.38
-14.84
-18.88
-22.26
-24.42
-24.23
-20.98
-14.55
-6.55
1.10
6.00
7.60
6.46
4.29
2.96
3.00
4.20
5.38
6.01
5.85
5.69
5.98
7.28
9.74
13.17
17.80
23.47
30.12
36.79
42.52
46.21
47.30
45.56
40.95
33.58
23.72
11.99
-0.19
-11.31
-19.67
-24.80
-26.74
-26.83
-25.89
-24.65
-23.06
-20.53
-16.99
-12.48
-8.02
-4.41
-2.84
-3.48
-6.26
-10.03
-13.07
-14.04
-11.83
-6.89
-0.36
5.58
9.51
10.47
8.94
5.64
1.47
-3.30
-8.65
-14.56
-20.46
-25.36
-28.16
-28.56
-26.77
-23.91
-20.80
-18.07
-15.71
-13.24
-10.46
-7.15
-3.69
-0.11
3.41
7.50
12.40
18.54
25.65
32.92
39.43
44.05
46.56
46.81
45.57
43.24
40.43
37.09
33.23
28.41
22.40
15.33
7.25
-1.17
-9.33
-16.32
-21.63
-25.03
-26.76
-27.43
-27.43
-27.11
-26.38
-25.08
-23.09
-20.55
-18.00
-15.91
-14.89
-14.71
-15.13
-15.45
-15.22
-14.57
-13.84
-13.66
-14.13
-14.75
-14.37
-11.93
-7.20
-1.01
4.63
8.04
8.29
6.08
3.07
1.16
1.32
3.36
6.28
8.65
10.10
10.63
11.20
12.42
14.60
17.46
20.28
22.55
23.63
23.41
21.43
17.55
11.76
4.57
-2.79
-8.69
-11.66
-10.97
-7.17
-1.41
4.30
8.52
9.76
7.62
2.16
-5.76
-14.60
-22.78
-28.64
-31.56
-31.46
-29.40
-26.19
-22.70
-18.78
-14.17
-8.52
-1.74
5.80
13.65
21.04
27.61
32.68
35.92
37.18
36.52
34.36
30.81
26.00
20.08
13.34
6.80
1.42
-1.65
-2.46
-1.27
0.73
2.96
5.11
7.26
9.76
12.22
14.13
14.40
12.60
8.31
2.14
-5.18
-12.32
-18.01
-21.12
-21.09
-18.53
-14.66
-11.28
-9.63
-9.95
-12.10
-15.53
-20.14
-25.99
-32.80
-39.70
-45.00
-47.44
-46.43
-43.13
-39.05
-35.85
-33.63
-31.47
-28.07
-22.51
-15.37
-7.83
-1.49
3.19
6.25
8.72
11.20
14.25
17.96
22.49
28.10
35.02
43.27
51.99
59.86
65.45
67.79
66.59
62.14
54.75
44.82
32.67
19.55
7.07
-2.66
-8.70
-11.13
-11.81
-12.88
-15.58
-19.86
-23.93
-26.04
-24.99
-21.45
-16.80
-12.93
-10.39
-8.85
-7.06
-3.93
0.64
5.96
10.71
13.87
14.68
13.46
10.80
7.76
5.05
3.16
1.98
1.18
0.02
-1.72
-4.18
-6.69
-8.90
-10.26
-11.25
-12.81
-15.71
-20.49
-26.29
-31.78
-35.17
-35.79
-33.61
-29.82
-25.17
-20.04
-13.94
-6.00
3.88
15.14
25.96
34.94
40.86
43.89
44.52
43.68
41.89
39.35
36.04
32.02
27.34
22.35
17.15
12.29
7.88
4.68
2.75
2.05
1.93
1.55
0.29
-2.11
-4.97
-7.78
-9.69
-10.87
-11.49
-12.38
-13.97
-16.43
-19.38
-22.01
-23.65
-23.68
-22.30
-19.88
-17.14
-14.81
-13.27
-12.85
-13.27
-14.40
-15.78
-17.10
-18.26
-19.03
-19.75
-20.37
-21.23
-22.11
-23.15
-23.88
-23.86
-22.30
-18.26
-11.29
-1.32
10.41
22.32
32.25
38.92
41.94
41.78
39.35
35.12
29.27
21.63
12.29
2.18
-7.60
-15.47
-20.87
-23.41
-23.77
-22.18
-19.02
-14.15
-7.62
0.07
8.12
15.06
20.15
22.81
23.54
22.84
21.68
20.49
19.36
17.93
15.55
11.73
6.35
-0.24
-6.96
-12.83
-16.70
-18.43
-18.28
-17.08
-15.89
-15.24
-15.52
-16.35
-17.29
-17.45
-16.47
-14.08
-10.95
-7.72
-5.26
-3.69
-2.40
-0.53
2.77
7.42
12.81
17.89
21.77
24.12
24.94
24.50
22.77
19.73
15.25
9.48
3.05
-3.54
-9.22
-13.61
-16.21
-17.24
-17.04
-16.07
-14.63
-12.81
-10.56
-7.89
-5.14
-2.60
-0.80
0.08
0.22
-0.25
-1.03
-2.17
-3.49
-5.08
-6.99
-8.98
-11.04
-12.50
-13.16
-12.44
-10.80
-8.69
-7.00
-6.17
-5.61
-4.57
-1.83
2.74
8.59
14.00
17.51
18.12
16.36
13.53
11.43
11.36
13.55
17.38
21.59
24.76
26.47
26.64
26.20
25.28
23.95
21.06
15.61
7.58
-2.18
-11.39
-18.30
-21.63
-22.09
-20.86
-19.42
-18.07
-15.98
-12.05
-5.40
3.30
12.69
20.72
26.40
29.30
30.12
29.42
27.56
24.34
19.40
12.76
4.90
-3.16
-10.31
-16.07
-19.95
-22.52
-23.90
-24.75
-25.27
-25.46
-25.44
-25.00
-24.44
-23.72
-23.25
-22.75
-22.04
-20.14
-16.41
-10.55
-2.89
5.44
13.26
19.35
23.45
25.46
25.88
24.88
22.54
18.64
13.16
6.71
0.19
-5.19
-8.55
-9.92
-9.60
-8.74
-7.88
-7.61
-7.73
-7.81
-7.41
-6.18
-4.32
-2.10
-0.32
0.59
-0.02
-1.81
-4.28
-6.08
-6.13
-3.59
1.59
8.56
16.25
23.37
29.09
32.82
34.55
34.40
32.42
28.50
22.65
15.03
6.57
-1.62
-8.01
-11.83
-12.64
-11.19
-8.32
-5.22
-2.65
-1.10
-0.79
-1.74
-3.97
-7.17
-11.15
-15.38
-19.63
-23.46
-26.55
-28.45
-28.53
-26.80
-23.58
-19.61
-15.65
-11.95
-8.34
-4.29
0.45
5.72
10.79
14.94
17.68
19.00
19.18
18.40
16.71
13.95
10.29
6.05
1.97
-1.32
-3.68
-5.23
-6.65
-8.28
-10.44
-13.02
-15.42
-16.97
-16.63
-13.88
-8.42
-1.25
5.88
10.88
12.40
10.62
7.28
4.96
5.45
9.16
14.58
19.49
22.19
22.31
20.84
19.01
17.57
15.98
13.41
9.15
3.25
-3.08
-8.92
-13.24
-16.16
-17.61
-17.77
-16.37
-13.21
-8.45
-2.85
2.42
6.48
8.89
10.09
10.64
11.04
11.31
11.13
10.35
8.82
6.89
4.64
2.14
-0.83
-4.55
-8.87
-13.61
-17.93
-21.50
-23.81
-24.97
-25.26
-24.99
-24.23
-22.74
-20.28
-16.65
-12.13
-7.11
-2.20
2.10
5.55
8.16
10.28
12.03
13.60
14.78
15.47
15.50
14.94
14.01
12.63
11.03
8.78
5.82
1.97
-2.55
-7.34
-11.76
-15.17
-17.56
-18.92
-19.66
-19.86
-19.44
-18.11
-15.58
-11.89
-7.38
-2.78
1.31
4.37
6.38
7.50
8.14
8.48
8.45
7.91
6.45
4.11
0.87
-2.70
-6.13
-8.76
-10.00
-9.80
-8.33
-6.13
-3.60
-0.95
1.78
4.74
7.62
10.11
11.72
12.53
13.21
14.89
18.46
24.05
30.73
36.79
40.82
42.08
41.02
38.68
35.91
32.94
29.26
24.28
17.57
9.60
1.14
-6.82
-13.41
-18.41
-21.82
-24.02
-25.38
-26.56
-28.17
-30.58
-33.66
-36.33
-37.25
-35.01
-29.27
-20.74
-11.01
-1.87
5.43
10.06
11.94
11.05
7.86
3.28
-1.55
-4.88
-5.81
-3.83
0.08
4.91
9.25
12.82
15.52
17.52
18.76
18.78
17.33
14.30
10.36
6.18
2.51
-0.47
-3.06
-5.55
-8.53
-11.80
-15.07
-17.58
-18.88
-19.07
-18.35
-17.57
-16.71
-15.82
-14.19
-11.55
-8.03
-4.37
-1.57
-0.00
0.25
0.22
0.47
1.64
3.33
5.12
6.38
7.03
7.08
6.46
5.06
2.58
-0.85
-4.68
-8.31
-10.66
-11.68
-11.13
-9.82
-8.06
-6.64
-6.05
-6.38
-7.76
-9.57
-11.31
-12.07
-11.66
-9.93
-7.51
-4.81
-1.94
1.29
5.33
10.07
15.15
19.47
22.19
22.92
21.80
19.60
16.71
13.55
9.66
4.52
-2.03
-9.80
-17.42
-23.71
-27.27
-28.00
-26.01
-22.33
-17.81
-12.87
-7.91
-2.92
1.59
5.39
7.79
9.03
9.53
10.48
12.78
16.77
22.09
27.60
32.39
35.89
37.91
38.91
39.00
38.62
37.28
35.11
31.66
27.18
22.01
16.55
11.45
6.72
2.67
-1.07
-4.47
-8.05
-11.99
-16.36
-20.72
-23.99
-25.08
-22.88
-17.40
-9.46
-0.90
6.39
11.12
12.88
12.57
10.96
8.96
6.69
4.17
1.65
-0.46
-1.05
0.13
3.05
6.43
9.13
9.82
7.92
3.47
-3.19
-11.43
-20.68
-29.97
-38.39
-44.86
-48.76
-50.03
-48.91
-46.03
-41.59
-35.73
-28.62
-20.56
-12.48
-5.07
0.82
5.36
8.78
12.09
15.70
20.13
25.07
29.90
33.97
36.42
37.14
35.91
33.20
29.18
24.41
19.06
13.36
7.22
0.12
-8.26
-18.27
-29.54
-41.10
-51.53
-59.33
-63.65
-64.25
-61.61
-56.30
-48.64
-38.97
-27.39
-14.88
-2.64
7.29
13.54
15.41
13.82
10.71
8.39
8.83
12.22
17.71
23.03
26.41
26.61
24.30
21.04
18.81
19.14
21.91
26.16
29.94
32.02
31.47
28.49
23.49
16.86
8.98
0.13
-8.99
-17.03
-22.74
-24.86
-23.55
-19.66
-15.13
-11.52
-9.92
-10.20
-11.57
-12.99
-13.54
-13.24
-12.18
-11.16
-10.48
-10.64
-11.27
-11.96
-12.27
-11.79
-10.73
-9.26
-7.87
-6.50
-4.76
-1.92
2.69
8.86
15.74
21.69
25.52
26.89
26.74
26.66
27.79
30.57
33.88
36.36
36.58
34.36
30.02
24.41
18.33
12.17
6.33
1.26
-2.15
-3.29
-2.11
0.53
2.93
3.78
2.23
-1.11
-4.81
-7.52
-8.26
-7.37
-5.60
-4.10
-3.27
-3.37
-3.90
-4.83
-5.97
-7.55
-9.78
-12.53
-15.49
-18.05
-19.99
-21.10
-21.57
-21.86
-22.19
-22.47
-22.37
-21.51
-19.82
-17.56
-15.37
-13.38
-11.71
-9.58
-6.63
-2.53
2.38
7.52
12.34
16.64
20.80
24.93
29.27
33.17
36.16
37.59
37.73
36.96
35.95
34.58
32.10
27.54
20.14
10.25
-0.45
-9.98
-16.46
-19.44
-19.47
-18.13
-16.44
-14.86
-13.06
-10.53
-7.50
-4.55
-2.95
-3.21
-5.45
-8.64
-12.00
-14.59
-15.96
-15.93
-14.28
-11.11
-6.64
-1.74
2.60
5.30
6.11
5.53
4.33
3.37
2.73
1.86
0.01
-3.39
-7.89
-12.85
-17.05
-19.81
-20.28
-18.13
-12.78
-4.32
6.64
18.54
29.40
37.44
41.66
42.52
40.91
38.28
35.16
31.72
27.57
22.42
16.33
9.75
3.12
-3.14
-8.94
-13.82
-17.65
-19.92
-20.66
-19.89
-18.13
-15.95
-13.79
-12.00
-10.54
-9.72
-9.41
-10.05
-11.54
-14.02
-17.17
-20.64
-23.89
-26.19
-27.13
-25.84
-22.24
-16.33
-9.02
-1.81
3.91
7.16
8.18
8.02
8.23
9.85
13.12
17.35
21.11
23.42
23.33
21.05
16.81
11.47
5.49
-0.64
-6.66
-12.43
-17.65
-22.26
-25.94
-28.55
-30.07
-30.42
-30.11
-28.89
-27.10
-24.31
-20.45
-15.70
-10.39
-5.56
-1.91
-0.09
0.30
-0.18
-0.16
1.15
4.45
9.44
15.31
21.28
26.20
29.76
31.61
31.74
30.30
27.61
24.18
20.11
15.41
9.44
1.73
-7.67
-18.07
-27.57
-34.51
-37.34
-36.15
-31.71
-25.71
-19.36
-12.95
-6.32
1.27
9.67
18.50
26.55
33.42
38.98
43.96
48.75
52.92
55.66
55.36
51.45
44.35
35.76
27.74
21.74
18.14
15.75
13.26
9.23
3.16
-4.46
-12.93
-21.18
-28.83
-35.29
-40.68
-44.61
-47.03
-47.92
-47.43
-46.30
-44.93
-44.11
-43.65
-43.38
-42.17
-39.21
-33.65
-25.19
-14.63
-2.91
8.17
17.66
24.74
29.73
32.73
34.09
33.58
30.99
26.62
21.26
16.31
12.81
11.03
10.33
9.51
7.85
4.77
0.66
-4.02
-8.80
-13.11
-16.68
-18.80
-19.31
-17.78
-14.68
-10.20
-5.07
0.27
5.51
9.96
13.28
14.73
14.28
11.86
8.29
4.10
0.22
-3.08
-5.67
-7.59
-9.26
-10.73
-12.27
-13.61
-14.76
-15.45
-15.52
-15.04
-13.75
-11.67
-8.80
-5.15
-1.21
2.63
5.49
6.99
6.62
4.90
2.30
-0.46
-2.72
-4.53
-5.96
-7.45
-9.01
-10.72
-12.12
-13.17
-13.37
-12.52
-10.17
-5.79
0.78
9.44
19.23
28.96
37.40
43.80
48.05
50.00
49.73
47.03
41.92
34.85
26.92
19.48
13.60
9.77
7.55
6.28
5.22
3.94
2.68
1.59
1.05
0.81
0.74
0.14
-1.03
-2.75
-4.69
-6.44
-8.03
-9.66
-11.94
-14.88
-18.00
-20.08
-19.95
-17.16
-12.26
-6.64
-1.68
1.82
4.18
6.13
8.37
10.92
13.10
14.15
13.28
10.57
6.32
1.16
-4.28
-9.71
-14.63
-19.09
-22.66
-25.48
-27.28
-27.94
-27.19
-24.77
-20.71
-15.31
-9.18
-2.85
3.10
8.65
13.69
18.27
22.06
24.75
26.05
25.86
24.12
20.91
16.14
10.13
3.14
-3.83
-10.01
-14.21
-16.05
-15.24
-12.26
-7.82
-2.84
1.71
5.07
6.68
6.61
5.19
3.13
1.09
-0.46
-1.35
-1.73
-1.73
-1.64
-1.55
-1.74
-2.26
-3.22
-4.62
-6.48
-8.69
-11.23
-13.90
-16.53
-18.72
-20.21
-20.66
-20.10
-18.67
-16.96
-15.49
-14.69
-14.47
-14.23
-13.18
-10.60
-6.49
-1.37
3.78
8.00
10.76
12.05
12.35
11.94
11.23
9.88
7.74
4.39
0.00
-5.22
-11.01
-17.24
-24.10
-31.14
-37.55
-41.53
-41.00
-34.84
-23.41
-9.07
4.92
15.49
21.37
23.20
23.20
23.77
26.35
31.15
36.88
42.35
46.13
47.77
47.14
44.46
40.22
34.27
26.85
17.68
7.30
-3.35
-12.87
-19.88
-24.04
-25.85
-27.10
-28.97
-31.94
-34.66
-34.85
-30.43
-20.84
-7.56
6.65
18.68
26.95
31.30
33.04
33.69
34.20
34.80
34.39
32.17
27.01
19.03
9.03
-1.43
-10.49
-17.20
-20.96
-22.62
-23.18
-23.73
-24.59
-25.40
-25.37
-23.76
-20.37
-15.33
-9.40
-3.20
2.55
7.38
11.06
13.44
14.80
15.00
14.03
11.57
7.44
2.02
-4.15
-9.65
-13.69
-15.54
-15.70
-14.76
-13.64
-12.31
-10.26
-6.66
-1.05
5.95
13.21
19.18
23.09
25.05
25.89
26.61
27.42
27.99
27.21
24.36
19.23
12.53
5.48
-0.81
-5.53
-8.78
-10.83
-12.39
-14.00
-15.68
-17.45
-18.74
-19.36
-18.89
-17.69
-15.92
-14.37
-13.28
-12.77
-12.56
-11.99
-10.73
-8.68
-6.36
-4.51
-3.85
-4.61
-6.42
-8.63
-10.35
-11.22
-11.02
-9.95
-8.11
-5.60
-2.59
0.84
4.17
7.18
9.63
11.59
13.19
14.50
15.40
15.50
14.63
12.68
10.05
7.27
4.98
3.79
3.67
4.57
5.83
7.03
7.52
7.34
6.49
5.59
4.96
4.79
4.82
4.53
3.26
0.86
-2.62
-6.51
-10.38
-13.66
-16.57
-19.13
-21.85
-24.61
-27.43
-29.86
-31.63
-32.65
-32.72
-31.65
-29.02
-24.40
-17.66
-9.25
-0.51
7.22
12.57
15.76
17.53
19.69
23.32
28.88
35.54
41.93
46.59
48.60
47.56
43.59
36.95
28.23
17.85
6.99
-3.42
-11.95
-18.25
-22.08
-24.29
-25.44
-25.97
-26.05
-25.24
-23.58
-20.98
-17.93
-14.87
-12.04
-9.66
-7.52
-5.92
-4.65
-4.14
-4.11
-4.60
-5.23
-5.91
-6.64
-7.50
-8.50
-9.50
-10.43
-11.36
-12.30
-13.53
-14.95
-16.39
-17.17
-17.15
-16.31
-15.31
-14.61
-14.18
-13.62
-12.00
-8.98
-4.66
0.09
4.46
8.05
11.23
14.94
19.76
26.13
33.34
40.71
47.12
52.01
55.18
56.42
55.79
53.30
49.23
43.80
37.48
30.77
24.38
18.93
14.83
11.96
9.61
6.76
2.66
-2.89
-9.06
-14.75
-18.68
-20.50
-20.17
-18.64
-16.52
-14.72
-13.55
-13.22
-13.83
-15.11
-16.91
-18.66
-20.19
-21.38
-22.18
-23.11
-24.08
-25.26
-26.06
-26.32
-25.53
-23.87
-21.61
-19.16
-16.97
-15.06
-13.38
-11.74
-10.22
-9.06
-8.49
-8.34
-7.76
-5.87
-1.74
4.50
11.92
19.04
24.50
27.57
27.84
25.44
20.06
11.89
1.23
-10.76
-22.03
-30.81
-35.48
-35.99
-32.99
-28.15
-22.69
-17.44
-12.45
-7.10
-0.72
7.31
16.69
26.99
36.95
45.40
51.27
54.03
53.80
50.87
46.04
40.21
34.41
29.39
25.51
22.50
19.63
16.40
12.56
8.79
5.92
4.55
4.80
5.92
7.24
8.09
8.67
9.25
10.45
12.17
14.03
15.07
14.59
12.37
8.50
3.76
-1.13
-5.62
-9.35
-12.54
-15.13
-17.51
-19.52
-21.52
-23.52
-25.98
-28.81
-31.73
-34.07
-34.85
-33.63
-30.44
-26.20
-22.09
-19.19
-17.94
-17.89
-18.15
-17.32
-14.80
-10.37
-4.66
1.33
6.60
10.48
12.86
13.62
12.91
10.39
6.28
1.12
-3.94
-7.35
-8.51
-7.35
-5.34
-3.88
-4.43
-7.10
-11.32
-16.14
-20.57
-24.39
-27.17
-28.95
-29.27
-27.90
-24.89
-20.81
-16.63
-12.99
-10.41
-8.68
-7.29
-5.43
-2.38
2.28
8.70
16.27
24.42
32.03
38.44
43.25
46.50
48.63
49.67
49.70
48.11
44.68
39.24
32.71
26.20
21.02
17.82
16.39
16.04
15.69
14.62
12.83
10.48
8.20
6.13
4.29
2.08
-0.66
-4.27
-8.25
-12.17
-15.25
-17.11
-17.63
-17.13
-15.99
-14.66
-13.22
-11.90
-10.64
-9.73
-9.14
-9.13
-9.47
-10.37
-11.65
-13.61
-16.12
-19.00
-21.60
-23.24
-23.35
-22.02
-19.83
-17.63
-15.95
-14.87
-13.71
-11.98
-9.26
-5.84
-2.20
1.13
3.85
6.06
8.05
10.08
12.11
13.90
15.07
15.46
15.34
15.15
15.47
16.36
17.61
18.55
18.66
17.75
15.94
13.57
10.58
6.79
1.45
-5.44
-13.58
-21.66
-28.02
-31.54
-31.73
-29.36
-25.65
-22.11
-19.70
-18.65
-18.36
-17.64
-15.27
-10.31
-2.90
6.17
15.41
23.50
29.71
34.02
36.83
38.38
38.72
37.49
34.62
30.46
25.86
21.86
18.95
17.12
15.54
13.38
9.93
4.93
-1.17
-7.93
-14.60
-20.94
-26.65
-32.00
-36.81
-40.88
-43.76
-44.83
-43.94
-41.13
-36.77
-31.11
-24.22
-15.95
-6.49
3.43
12.62
19.64
23.79
25.02
24.29
22.77
21.39
20.49
19.66
18.46
16.27
13.00
8.72
3.77
-1.31
-6.26
-10.49
-13.99
-16.33
-17.69
-17.92
-17.20
-15.69
-13.50
-10.69
-6.93
-2.16
3.87
10.54
17.09
22.23
24.75
23.96
19.39
11.57
1.28
-10.19
-21.37
-31.18
-38.56
-43.32
-45.06
-44.14
-40.62
-35.05
-27.87
-19.88
-11.76
-3.92
3.53
11.03
18.64
26.37
33.57
39.45
43.43
45.26
45.31
43.64
40.61
36.14
30.85
25.56
21.55
19.91
20.76
23.56
26.71
28.75
28.90
27.14
24.34
21.22
18.54
15.99
13.20
9.16
3.57
-3.66
-11.87
-20.00
-27.13
-32.45
-35.94
-37.92
-39.04
-39.82
-40.36
-40.31
-39.02
-36.19
-31.58
-25.92
-19.95
-14.53
-10.12
-6.69
-3.95
-1.49
0.65
2.17
2.60
2.04
1.30
1.58
4.15
9.17
15.97
22.73
27.91
30.54
30.50
28.54
25.19
20.99
15.55
9.04
1.49
-6.05
-12.49
-16.96
-19.12
-19.65
-19.28
-18.90
-18.80
-18.97
-19.05
-18.65
-17.56
-15.26
-11.72
-6.66
-0.71
5.72
11.71
16.55
19.79
21.15
20.99
19.61
17.87
16.35
15.59
15.43
15.24
14.45
12.42
9.59
6.62
4.44
3.58
3.64
4.10
4.19
4.04
3.81
4.15
4.73
5.14
4.57
2.60
-0.34
-3.62
-6.09
-7.60
-8.33
-9.03
-10.60
-13.11
-16.48
-19.82
-22.85
-25.04
-26.73
-28.08
-29.38
-30.89
-32.50
-34.33
-36.19
-37.99
-39.31
-39.44
-37.53
-32.65
-24.82
-14.39
-3.03
7.81
16.80
23.43
27.85
30.42
31.54
30.92
28.71
25.04
21.05
18.18
17.61
19.78
23.75
28.11
31.17
32.23
31.35
29.31
27.24
25.57
24.58
23.87
23.34
22.64
22.06
21.48
20.85
19.88
18.14
15.72
12.73
9.55
6.61
3.88
1.35
-1.32
-4.08
-6.99
-9.51
-11.59
-12.93
-13.89
-14.69
-15.56
-16.53
-17.14
-17.05
-15.97
-14.07
-12.02
-10.45
-10.25
-11.54
-14.35
-17.81
-21.53
-24.74
-27.46
-29.62
-31.35
-32.70
-33.40
-33.19
-31.91
-29.69
-27.13
-24.80
-23.55
-23.34
-24.02
-24.72
-25.09
-24.73
-23.85
-22.70
-21.12
-19.03
-15.89
-11.65
-6.30
-0.35
5.89
12.27
18.89
26.06
33.53
40.94
47.29
51.76
53.82
53.55
51.70
48.87
45.68
41.96
37.46
31.61
24.47
16.69
9.28
3.36
-0.68
-3.05
-4.67
-6.54
-9.12
-12.48
-15.92
-19.08
-21.79
-24.59
-27.89
-31.97
-36.07
-39.16
-39.99
-37.92
-33.27
-27.07
-20.52
-14.66
-9.66
-5.49
-1.66
1.71
4.45
5.90
5.93
4.62
2.81
1.30
0.80
1.57
3.14
4.92
6.35
7.26
8.11
9.17
10.78
12.36
13.28
12.88
11.49
9.82
9.30
10.91
14.79
20.39
26.33
31.60
35.36
37.49
37.86
36.27
32.59
26.64
19.20
11.33
4.55
-0.41
-3.21
-4.42
-4.79
-4.89
-5.05
-4.94
-4.15
-2.25
1.07
5.53
10.86
16.19
20.83
23.77
24.73
23.50
20.59
16.56
11.93
7.18
2.39
-2.12
-6.24
-9.54
-11.72
-12.47
-11.49
-9.23
-6.34
-4.06
-3.23
-4.42
-7.02
-10.27
-13.03
-14.89
-16.13
-17.57
-19.94
-23.46
-27.40
-30.77
-32.36
-31.78
-29.07
-25.08
-20.52
-16.30
-12.69
-10.09
-8.48
-7.76
-7.87
-8.64
-9.87
-11.44
-12.98
-14.23
-14.52
-13.55
-10.96
-7.05
-2.15
2.96
8.02
12.82
17.78
23.21
29.26
35.53
41.22
45.23
46.89
45.78
42.37
37.09
30.64
22.85
13.56
2.12
-11.26
-25.78
-39.79
-51.25
-58.83
-62.03
-61.61
-58.76
-54.53
-49.17
-42.22
-33.25
-22.43
-11.34
-1.79
4.31
6.59
6.01
4.56
4.08
5.16
7.16
8.75
9.02
7.92
6.42
5.73
6.57
9.18
12.92
17.25
21.47
25.07
27.68
28.92
28.96
27.93
26.34
24.13
21.22
16.89
11.07
4.02
-3.01
-8.50
-11.68
-12.20
-10.89
-8.77
-6.46
-4.20
-1.46
1.92
5.88
9.61
12.51
13.91
14.16
13.69
13.29
13.35
13.93
14.75
15.61
16.31
17.03
17.74
18.56
19.23
19.70
19.64
19.16
18.11
16.78
15.11
13.33
11.54
9.64
7.61
5.29
2.57
-0.39
-3.52
-6.35
-8.78
-10.49
-11.81
-12.84
-14.37
-16.70
-20.20
-24.38
-28.39
-31.11
-31.61
-29.80
-26.23
-22.12
-18.60
-16.19
-15.17
-14.95
-15.41
-15.97
-16.49
-16.22
-14.63
-11.32
-6.49
-1.26
2.95
4.84
4.06
1.12
-2.83
-6.70
-9.98
-12.30
-14.03
-14.92
-14.99
-14.07
-12.27
-9.83
-7.02
-4.24
-1.46
1.12
3.93
7.02
10.79
15.40
20.64
26.25
31.37
35.45
37.92
38.66
37.98
36.10
33.45
29.80
25.05
18.71
11.11
2.82
-4.69
-10.13
-12.58
-11.84
-8.99
-5.16
-1.47
1.51
4.07
6.39
8.67
10.27
10.75
9.25
5.97
1.17
-4.22
-9.71
-14.85
-19.43
-23.58
-27.15
-30.03
-31.96
-32.66
-31.93
-29.33
-25.08
-19.06
-12.19
-5.11
0.78
4.67
5.90
4.75
2.49
0.33
-0.46
0.34
2.06
3.47
3.36
1.72
-1.12
-3.57
-4.86
-4.20
-2.16
0.66
3.22
4.93
5.68
5.25
3.91
1.51
-1.51
-5.01
-8.53
-11.04
-11.90
-10.04
-5.57
1.06
7.89
13.04
14.77
13.00
9.35
6.26
6.20
9.91
16.59
24.22
30.52
34.37
35.25
33.92
30.66
26.17
20.47
14.20
7.81
2.08
-2.47
-5.88
-8.36
-10.44
-12.33
-14.23
-16.25
-18.30
-20.69
-23.08
-25.46
-27.09
-27.88
-27.74
-27.27
-26.92
-26.90
-26.83
-25.86
-23.11
-18.30
-11.60
-4.02
3.56
9.98
14.79
17.37
17.91
16.46
13.85
10.82
8.35
6.90
6.38
6.11
5.47
4.00
1.93
-0.39
-2.29
-3.72
-4.57
-5.32
-6.03
-6.94
-7.74
-8.27
-8.16
-7.30
-5.69
-3.69
-1.58
0.13
1.35
1.84
1.83
1.23
0.31
-1.00
-2.38
-3.86
-5.01
-5.77
-5.87
-5.30
-4.07
-2.38
-0.35
1.58
3.28
4.33
4.82
4.59
3.78
2.12
-0.40
-4.05
-8.47
-13.18
-17.23
-19.72
-20.15
-18.50
-15.22
-11.01
-6.44
-1.97
2.36
6.14
9.24
11.20
12.07
11.73
10.55
9.03
7.60
6.96
7.33
8.86
11.06
13.33
14.98
15.52
14.91
13.04
10.17
6.19
1.30
-4.15
-9.39
-13.23
-14.72
-13.17
-8.92
-2.60
4.55
11.54
17.24
20.97
22.43
21.71
19.56
16.65
13.86
11.44
9.22
7.10
4.76
2.68
1.09
0.61
0.97
1.88
2.35
1.77
0.17
-2.23
-4.38
-5.80
-6.13
-5.79
-5.31
-4.93
-5.01
-5.43
-6.70
-8.98
-12.58
-16.74
-20.19
-21.26
-18.97
-13.88
-7.51
-2.32
0.40
0.67
-0.26
-0.72
-0.27
0.54
-0.04
-3.00
-8.20
-13.49
-16.14
-13.96
-6.38
4.56
16.07
24.79
29.45
30.21
28.90
27.76
27.78
28.93
29.71
28.93
25.77
20.87
15.24
10.16
6.26
3.26
0.86
-1.64
-4.22
-6.58
-8.16
-8.39
-7.27
-4.88
-1.90
1.24
3.86
5.82
6.90
7.32
7.30
6.93
6.43
5.52
4.19
2.45
0.45
-1.23
-2.21
-2.09
-1.15
0.22
1.17
1.40
0.57
-0.89
-2.68
-4.41
-6.01
-7.59
-9.39
-11.32
-13.32
-14.92
-15.97
-16.21
-15.83
-14.86
-13.64
-12.04
-10.28
-8.30
-6.42
-4.87
-4.06
-4.17
-5.28
-7.04
-9.11
-10.88
-12.10
-12.42
-11.97
-10.70
-9.03
-7.13
-5.61
-4.64
-4.50
-4.91
-5.50
-5.70
-5.28
-4.13
-2.72
-1.29
-0.27
0.46
0.94
1.63
2.56
3.88
5.18
6.25
6.59
6.12
4.88
3.28
1.86
1.27
1.63
3.02
4.83
6.73
8.30
9.64
10.97
12.56
14.45
16.22
17.39
17.54
16.96
16.00
15.27
14.62
13.27
10.11
4.42
-3.30
-11.63
-18.57
-22.67
-23.61
-22.32
-20.18
-18.21
-16.68
-14.96
-12.60
-9.43
-6.08
-3.45
-2.20
-2.38
-3.45
-4.55
-4.97
-4.39
-3.17
-1.67
-0.55
0.22
0.57
1.10
1.80
2.83
3.69
4.17
3.98
3.35
2.58
2.03
1.66
1.23
0.19
-1.68
-4.60
-8.07
-11.81
-15.24
-18.47
-21.60
-25.11
-28.91
-32.85
-36.11
-37.96
-37.84
-35.65
-31.84
-27.13
-22.02
-16.91
-11.54
-6.04
-0.39
4.74
8.98
11.92
13.81
15.27
17.11
20.03
24.25
29.61
35.20
39.87
42.64
42.68
40.22
35.74
30.37
24.82
19.77
15.36
12.08
10.34
10.86
14.22
20.10
27.84
35.87
42.90
47.72
49.57
48.31
44.34
38.54
31.80
24.94
18.07
11.00
3.75
-3.41
-9.10
-12.16
-11.69
-8.40
-3.70
0.54
3.25
4.30
4.22
3.67
2.62
0.69
-2.56
-7.07
-12.19
-17.27
-21.58
-25.39
-28.77
-32.14
-35.00
-36.64
-36.03
-32.95
-27.60
-21.01
-14.37
-8.56
-3.91
-0.33
2.67
5.12
7.10
8.02
7.71
5.71
2.34
-2.13
-6.79
-11.00
-14.07
-15.67
-15.88
-15.09
-13.70
-12.23
-10.70
-9.21
-7.52
-5.98
-4.79
-4.70
-5.76
-7.88
-10.11
-11.68
-11.86
-10.56
-8.28
-5.80
-3.67
-2.30
-1.37
-0.61
0.67
2.36
4.50
6.24
7.17
6.78
5.38
3.37
1.49
0.12
-0.98
-2.33
-4.45
-7.63
-11.27
-14.74
-17.06
-18.36
-18.77
-19.30
-20.19
-21.36
-22.23
-22.20
-21.30
-20.04
-19.47
-20.24
-22.43
-25.11
-26.87
-26.35
-22.67
-16.03
-7.05
2.91
12.83
21.76
29.26
35.13
39.31
41.81
42.30
40.64
37.03
32.52
28.69
27.09
28.85
33.30
39.33
44.86
48.75
50.61
51.04
50.86
50.32
48.91
45.25
38.30
27.61
13.98
-0.89
-15.06
-26.90
-35.80
-41.87
-45.93
-48.41
-49.37
-48.25
-44.41
-37.79
-29.04
-19.68
-11.19
-4.71
-0.33
2.50
4.66
7.07
9.67
12.23
13.74
13.68
11.49
7.68
3.00
-1.47
-4.59
-5.99
-5.55
-3.76
-0.89
2.83
7.25
11.90
15.80
17.86
17.14
13.86
9.02
4.25
0.75
-1.49
-3.29
-5.95
-10.03
-15.37
-21.10
-26.49
-31.30
-35.63
-39.63
-42.80
-44.37
-43.52
-40.21
-35.13
-29.21
-23.57
-18.39
-13.82
-9.38
-5.19
-1.07
2.70
6.40
10.36
14.72
19.68
24.82
30.00
34.86
39.37
43.50
46.79
48.78
48.54
45.82
40.65
34.00
26.99
20.49
14.97
10.21
6.00
2.01
-1.49
-4.30
-6.22
-7.42
-8.36
-9.38
-10.67
-11.85
-12.60
-12.51
-11.56
-10.17
-8.60
-7.35
-5.98
-4.57
-2.78
-1.16
-0.18
-0.48
-2.20
-4.87
-7.70
-9.81
-11.00
-11.46
-11.58
-11.93
-12.40
-13.04
-13.32
-13.46
-13.29
-13.23
-13.06
-12.67
-11.52
-9.23
-5.50
-0.38
5.71
11.95
17.63
21.86
24.42
25.11
24.55
22.87
20.45
16.80
11.67
4.71
-3.56
-12.11
-19.42
-24.13
-25.71
-24.61
-21.91
-19.10
-16.98
-15.97
-15.65
-15.78
-15.89
-16.11
-16.22
-16.23
-15.73
-14.58
-12.78
-10.65
-8.64
-7.33
-6.75
-6.86
-7.04
-7.00
-6.30
-5.32
-4.36
-4.09
-4.49
-5.28
-5.51
-4.33
-1.27
3.26
8.29
12.48
15.07
15.69
15.00
13.62
12.18
10.43
7.95
4.06
-1.09
-6.74
-11.47
-13.87
-13.44
-10.56
-6.53
-2.76
0.04
1.77
3.20
4.67
6.38
7.73
8.53
8.84
9.65
11.76
15.61
20.65
25.72
29.76
32.20
33.29
33.78
34.03
34.14
33.48
31.56
27.89
22.75
16.58
10.28
4.57
-0.31
-4.09
-7.45
-10.74
-14.54
-18.86
-23.22
-27.12
-29.80
-31.23
-31.47
-31.12
-30.25
-28.85
-26.36
-22.18
-16.14
-8.36
0.29
9.19
17.34
24.23
29.52
32.79
33.89
32.42
28.63
22.73
15.82
8.97
3.51
0.33
-0.42
1.40
4.82
9.52
14.49
19.17
22.57
23.63
21.91
17.22
10.59
3.19
-3.57
-9.41
-14.81
-20.77
-27.91
-35.37
-41.60
-44.36
-42.72
-36.91
-28.62
-20.09
-12.86
-7.91
-5.12
-4.42
-5.33
-7.38
-9.24
-9.36
-6.10
1.68
13.04
26.28
38.29
46.81
50.24
48.60
42.95
34.94
26.31
18.11
11.07
5.05
-0.34
-5.51
-10.78
-15.91
-20.79
-25.15
-29.19
-32.87
-35.94
-37.69
-36.89
-32.92
-25.57
-15.85
-5.00
5.37
14.43
21.69
26.85
29.90
30.57
29.29
26.60
23.78
21.65
20.96
21.85
24.00
27.19
30.60
33.50
34.74
33.44
29.35
23.05
16.06
9.61
4.65
0.80
-2.89
-7.35
-12.79
-17.93
-21.33
-21.58
-18.84
-14.07
-9.29
-6.10
-5.43
-7.23
-10.91
-15.69
-21.00
-26.63
-32.18
-37.28
-41.47
-43.93
-44.48
-42.85
-39.58
-35.03
-30.06
-25.06
-20.62
-16.80
-13.39
-10.27
-7.19
-4.16
-1.47
0.78
2.35
3.51
4.32
5.19
6.00
6.87
7.56
8.40
9.45
11.12
13.49
16.49
19.77
22.82
25.37
27.20
28.46
29.57
30.60
31.79
32.82
33.51
33.24
31.79
28.75
24.03
17.82
10.23
1.92
-6.70
-14.84
-21.86
-27.27
-30.90
-33.33
-35.22
-37.79
-41.51
-46.48
-51.43
-55.02
-55.81
-53.40
-48.68
-43.03
-38.07
-34.12
-30.86
-27.13
-21.91
-15.33
-8.17
-1.95
2.53
5.05
6.77
8.98
12.81
18.64
25.58
32.74
38.66
42.83
45.15
46.23
46.87
47.33
47.63
46.81
44.17
39.01
31.90
23.81
16.44
10.96
7.76
6.29
5.37
4.06
2.00
-0.54
-2.74
-4.16
-4.57
-4.50
-4.39
-4.93
-6.24
-8.54
-11.59
-15.28
-19.32
-23.22
-26.70
-29.46
-31.31
-32.31
-32.37
-31.57
-29.70
-26.97
-23.47
-19.78
-16.08
-12.68
-9.30
-5.76
-1.75
2.61
6.96
10.81
13.62
15.20
15.73
15.50
15.19
15.19
15.95
17.20
18.65
19.53
19.48
18.33
16.48
14.83
14.10
15.20
18.28
23.14
29.11
35.01
39.85
42.31
41.62
37.14
29.39
19.40
9.01
0.09
-6.17
-9.39
-10.39
-10.11
-9.86
-9.97
-10.46
-10.91
-11.14
-11.46
-12.28
-14.16
-17.06
-20.56
-23.91
-26.44
-27.97
-28.43
-28.62
-28.98
-30.31
-32.60
-35.49
-38.13
-39.47
-39.06
-36.73
-33.33
-29.53
-26.08
-23.14
-20.22
-16.95
-12.65
-7.44
-1.31
5.14
11.82
18.39
24.87
31.25
37.24
42.85
48.00
52.90
57.66
62.21
65.98
67.98
67.29
63.16
55.91
46.25
35.77
25.85
17.84
12.53
9.53
8.13
6.54
3.61
-1.50
-8.16
-14.88
-20.08
-22.57
-22.66
-21.27
-19.71
-18.61
-17.78
-16.56
-13.97
-9.96
-4.58
1.26
6.95
11.30
13.62
12.98
9.24
2.80
-5.36
-13.91
-21.86
-28.46
-33.62
-37.37
-39.46
-39.94
-38.42
-35.38
-31.02
-26.34
-21.90
-18.31
-15.59
-13.28
-10.99
-8.16
-4.71
-1.07
2.15
4.14
4.61
3.39
1.14
-1.57
-3.51
-4.19
-3.19
-1.24
0.76
1.56
0.63
-1.88
-5.04
-7.68
-9.16
-9.60
-9.40
-9.41
-9.68
-10.26
-10.58
-10.74
-10.85
-11.64
-13.32
-15.70
-18.10
-19.43
-18.88
-16.06
-11.13
-4.98
1.57
7.54
12.69
16.78
20.14
22.68
24.54
25.39
25.39
24.65
23.57
22.43
21.35
20.32
19.38
18.50
18.08
18.12
18.66
18.97
18.43
16.25
12.46
7.36
1.83
-3.49
-8.33
-12.71
-17.14
-21.81
-26.58
-30.99
-34.23
-35.85
-35.49
-33.41
-29.84
-25.46
-20.58
-15.75
-11.04
-6.44
-1.61
3.76
9.87
16.55
23.34
29.42
34.07
36.43
36.35
33.95
30.10
25.60
21.41
17.85
15.06
12.70
10.39
8.00
5.22
2.23
-0.84
-3.84
-6.22
-7.59
-7.43
-6.01
-3.84
-2.05
-1.24
-1.25
-1.08
0.77
5.20
12.41
21.14
29.71
35.97
38.55
36.95
31.68
24.02
15.33
6.95
-0.59
-6.90
-12.12
-16.25
-19.31
-21.31
-22.07
-22.16
-21.77
-21.49
-21.45
-21.44
-21.19
-20.07
-18.20
-15.66
-13.36
-12.17
-12.74
-15.18
-18.52
-21.44
-21.97
-19.24
-12.71
-3.67
6.19
14.39
19.23
19.79
16.54
11.13
5.37
1.11
-0.79
-0.43
1.48
3.68
5.59
6.24
5.58
3.01
-1.34
-7.13
-13.58
-19.14
-22.85
-23.90
-22.77
-20.26
-17.69
-15.84
-14.99
-15.01
-15.05
-14.84
-13.66
-11.53
-8.19
-3.92
0.91
5.58
9.37
11.90
12.84
12.54
11.61
10.99
11.62
14.14
19.08
25.88
34.14
42.52
50.17
55.97
59.27
59.77
57.32
52.33
45.19
36.63
27.17
17.37
7.84
-0.93
-7.90
-12.46
-13.90
-12.71
-9.85
-6.85
-4.78
-4.04
-4.04
-3.63
-2.07
0.84
4.36
7.48
9.27
9.29
7.90
5.00
0.94
-4.76
-11.77
-19.75
-27.55
-34.00
-38.55
-41.10
-42.54
-43.65
-44.84
-46.06
-46.43
-45.19
-41.46
-35.37
-27.18
-18.17
-9.33
-2.11
2.72
4.53
3.67
0.97
-2.64
-6.15
-8.89
-10.67
-11.45
-11.47
-10.67
-9.35
-7.36
-4.92
-1.96
1.04
3.72
5.64
6.61
6.80
6.39
5.78
5.23
4.77
4.69
5.09
6.39
8.31
10.54
11.93
11.70
9.11
4.61
-1.02
-6.44
-10.59
-13.08
-13.97
-13.68
-12.68
-11.25
-9.85
-8.56
-7.85
-7.86
-8.69
-9.90
-11.01
-11.12
-9.76
-6.56
-1.82
3.77
9.35
14.29
18.17
21.20
23.54
25.63
27.37
28.68
29.05
28.28
26.10
22.99
19.71
17.61
17.84
21.10
27.13
34.77
42.22
48.10
51.48
52.63
52.10
50.62
48.15
44.32
38.24
29.71
18.86
6.69
-5.67
-17.07
-26.81
-34.48
-40.08
-43.53
-45.04
-44.63
-42.68
-39.50
-35.72
-31.65
-27.85
-24.39
-21.59
-19.49
-18.27
-18.01
-18.72
-20.22
-22.29
-24.42
-26.39
-27.76
-28.46
-28.15
-26.81
-24.19
-20.52
-15.86
-10.88
-6.03
-1.89
1.22
3.31
4.64
5.60
6.76
8.36
10.71
13.57
16.74
19.55
21.51
21.95
20.86
18.50
15.91
14.21
14.40
16.72
20.60
24.82
28.26
30.07
30.47
29.98
29.49
29.21
28.90
27.61
24.67
19.69
13.31
6.49
0.37
-4.31
-7.48
-9.55
-10.94
-12.02
-12.59
-12.62
-11.98
-11.20
-10.58
-10.62
-10.99
-11.40
-11.19
-10.33
-9.07
-8.04
-7.80
-8.60
-10.10
-11.90
-13.29
-14.04
-13.77
-12.53
-10.27
-7.43
-4.25
-1.52
0.26
0.81
0.04
-1.53
-3.42
-4.84
-5.42
-5.07
-4.22
-3.64
-4.12
-6.22
-9.74
-14.09
-18.23
-21.35
-23.09
-23.62
-23.49
-23.15
-22.86
-22.59
-22.00
-20.63
-17.97
-13.61
-7.46
0.12
8.45
16.43
23.33
28.78
32.78
35.84
38.08
39.69
40.01
38.72
35.39
30.58
25.13
20.47
17.58
16.87
17.89
19.59
20.81
21.05
20.25
19.20
18.46
18.51
18.95
19.12
17.78
14.28
8.19
0.19
-8.67
-16.88
-23.26
-27.36
-29.52
-30.54
-31.35
-32.18
-33.02
-33.26
-32.93
-31.91
-30.85
-29.79
-28.85
-27.51
-25.52
-22.96
-20.16
-17.81
-16.30
-15.39
-14.51
-12.58
-9.00
-3.31
4.05
12.70
21.61
30.22
37.50
42.71
44.82
43.36
38.30
30.40
20.97
11.58
3.25
-3.42
-8.81
-13.16
-17.01
-20.05
-22.09
-22.56
-21.53
-19.21
-16.29
-13.30
-10.41
-7.70
-4.99
-2.17
0.49
2.82
4.34
5.10
4.82
3.69
1.37
-1.99
-6.37
-11.01
-15.14
-17.84
-18.74
-17.97
-16.25
-14.26
-12.56
-11.04
-9.52
-7.47
-4.92
-1.85
1.21
4.09
6.38
8.18
9.42
10.29
10.90
11.28
11.55
11.72
12.06
12.89
14.79
18.23
23.09
28.69
33.25
35.21
33.31
27.92
20.42
12.87
6.93
2.99
0.56
-1.44
-3.64
-6.17
-8.79
-11.36
-13.98
-16.82
-19.78
-22.02
-22.62
-20.87
-16.82
-11.37
-5.63
-0.60
3.46
6.34
8.27
8.92
8.46
7.05
5.40
4.46
4.80
6.56
9.13
11.70
13.63
14.55
14.74
14.30
13.59
12.35
10.62
8.09
5.05
1.61
-1.76
-4.82
-7.28
-9.06
-10.02
-10.36
-10.07
-9.48
-8.62
-7.70
-6.64
-5.64
-4.68
-4.22
-4.43
-5.64
-7.65
-10.19
-12.70
-14.72
-15.91
-16.45
-16.43
-16.34
-16.14
-15.93
-15.37
-14.41
-12.92
-11.28
-9.70
-8.69
-8.26
-8.35
-8.62
-8.75
-8.39
-7.54
-6.17
-4.42
-2.01
1.04
4.88
8.99
12.86
15.62
17.19
17.89
18.74
20.86
24.63
29.87
35.52
40.55
44.17
46.19
46.70
45.65
42.75
37.49
29.81
20.17
9.77
0.00
-8.12
-14.24
-18.98
-23.15
-27.50
-31.75
-35.03
-36.23
-34.78
-31.21
-26.91
-23.68
-22.58
-23.69
-25.83
-27.40
-27.23
-24.59
-20.16
-14.74
-9.54
-5.16
-1.94
0.51
2.81
5.62
9.62
14.81
20.97
27.13
32.05
34.61
34.34
31.63
27.33
22.74
18.27
14.04
9.42
4.23
-1.46
-6.78
-10.65
-12.33
-11.24
-7.60
-1.59
6.13
14.62
22.57
28.24
30.23
28.01
22.45
15.25
8.27
2.88
-1.04
-3.99
-7.16
-10.60
-14.26
-17.30
-19.68
-21.47
-23.36
-25.98
-28.86
-31.35
-31.98
-30.24
-26.05
-20.57
-15.01
-10.51
-7.71
-6.40
-6.40
-7.18
-8.39
-9.48
-9.90
-9.26
-7.35
-4.70
-1.92
0.11
0.96
0.54
-0.75
-2.22
-3.56
-4.27
-4.61
-4.45
-4.07
-3.06
-1.30
1.14
3.76
5.39
5.21
2.68
-1.66
-6.56
-10.50
-12.37
-12.06
-10.22
-7.76
-5.20
-2.41
1.27
6.38
12.70
19.61
25.83
30.81
34.19
36.87
39.36
42.25
45.11
46.89
46.56
43.34
37.68
30.48
23.14
16.60
11.11
6.34
1.56
-3.65
-9.49
-15.76
-22.27
-28.73
-34.82
-39.97
-43.41
-44.64
-43.21
-39.82
-35.15
-30.18
-25.63
-21.45
-17.64
-13.75
-10.06
-6.60
-3.74
-1.32
0.54
1.77
2.13
1.05
-1.47
-5.08
-8.78
-11.50
-12.36
-11.23
-8.42
-4.65
-0.56
3.54
7.55
11.54
15.53
19.38
22.97
25.87
27.96
28.63
27.74
25.10
20.99
16.01
10.88
6.31
2.68
0.16
-1.40
-2.12
-2.06
-1.43
-0.06
1.71
3.80
5.85
7.95
10.00
12.41
15.36
18.94
23.15
27.56
31.84
35.57
38.66
41.07
42.62
43.02
41.30
36.81
28.97
18.19
5.64
-7.02
-18.18
-27.02
-33.31
-37.39
-39.33
-39.20
-37.10
-33.75
-30.57
-29.25
-30.90
-35.14
-40.64
-44.84
-46.20
-44.01
-39.07
-32.97
-26.95
-21.63
-16.44
-10.79
-4.30
2.38
7.85
10.71
9.95
6.14
0.59
-4.92
-9.24
-12.16
-14.30
-16.36
-18.26
-19.49
-18.69
-15.40
-9.50
-2.19
5.27
11.53
16.11
19.28
21.44
23.00
23.83
23.67
22.40
20.30
18.17
16.71
16.26
16.12
15.02
11.57
5.21
-3.48
-13.02
-21.52
-27.83
-31.46
-33.03
-33.06
-32.11
-30.24
-27.20
-23.11
-18.12
-13.08
-8.37
-4.32
-0.42
4.25
10.48
18.62
28.05
37.44
45.07
49.63
50.57
48.21
43.48
37.32
30.45
23.08
15.37
7.49
0.03
-6.14
-10.30
-12.19
-12.25
-11.38
-10.47
-9.88
-9.33
-8.29
-6.01
-2.40
2.47
7.58
11.97
14.31
13.94
10.91
6.16
1.29
-2.43
-4.27
-4.69
-4.69
-5.33
-6.97
-9.05
-10.71
-11.07
-10.06
-8.16
-6.17
-4.63
-3.67
-3.16
-2.66
-1.95
-0.47
2.00
5.79
10.98
17.11
23.53
28.76
31.50
30.31
24.95
16.07
5.66
-3.51
-8.81
-8.56
-3.15
5.44
14.12
20.33
22.87
22.28
19.92
17.04
14.10
10.59
6.06
0.44
-5.35
-10.01
-12.77
-13.38
-13.11
-13.15
-14.90
-18.40
-23.06
-27.50
-30.51
-31.36
-30.19
-27.98
-25.86
-24.68
-24.73
-25.37
-25.82
-25.05
-22.82
-19.14
-14.77
-10.23
-6.27
-2.95
-0.36
1.84
3.87
5.86
7.89
9.72
11.45
13.21
15.27
17.79
20.40
22.43
22.82
21.19
17.56
13.17
9.42
7.31
6.90
7.06
6.63
4.85
2.22
-0.15
-1.34
-1.47
-1.61
-3.05
-6.43
-10.93
-15.00
-17.02
-16.39
-13.82
-10.73
-8.53
-7.47
-7.31
-6.98
-6.17
-4.79
-3.43
-2.52
-2.19
-2.30
-2.10
-1.48
-0.15
1.60
3.35
4.81
5.65
6.14
6.39
6.93
7.88
9.26
10.67
11.73
12.38
12.51
12.42
12.05
11.40
10.23
8.39
5.80
2.47
-1.44
-5.96
-10.95
-16.24
-21.43
-26.01
-29.51
-31.59
-32.40
-31.85
-30.23
-27.19
-22.76
-16.94
-10.11
-3.03
3.84
9.81
14.93
19.22
23.14
27.08
30.81
33.94
35.23
33.90
29.39
22.52
14.61
7.42
2.31
-0.37
-0.90
-0.09
1.40
3.00
4.20
4.35
2.74
-0.97
-6.49
-12.67
-18.17
-21.85
-23.47
-23.44
-22.32
-20.74
-18.65
-16.35
-13.84
-11.79
-10.52
-10.11
-10.02
-9.29
-7.29
-3.74
0.66
5.18
8.98
11.74
13.85
15.52
16.99
17.78
17.48
15.58
12.48
8.96
6.29
5.61
7.32
11.18
16.30
21.68
26.64
30.48
32.87
33.13
31.01
26.57
20.85
15.47
12.27
12.39
15.54
20.53
25.28
28.28
28.50
26.03
21.21
14.59
6.60
-2.37
-11.52
-20.33
-27.80
-33.75
-37.93
-40.52
-41.69
-41.17
-39.13
-35.64
-31.60
-28.14
-26.26
-26.59
-28.44
-30.46
-30.47
-27.05
-19.78
-9.93
0.26
8.47
13.35
15.09
14.83
14.44
14.76
16.27
18.18
20.18
21.86
23.39
25.03
26.36
26.86
25.56
22.18
16.95
10.58
4.29
-1.34
-5.91
-9.77
-13.23
-16.62
-19.93
-22.81
-25.14
-26.46
-26.91
-26.35
-25.19
-23.30
-20.94
-17.84
-14.18
-10.30
-6.73
-4.41
-3.65
-4.51
-6.24
-7.91
-8.75
-8.52
-7.69
-6.85
-6.52
-6.60
-6.70
-6.29
-5.13
-3.45
-1.60
-0.11
1.12
2.14
3.58
5.88
9.26
13.65
18.30
22.55
25.31
26.31
25.46
23.45
21.20
19.39
18.49
18.34
18.73
19.17
19.23
18.30
15.84
11.56
5.71
-0.73
-6.51
-10.32
-11.58
-10.49
-7.80
-4.42
-0.90
2.39
5.43
7.90
9.54
10.19
10.11
10.18
11.11
13.70
17.59
22.34
26.78
29.85
30.64
28.58
23.65
16.24
7.39
-1.79
-10.11
-16.83
-21.79
-25.14
-27.47
-28.98
-29.83
-29.75
-28.58
-26.39
-23.61
-21.03
-19.00
-17.93
-17.27
-16.61
-15.29
-13.26
-11.05
-9.21
-8.53
-8.64
-9.00
-8.38
-6.21
-2.53
1.84
5.55
7.45
6.80
3.75
-1.35
-7.67
-14.53
-21.08
-26.39
-29.56
-29.71
-26.91
-21.49
-14.87
-8.39
-3.03
0.55
2.82
4.04
5.05
5.65
5.78
4.69
2.21
-1.33
-5.14
-7.91
-8.81
-7.40
-4.15
0.04
4.42
8.47
12.58
16.83
21.51
25.73
28.75
29.58
28.42
26.12
24.02
23.46
24.41
26.49
28.57
30.09
30.89
31.22
30.97
29.33
25.29
18.02
8.07
-3.00
-12.92
-19.96
-23.64
-24.61
-24.33
-23.79
-23.52
-23.00
-21.71
-19.28
-16.02
-12.64
-9.72
-7.86
-6.82
-6.50
-6.33
-6.11
-5.77
-5.02
-3.98
-2.34
-0.51
1.47
2.76
3.16
2.37
0.81
-0.95
-2.21
-2.60
-2.05
-0.92
0.50
1.77
2.89
3.54
3.75
3.14
1.74
-0.65
-3.51
-6.41
-8.77
-9.77
-9.37
-7.46
-4.72
-1.50
1.39
3.54
4.58
4.45
3.71
2.93
3.10
4.70
7.69
11.34
14.51
16.13
15.42
12.31
7.21
0.85
-6.08
-13.01
-19.47
-25.27
-30.07
-33.96
-36.67
-38.38
-38.87
-38.05
-35.98
-32.72
-28.54
-23.57
-18.02
-11.90
-5.24
1.88
9.18
15.92
21.27
24.38
24.84
22.88
19.32
15.20
11.39
8.33
5.88
3.92
2.20
1.04
0.82
1.89
4.45
8.00
12.02
15.51
18.10
19.49
20.25
21.20
23.24
26.94
32.01
37.68
42.68
46.16
47.58
47.00
44.72
41.03
36.21
30.30
23.54
15.91
7.55
-1.45
-10.77
-19.66
-27.36
-32.89
-35.96
-36.77
-36.10
-34.76
-33.17
-31.46
-29.05
-25.83
-21.39
-16.21
-10.33
-4.25
1.56
6.74
10.47
12.61
12.82
11.72
9.96
8.59
8.30
9.14
10.54
11.37
11.02
9.04
6.05
2.91
0.64
-0.03
0.88
2.96
5.20
6.76
6.67
4.56
0.47
-5.56
-12.80
-20.82
-28.57
-35.73
-41.83
-47.15
-51.69
-55.20
-57.10
-56.42
-52.52
-45.26
-35.41
-24.31
-13.14
-2.86
6.25
13.79
19.58
23.09
24.39
24.22
24.06
25.61
29.80
36.34
43.30
48.29
48.96
44.45
35.59
24.56
13.96
5.58
-0.02
-3.70
-6.78
-10.27
-14.28
-17.98
-20.32
-20.49
-18.67
-15.92
-13.80
-13.52
-15.52
-19.25
-23.41
-26.60
-27.84
-27.08
-25.19
-23.15
-21.83
-21.04
-20.31
-18.71
-16.08
-12.57
-9.03
-5.85
-3.22
-0.60
2.60
6.66
11.67
17.04
22.11
26.45
29.67
31.93
33.17
33.40
32.07
28.78
23.18
16.05
8.69
3.18
1.02
2.56
6.77
11.60
15.11
16.40
15.59
13.89
12.33
11.61
11.44
11.23
10.12
7.99
4.94
1.79
-0.63
-1.80
-1.30
0.42
2.88
5.65
8.51
11.78
15.72
20.40
25.03
28.62
29.94
28.70
25.55
22.17
20.65
22.30
27.36
34.33
40.98
44.82
44.25
38.85
29.39
17.45
4.61
-7.67
-18.65
-28.05
-36.05
-42.98
-49.04
-54.47
-59.10
-62.92
-65.63
-67.06
-67.05
-65.64
-62.95
-59.16
-54.77
-49.97
-45.18
-40.48
-35.82
-31.23
-26.38
-21.33
-16.00
-10.90
-6.34
-2.93
-0.48
1.49
4.07
8.34
14.46
22.13
30.00
36.81
41.61
43.96
44.17
42.24
38.44
32.65
25.37
17.17
9.55
3.89
1.56
3.50
9.64
19.51
31.49
44.08
55.60
64.97
71.38
74.08
72.49
65.91
54.44
39.17
22.21
6.07
-7.58
-18.10
-26.61
-34.15
-41.79
-49.04
-54.95
-58.44
-59.16
-57.66
-54.92
-51.87
-48.74
-45.50
-41.82
-37.63
-33.24
-28.85
-25.03
-21.70
-19.08
-16.94
-15.59
-14.89
-14.89
-15.26
-15.41
-14.73
-12.91
-9.92
-6.21
-2.14
1.86
5.94
10.07
14.40
18.52
22.30
25.57
28.77
32.45
36.92
41.99
46.69
50.14
51.74
51.71
50.65
49.00
46.54
42.42
35.86
26.61
15.62
4.56
-4.93
-11.89
-16.52
-19.58
-22.11
-24.60
-27.21
-29.63
-31.68
-33.49
-35.26
-37.40
-39.87
-42.67
-45.26
-47.05
-47.59
-46.23
-42.95
-37.55
-30.50
-22.05
-12.95
-3.56
5.51
14.05
21.92
28.94
35.17
40.41
44.67
47.78
49.63
50.02
48.63
45.37
40.09
33.19
25.19
16.77
8.47
0.52
-7.03
-14.53
-22.09
-29.80
-37.14
-43.34
-47.47
-48.80
-47.20
-43.02
-37.31
-30.86
-24.42
-18.09
-11.63
-4.95
1.95
8.10
12.62
14.50
13.88
11.71
9.75
9.65
12.21
17.11
23.08
28.62
32.33
33.50
31.91
27.89
22.15
15.64
9.48
4.58
1.36
-0.49
-1.85
-3.63
-6.33
-9.63
-12.92
-15.54
-17.28
-18.36
-19.10
-19.59
-19.49
-18.31
-15.59
-11.31
-5.94
-0.20
5.02
9.46
13.14
16.17
18.63
20.52
21.85
23.03
24.67
27.19
30.59
34.06
36.50
36.92
35.06
31.37
26.78
22.15
17.78
13.65
9.42
5.08
0.78
-3.08
-6.25
-8.95
-11.59
-14.90
-19.25
-24.79
-31.09
-37.28
-42.27
-45.15
-45.20
-42.42
-37.20
-30.49
-23.22
-16.48
-10.69
-6.30
-3.05
-0.87
0.67
1.62
2.25
2.35
1.97
0.88
-1.12
-4.10
-7.90
-12.06
-15.90
-18.76
-20.03
-19.72
-17.81
-14.92
-11.50
-8.39
-6.08
-4.73
-3.84
-2.33
0.93
6.74
14.61
23.03
29.67
32.47
30.65
25.06
17.88
11.46
7.35
5.42
4.47
2.86
-0.21
-4.50
-8.57
-10.95
-10.59
-7.48
-2.47
3.00
7.61
9.69
8.13
2.08
-7.69
-19.02
-28.38
-32.34
-29.11
-19.55
-7.01
4.46
11.68
13.89
12.32
9.26
6.37
4.16
2.30
0.32
-1.59
-2.78
-2.47
-0.47
2.88
6.62
9.95
12.16
12.79
11.79
9.35
5.99
2.58
-0.23
-1.83
-2.51
-2.69
-3.09
-3.82
-4.79
-5.44
-5.42
-4.65
-3.25
-1.41
0.98
3.97
7.73
12.10
16.49
20.22
22.26
22.03
19.00
13.61
6.80
0.30
-4.04
-4.99
-2.08
3.76
11.21
18.49
24.35
27.80
28.35
25.88
20.46
12.91
4.13
-4.23
-10.94
-14.90
-15.72
-13.70
-9.62
-5.12
-1.85
-1.38
-4.07
-8.60
-12.49
-12.78
-8.13
1.14
12.05
20.89
24.45
21.23
12.20
-0.18
-12.73
-23.18
-30.41
-34.93
-38.65
-44.91
-57.01
-77.03
-103.99
-132.45
-154.44
-161.50
-148.89
-117.30
-72.94
-24.84
18.59
52.05
74.67
88.58
96.95
102.06
104.21
102.77
96.45
84.82
68.09
47.64
26.07
6.86
-6.48
-11.23
-5.93
9.10
32.35
61.14
91.59
117.99
134.21
135.02
118.52
87.47
48.65
10.82
-18.35
-34.95
-39.33
-34.92
-25.85
-15.76
-7.13
-2.17
-2.55
-9.10
-20.95
-35.37
-48.68
-57.70
-61.23
-60.08
-56.33
-51.85
-47.61
-43.70
-39.23
-33.74
-27.18
-20.56
-14.67
-10.24
-6.96
-3.74
0.56
6.83
14.78
23.42
31.16
36.70
39.43
39.49
37.50
33.99
29.35
23.59
16.82
9.39
2.04
-4.34
-9.17
-12.09
-13.29
-12.90
-11.34
-9.03
-6.69
-5.30
-5.78
-8.69
-13.62
-19.49
-24.72
-28.07
-29.26
-28.50
-26.79
-24.47
-21.77
-18.19
-13.61
-7.95
-1.98
3.70
8.44
12.01
14.54
16.42
17.86
19.09
19.87
20.09
19.28
17.34
14.09
9.88
5.00
0.16
-4.32
-8.16
-11.56
-14.93
-18.73
-23.16
-28.16
-33.10
-37.46
-40.35
-41.37
-40.15
-36.91
-31.85
-25.76
-19.19
-12.71
-6.59
-0.65
5.27
11.58
18.21
25.03
31.83
38.09
43.39
46.59
46.85
43.24
36.12
26.66
17.34
10.73
8.43
10.62
15.59
21.05
24.84
26.25
25.73
24.30
22.50
19.79
15.06
7.27
-3.36
-15.41
-26.66
-35.10
-40.04
-41.73
-41.54
-40.11
-37.94
-34.65
-30.15
-24.75
-19.31
-14.82
-11.70
-9.87
-8.48
-6.95
-4.92
-2.36
0.24
2.83
5.17
7.54
9.76
11.77
12.96
13.15
12.19
10.37
8.33
6.60
5.55
5.25
5.56
6.43
7.80
9.69
11.83
13.71
14.72
14.63
13.77
13.03
13.50
15.80
19.90
24.71
28.87
30.92
30.03
26.21
20.18
13.04
5.87
-0.51
-5.89
-10.30
-14.02
-17.26
-20.03
-22.26
-23.73
-24.71
-25.60
-27.03
-29.20
-31.89
-34.11
-34.91
-33.34
-29.31
-23.58
-17.21
-11.27
-6.18
-1.69
2.80
7.87
13.17
17.78
20.44
20.41
17.86
13.92
10.12
7.41
5.86
4.47
2.11
-1.82
-6.76
-11.23
-13.83
-13.61
-11.07
-7.09
-3.02
0.73
4.04
7.51
11.21
14.98
18.34
20.44
20.90
19.65
17.17
14.06
10.92
8.22
6.04
4.30
2.89
1.78
0.97
0.54
0.63
1.01
1.77
2.50
3.37
4.21
5.34
6.73
8.22
9.33
9.34
7.89
4.97
1.24
-2.46
-5.35
-7.09
-8.07
-8.79
-9.78
-11.00
-12.02
-12.27
-11.21
-8.99
-5.76
-2.18
1.65
5.30
8.82
11.71
13.70
14.38
13.42
11.00
7.24
2.57
-2.72
-8.31
-13.90
-19.12
-23.48
-26.84
-29.23
-30.99
-32.47
-33.76
-34.57
-34.28
-32.50
-28.87
-23.99
-18.35
-12.59
-7.11
-1.73
3.54
8.81
13.48
16.96
18.71
18.85
18.15
17.89
19.26
22.66
27.53
32.48
36.16
37.57
36.61
33.79
29.79
25.04
19.70
13.92
8.13
3.32
0.57
0.46
2.79
6.09
8.90
9.55
7.54
3.17
-2.43
-8.05
-12.62
-15.54
-16.83
-16.89
-16.14
-15.15
-14.06
-13.05
-11.82
-10.45
-9.07
-8.52
-9.33
-12.14
-16.50
-21.45
-25.48
-27.25
-26.23
-22.64
-17.55
-12.00
-6.73
-1.87
2.92
7.85
12.90
17.31
20.26
21.00
19.47
16.29
12.41
8.82
5.91
3.66
1.73
-0.07
-1.53
-2.40
-2.13
-0.98
0.74
2.04
2.59
2.04
0.72
-1.13
-3.33
-5.74
-8.40
-10.93
-12.91
-13.87
-13.61
-12.35
-10.46
-8.51
-6.62
-4.88
-3.19
-1.71
-0.88
-0.96
-2.35
-4.56
-7.18
-9.10
-9.91
-9.19
-6.98
-4.07
-1.14
0.60
0.69
-1.15
-4.08
-6.67
-7.27
-4.64
1.40
10.22
20.24
29.89
37.65
42.68
44.67
43.88
40.93
36.53
31.44
25.99
20.36
14.48
8.17
1.66
-4.98
-11.13
-16.83
-21.87
-26.71
-31.42
-35.82
-39.34
-41.15
-40.69
-37.72
-32.73
-26.64
-20.25
-14.24
-8.51
-2.94
2.82
8.20
12.53
14.62
14.10
11.17
7.18
3.54
1.35
0.80
1.13
1.12
-0.06
-2.75
-6.22
-9.58
-11.79
-12.61
-12.18
-11.28
-10.23
-9.25
-7.88
-5.49
-1.89
2.87
7.91
12.42
15.79
17.96
19.44
20.35
20.59
19.23
15.62
9.62
2.21
-4.93
-10.02
-11.84
-10.50
-7.07
-3.54
-1.49
-1.81
-4.33
-8.22
-12.59
-17.02
-21.82
-27.59
-34.97
-43.67
-52.70
-60.74
-66.61
-70.45
-73.02
-76.03
-80.57
-87.13
-94.71
-101.49
-105.85
-106.59
-103.93
-98.59
-91.40
-82.62
-71.88
-58.16
-40.40
-18.17
8.68
39.72
74.83
113.83
156.66
198.74
234.31
257.48
264.88
257.30
239.05
215.40
190.39
165.83
142.36
120.77
102.41
88.54
79.63
74.52
71.11
67.14
61.20
53.44
45.44
39.45
37.19
39.00
43.44
48.31
51.06
49.32
41.42
27.13
8.21
-11.28
-25.40
-30.37
-24.59
-10.24
7.02
20.12
23.57
14.96
-2.97
-24.83
-45.64
-62.41
-74.74
-83.67
-90.09
-93.89
-94.23
-90.54
-83.43
-74.69
-66.36
-60.10
-56.37
-54.51
-53.10
-50.73
-46.54
-40.76
-34.47
-28.90
-24.90
-22.69
-21.76
-21.20
-20.11
-17.98
-14.96
-11.67
-8.83
-6.92
-6.09
-6.10
-6.50
-6.82
-6.83
-6.56
-6.31
-6.76
-7.96
-9.90
-12.45
-15.44
-18.69
-22.10
-25.71
-29.60
-33.87
-38.55
-43.68
-49.30
-55.40
-61.93
-68.94
-76.49
-84.59
-93.30
-102.51
-112.18
-122.15
-132.16
-141.78
-150.41
-157.44
-162.10
-163.61
-161.26
-154.53
-143.19
-127.69
-108.33
-85.77
-61.00
-35.28
-9.83
14.10
35.57
53.84
68.44
79.34
86.57
90.35
90.97
88.79
84.26
77.89
70.15
61.73
53.28
45.56
39.24
34.89
33.03
33.67
36.70
41.54
47.38
53.27
58.10
60.95
60.95
57.68
50.99
41.09
28.56
14.16
-1.19
-16.51
-30.96
-43.78
-54.54
-63.00
-69.18
-73.25
-75.65
-76.76
-77.10
-76.98
-76.88
-77.10
-77.93
-79.57
-82.15
-85.73
-90.32
-95.67
-101.56
-107.65
-113.63
-119.10
-123.68
-126.87
-128.18
-128.02
-126.49
-123.61
-119.45
-114.14
-107.86
-100.88
-93.39
-85.70
-77.95
-70.14
-62.23
-54.16
-45.96
-37.60
-29.26
-21.03
-13.12
-5.64
1.37
7.90
13.90
19.24
23.73
27.13
29.17
29.72
28.82
26.78
24.05
21.14
18.45
16.25
14.69
13.89
14.07
15.57
18.88
24.38
32.32
42.49
54.56
67.97
82.47
97.86
114.27
131.74
150.04
168.88
188.05
208.06
230.03
255.15
283.69
313.50
340.63
359.84
367.26
361.78
345.67
323.21
298.21
272.58
245.80
216.57
184.75
152.28
122.66
98.91
82.21
71.14
63.22
56.41
50.54
46.71
45.87
47.16
47.61
43.85
33.93
19.57
5.51
-2.45
-0.82
9.33
22.82
32.68
34.47
28.34
19.24
13.65
15.73
25.11
36.71
43.86
41.08
26.83
3.51
-23.57
-48.40
-66.51
-75.24
-74.19
-64.03
-46.13
-21.12
10.94
50.50
97.04
147.30
195.06
231.75
249.45
244.02
217.65
178.60
138.90
109.45
96.38
99.49
113.39
130.70
145.44
154.76
156.09
148.50
130.67
100.56
56.51
-1.46
-70.32
-143.88
-214.47
-274.49
-316.75
-337.79
-337.15
-316.65
-280.40
-235.01
-188.78
-150.26
-125.05
-113.47
-110.83
-108.97
-100.24
-82.08
-58.32
-37.51
-28.53
-35.83
-57.04
-84.18
-107.10
-117.54
-112.04
-92.62
-65.36
-38.74
-21.31
-19.66
-37.05
-71.35
-115.30
-156.95
-183.54
-185.36
-160.39
-115.76
-65.67
-26.40
-9.67
-18.65
-46.84
-81.85
-110.09
-122.31
-115.56
-93.11
-61.45
-27.30
4.43
31.30
52.14
66.98
76.29
81.14
83.21
84.58
87.53
93.49
102.35
112.14
119.49
121.02
114.44
99.97
80.03
58.74
39.88
25.91
16.98
11.47
6.86
1.02
-6.94
-16.41
-25.76
-33.22
-37.65
-39.01
-38.22
-36.65
-35.58
-35.66
-36.83
-38.44
-39.70
-40.02
-39.20
-37.46
-35.28
-33.14
-31.35
-30.01
-28.97
-28.02
-26.96
-25.68
-24.16
-22.49
-20.77
-19.10
-17.52
-16.03
-14.61
-13.22
-11.85
-10.54
-9.32
-8.24
-7.29
-6.43
-5.58
-4.65
-3.59
-2.42
-1.15
0.02
0.98
1.64
2.02
2.17
2.19
2.11
1.86
1.27
0.17
-1.54
-3.78
-6.27
-8.51
-9.99
-10.31
-9.36
-7.40
-4.88
-2.25
0.29
2.84
5.88
9.95
15.28
21.52
27.74
32.75
35.60
36.12
34.95
33.62
33.70
36.03
40.20
44.54
46.70
44.68
37.74
26.64
13.59
0.88
-9.87
-18.71
-27.12
-37.32
-51.00
-68.39
-89.41
-112.33
-134.20
-150.58
-156.18
-146.26
-119.09
-78.46
-32.68
6.36
28.95
30.73
14.87
-9.42
-31.19
-42.56
-41.39
-30.20
-15.03
-0.53
11.37
20.98
28.98
34.85
36.86
33.03
23.02
8.62
-6.46
-18.33
-24.22
-23.62
-18.08
-10.25
-2.48
3.66
7.96
11.53
15.68
21.16
27.69
34.12
39.00
41.27
40.72
38.09
34.63
31.65
30.00
29.86
30.81
32.13
33.18
33.57
33.34
32.76
32.26
32.14
32.55
33.47
34.81
36.39
37.95
39.17
39.69
39.24
37.77
35.41
32.52
29.45
26.38
23.16
19.39
14.46
8.17
0.74
-7.07
-14.30
-20.07
-23.98
-26.45
-28.38
-31.04
-35.06
-40.22
-45.39
-49.00
-49.79
-47.17
-41.79
-35.11
-29.19
-25.68
-25.96
-31.01
-41.08
-54.93
-69.43
-79.93
