1681713254.00
64.000000
-0.00
-0.00
-0.00
-0.00
-0.00
-0.00
-0.00
-0.00
-0.00
-0.00
0.00
0.01
0.01
-0.00
-0.03
-0.05
-0.05
0.00
0.13
0.36
0.66
1.01
1.37
1.72
2.06
2.40
2.79
3.24
3.80
4.42
5.06
5.66
6.20
6.68
7.15
7.68
8.31
9.14
10.09
11.04
11.88
12.56
13.14
13.76
14.65
15.96
17.91
20.32
22.90
25.38
27.58
29.57
31.68
34.32
37.81
42.54
48.15
54.10
59.83
64.97
69.58
74.14
79.34
85.71
93.76
103.00
112.62
121.73
129.77
136.75
143.30
150.75
157.77
166.64
177.95
191.79
206.97
220.57
228.25
225.36
208.53
176.87
132.76
80.05
23.07
-34.94
-92.44
-149.16
-205.23
-260.37
-313.74
-363.87
-409.83
-450.91
-486.50
-515.74
-537.23
-549.22
-549.96
-538.37
-514.21
-478.67
-433.88
-382.45
-327.02
-269.84
-212.63
-156.66
-102.95
-52.37
-5.90
35.58
71.43
101.35
125.50
144.38
158.69
169.15
176.37
180.75
182.57
182.07
179.51
175.23
169.65
163.18
156.15
148.81
141.30
133.69
126.02
118.33
110.69
103.16
95.80
88.68
81.83
75.25
68.95
62.95
57.25
51.86
46.78
42.03
37.59
33.45
29.61
26.07
22.81
19.83
17.11
14.67
12.48
10.54
8.83
7.35
6.07
4.97
4.05
3.27
2.62
2.09
1.65
1.30
1.01
0.79
0.61
0.48
0.37
0.30
0.24
0.21
0.19
0.18
0.19
0.20
0.23
0.25
0.29
0.33
0.37
0.41
0.46
0.50
0.55
0.60
0.65
0.71
0.77
0.84
0.91
0.99
1.07
1.17
1.28
1.40
1.53
1.68
1.85
2.03
2.24
2.47
2.74
3.04
3.37
3.71
4.06
4.39
4.73
5.09
5.49
5.97
6.53
7.17
7.85
8.55
9.25
9.95
10.70
11.50
12.42
13.44
14.54
15.68
16.79
17.83
18.80
19.70
20.59
21.43
22.15
22.54
22.36
21.34
19.31
16.29
12.45
8.10
3.50
-1.11
-5.66
-10.25
-15.01
-19.91
-24.75
-29.11
-32.52
-34.61
-35.37
-35.18
-34.66
-34.50
-35.12
-36.48
-38.14
-39.46
-39.96
-39.50
-38.42
-37.30
-36.76
-37.23
-38.98
-42.11
-46.33
-50.79
-53.81
-53.28
-47.32
-35.38
-18.79
-0.47
16.10
28.38
35.64
38.92
39.94
39.96
39.05
36.44
31.41
24.21
16.30
9.70
6.01
5.68
7.90
11.18
14.05
15.66
15.88
14.99
13.31
11.03
8.20
4.98
1.69
-1.24
-3.47
-4.84
-5.37
-5.05
-3.47
-0.23
5.09
12.57
21.78
31.60
40.70
47.79
52.12
53.75
53.29
51.80
50.24
49.23
48.92
49.18
49.79
50.79
52.54
55.46
59.73
64.89
69.74
72.76
72.80
69.69
64.43
58.85
54.84
53.79
56.25
62.06
70.52
80.54
90.68
99.27
104.97
107.34
107.66
108.59
113.27
123.77
139.83
158.76
176.49
189.43
195.92
196.66
193.83
189.57
184.86
179.18
171.38
160.71
147.69
133.89
121.12
110.12
100.02
88.44
72.49
50.17
21.24
-12.55
-48.30
-83.17
-115.67
-146.17
-176.69
-210.18
-249.57
-297.06
-353.17
-415.94
-480.22
-537.85
-579.03
-594.96
-580.85
-538.19
-474.84
-402.73
-334.07
-277.71
-237.15
-210.92
-194.69
-183.74
-174.56
-165.18
-154.39
-141.08
-124.05
-102.65
-77.62
-51.50
-28.13
-11.17
-2.50
-1.30
-4.34
-7.33
-6.71
-1.01
8.74
19.91
29.66
36.19
39.33
40.06
39.72
39.18
38.69
38.27
38.09
38.77
40.97
44.83
49.50
53.22
53.97
50.41
42.44
31.46
19.82
10.10
4.12
2.59
4.95
9.87
15.83
21.66
26.85
31.45
35.90
40.76
46.53
53.59
62.08
71.73
81.66
90.39
96.15
97.56
94.24
87.17
78.44
70.53
65.49
64.26
66.62
71.49
77.53
83.63
89.06
93.33
95.92
96.13
93.22
86.78
77.11
65.29
53.05
42.17
33.95
28.75
25.94
24.23
22.21
18.82
13.74
7.38
0.66
-5.33
-9.83
-12.60
-13.89
-14.26
-14.19
-13.84
-13.07
-11.60
-9.32
-6.45
-3.61
-1.55
-0.85
-1.72
-3.81
-6.34
-8.36
-9.13
-8.38
-6.48
-4.21
-2.47
-1.86
-2.45
-3.85
-5.43
-6.68
-7.43
-7.76
-7.86
-7.93
-8.09
-8.50
-9.44
-11.23
-14.10
-17.87
-21.88
-25.10
-26.45
-25.23
-21.38
-15.50
-8.57
-1.56
4.87
10.50
15.41
19.77
23.60
26.65
28.60
29.20
28.41
26.52
23.98
21.23
18.56
16.08
13.77
11.60
9.62
7.88
6.45
5.27
4.17
2.97
1.56
-0.05
-1.74
-3.41
-5.08
-6.93
-9.18
-11.99
-15.24
-18.55
-21.39
-23.23
-23.65
-22.51
-19.83
-15.75
-10.51
-4.40
2.21
8.88
15.16
20.62
24.92
27.78
29.09
28.77
26.92
23.70
19.38
14.33
9.07
4.29
0.71
-1.07
-0.86
0.82
2.73
3.30
1.09
-4.53
-13.10
-23.26
-33.17
-41.26
-46.63
-49.26
-49.83
-49.30
-48.63
-48.59
-49.66
-52.10
-55.82
-60.22
-64.12
-65.77
-63.34
-55.53
-42.17
-24.55
-5.15
12.87
26.69
34.60
36.34
33.10
26.98
20.34
15.10
12.50
13.00
16.54
22.76
30.97
40.17
48.97
55.76
59.24
58.95
55.46
50.15
44.57
39.69
35.62
31.72
27.13
21.30
14.31
6.77
-0.50
-6.82
-11.95
-16.09
-19.71
-23.20
-26.51
-29.02
-29.82
-28.32
-24.77
-20.40
-16.84
-15.17
-15.23
-15.65
-14.64
-11.14
-5.48
0.78
5.85
8.74
9.75
10.08
10.95
12.83
15.25
17.38
18.67
19.39
20.37
22.50
26.07
30.56
34.84
37.76
38.75
37.97
36.17
34.13
32.28
30.47
28.17
24.85
20.37
15.19
10.19
6.39
4.55
4.92
7.25
10.92
15.21
19.50
23.40
26.69
29.19
30.70
31.01
29.93
27.53
24.17
20.41
16.90
14.08
12.05
10.58
9.28
7.85
6.20
4.52
3.01
1.78
0.68
-0.59
-2.35
-4.67
-7.43
-10.30
-12.97
-15.37
-17.72
-20.42
-23.84
-28.00
-32.47
-36.41
-38.84
-38.97
-36.52
-31.67
-25.02
-17.32
-9.24
-1.36
5.84
11.97
16.73
20.00
21.87
22.60
22.54
21.96
20.96
19.50
17.52
15.07
12.34
9.66
7.38
5.73
4.72
4.17
3.74
3.09
1.98
0.32
-1.88
-4.58
-7.79
-11.55
-15.89
-20.69
-25.60
-30.12
-33.63
-35.62
-35.73
-33.82
-30.02
-24.62
-18.09
-11.00
-3.92
2.64
8.33
12.94
16.45
18.98
20.69
21.77
22.37
22.58
22.43
21.91
21.08
20.13
19.29
18.81
18.76
18.93
18.95
18.42
17.11
15.05
12.53
9.80
7.04
4.16
0.93
-2.83
-7.17
-11.89
-16.61
-20.89
-24.33
-26.60
-27.49
-26.85
-24.64
-20.95
-16.00
-10.11
-3.69
2.83
9.05
14.59
19.12
22.45
24.55
25.61
25.91
25.81
25.51
25.07
24.46
23.66
22.74
21.87
21.23
20.80
20.37
19.59
18.10
15.81
12.87
9.67
6.58
3.87
1.57
-0.50
-2.59
-4.97
-7.83
-11.25
-15.13
-19.21
-23.05
-26.11
-27.83
-27.79
-25.81
-22.00
-16.70
-10.48
-3.90
2.46
8.24
13.24
17.41
20.80
23.42
25.29
26.36
26.64
26.20
25.20
23.82
22.22
20.54
18.89
17.34
15.92
14.60
13.29
11.88
10.28
8.44
6.34
4.02
1.50
-1.21
-4.10
-7.22
-10.59
-14.28
-18.31
-22.65
-27.09
-31.30
-34.83
-37.24
-38.22
-37.60
-35.34
-31.56
-26.49
-20.46
-13.94
-7.44
-1.46
3.66
7.78
10.95
13.26
14.79
15.51
15.33
14.19
12.23
9.75
7.23
5.15
3.76
3.08
2.85
2.70
2.36
1.67
0.67
-0.58
-2.03
-3.74
-5.81
-8.33
-11.32
-14.76
-18.56
-22.60
-26.75
-30.79
-34.44
-37.32
-39.01
-39.09
-37.35
-33.76
-28.58
-22.31
-15.52
-8.82
-2.66
2.64
6.97
10.34
12.83
14.54
15.58
16.02
15.86
15.13
13.88
12.26
10.58
9.16
8.26
7.92
7.95
8.00
7.69
6.77
5.22
3.20
0.98
-1.17
-3.13
-4.88
-6.55
-8.36
-10.56
-13.42
-17.04
-21.31
-25.84
-30.00
-33.10
-34.57
-34.17
-31.98
-28.32
-23.58
-18.06
-12.00
-5.61
0.77
6.77
11.96
16.02
18.84
20.53
21.29
21.38
21.00
20.31
19.39
18.34
17.28
16.27
15.39
14.61
13.88
13.09
12.16
11.02
9.66
8.08
6.35
4.51
2.57
0.51
-1.78
-4.45
-7.63
-11.40
-15.69
-20.26
-24.81
-28.92
-32.22
-34.34
-35.00
-34.04
-31.44
-27.38
-22.23
-16.42
-10.34
-4.31
1.54
7.11
12.36
17.15
21.27
24.47
26.55
27.44
27.21
26.16
24.62
22.97
21.47
20.24
19.26
18.45
17.80
17.26
16.78
16.23
15.44
14.27
12.74
11.03
9.41
8.10
7.07
6.03
4.56
2.30
-0.81
-4.52
-8.36
-11.84
-14.58
-16.37
-17.11
-16.79
-15.49
-13.26
-10.21
-6.42
-1.95
3.08
8.38
13.46
17.53
19.72
19.33
16.16
10.69
4.08
-2.19
-6.81
-9.09
-9.17
-7.95
-6.68
-6.40
-7.46
-9.43
-11.36
-12.26
-11.65
-9.76
-7.46
-5.82
-5.72
-7.57
-11.31
-16.50
-22.58
-29.00
-35.23
-40.78
-45.23
-48.33
-50.16
-51.09
-51.71
-52.51
-53.48
-53.95
-52.71
-48.42
-40.30
-28.55
-14.45
0.01
12.85
22.73
29.34
33.23
35.38
36.61
37.21
36.89
35.15
31.63
26.46
20.30
14.06
8.54
4.07
0.51
-2.59
-5.63
-8.65
-11.28
-12.98
-13.29
-12.12
-9.85
-7.14
-4.69
-3.07
-2.56
-3.27
-5.14
-7.98
-11.50
-15.21
-18.43
-20.45
-20.61
-18.50
-14.17
-8.09
-1.08
5.86
11.80
16.07
18.38
18.86
17.96
16.33
14.60
13.29
12.67
12.86
13.77
15.11
16.43
17.20
17.00
15.70
13.48
10.85
8.31
6.24
4.71
3.46
2.10
0.28
-2.21
-5.38
-9.07
-13.08
-17.14
-20.95
-24.20
-26.55
-27.73
-27.50
-25.74
-22.40
-17.64
-11.79
-5.39
0.91
6.51
11.06
14.61
17.47
20.10
22.77
25.44
27.77
29.29
29.67
28.87
27.31
25.62
24.49
24.35
25.28
26.92
28.66
29.82
29.85
28.49
25.78
22.07
17.91
13.88
10.33
7.16
3.83
-0.54
-6.78
-15.18
-25.22
-35.75
-45.31
-52.75
-57.53
-59.82
-60.18
-59.18
-57.15
-54.13
-50.01
-44.63
-38.03
-30.41
-22.19
-14.00
-6.46
-0.05
5.10
9.33
13.32
17.78
23.16
29.42
35.97
41.90
46.19
48.06
47.10
43.38
37.48
30.43
23.57
18.20
15.30
15.15
17.24
20.38
23.01
23.62
21.21
15.57
7.39
-2.03
-11.08
-18.38
-23.07
-25.02
-24.71
-23.00
-20.80
-18.84
-17.51
-16.81
-16.47
-16.07
-15.24
-13.86
-12.15
-10.51
-9.28
-8.51
-7.79
-6.38
-3.57
1.02
7.25
14.55
22.13
29.27
35.41
40.16
43.20
44.23
42.97
39.25
33.16
25.02
15.37
4.85
-5.83
-15.96
-24.81
-31.68
-36.08
-37.81
-37.09
-34.44
-30.55
-26.02
-21.22
-16.30
-11.25
-6.06
-0.82
4.24
8.82
12.63
15.51
17.45
18.60
19.20
19.55
19.81
19.97
19.85
19.13
17.49
14.70
10.77
5.91
0.55
-4.83
-9.83
-14.21
-18.04
-21.55
-25.03
-28.57
-31.98
-34.73
-36.16
-35.70
-33.10
-28.60
-22.78
-16.39
-10.18
-4.65
-0.04
3.68
6.77
9.64
12.63
15.93
19.44
22.77
25.43
27.03
27.44
26.78
25.33
23.31
20.82
17.85
14.47
10.93
7.57
4.73
2.52
0.76
-0.92
-2.99
-5.76
-9.36
-13.69
-18.48
-23.41
-28.17
-32.49
-36.12
-38.72
-39.85
-39.12
-36.25
-31.35
-24.91
-17.67
-10.45
-3.79
2.07
7.28
12.04
16.43
20.32
23.40
25.39
26.19
25.96
25.07
23.95
22.86
21.91
20.99
19.94
18.63
17.12
15.58
14.15
12.83
11.42
9.59
7.03
3.76
0.13
-3.37
-6.33
-8.92
-11.88
-16.23
-22.65
-30.88
-39.60
-46.83
-50.72
-50.43
-46.50
-40.57
-34.59
-29.82
-26.32
-22.92
-17.94
-10.04
0.95
13.92
26.93
37.99
45.95
50.79
53.41
54.90
56.34
59.10
65.19
77.10
96.72
123.54
153.63
180.33
196.56
197.90
184.36
160.00
130.66
101.24
74.33
50.95
32.32
21.16
21.09
34.67
61.45
97.29
135.72
170.17
195.77
209.92
212.08
203.38
186.59
166.16
147.49
135.37
131.91
135.38
140.73
141.75
133.71
115.07
87.16
52.84
14.54
-26.41
-69.47
-114.06
-159.06
-203.08
-245.66
-288.14
-333.54
-385.03
-443.38
-504.91
-561.02
-600.15
-611.41
-588.48
-532.01
-449.43
-352.63
-254.45
-165.65
-93.23
-40.12
-5.84
12.44
19.04
18.78
16.10
14.30
15.23
19.27
25.85
33.80
41.71
48.27
52.52
54.21
53.83
52.52
51.54
51.72
53.06
54.68
55.23
53.42
48.64
41.23
32.38
23.75
16.90
12.78
11.52
12.50
14.67
16.89
18.23
18.12
16.42
13.32
9.29
4.91
0.69
-3.06
-6.28
-9.20
-12.06
-15.10
-18.40
-21.94
-25.72
-29.73
-33.96
-38.27
-42.33
-45.51
-47.10
-46.49
-43.38
-37.91
-30.67
-22.45
-14.14
-6.43
0.27
5.91
10.73
15.23
19.95
25.26
31.21
37.45
43.37
48.34
51.93
54.12
55.22
55.63
55.57
55.05
53.90
52.05
49.59
46.80
43.90
40.90
37.52
33.36
28.12
21.84
15.04
8.52
3.10
-0.73
-3.00
-4.21
-5.15
-6.44
-8.37
-10.74
-13.03
-14.65
-15.25
-14.82
-13.71
-12.35
-11.03
-9.74
-8.17
-5.93
-2.73
1.37
6.05
10.76
14.87
17.86
19.49
19.77
19.08
17.97
17.06
16.83
17.42
18.69
20.19
21.40
21.85
21.25
19.42
16.29
11.89
6.38
0.21
-5.98
-11.42
-15.44
-17.60
-17.85
-16.38
-13.55
-9.75
-5.30
-0.45
4.50
9.22
13.28
16.28
18.01
18.56
18.36
18.03
18.18
19.15
20.88
23.02
25.01
26.36
26.79
26.25
24.95
23.16
21.21
19.39
17.88
16.78
15.97
15.25
14.32
12.92
10.88
8.16
4.85
1.16
-2.66
-6.35
-9.75
-12.71
-15.14
-16.89
-17.77
-17.54
-15.98
-13.02
-8.75
-3.47
2.40
8.35
13.86
18.43
21.68
23.40
23.69
22.95
21.76
20.71
20.18
20.23
20.62
21.00
21.06
20.70
19.94
18.87
17.56
15.97
14.06
11.76
9.09
6.13
3.01
-0.16
-3.30
-6.38
-9.35
-12.16
-14.70
-16.75
-18.09
-18.47
-17.76
-16.01
-13.35
-9.98
-6.07
-1.75
2.80
7.30
11.31
14.33
16.00
16.22
15.26
13.65
11.98
10.66
9.79
9.23
8.72
8.06
7.20
6.22
5.24
4.27
3.19
1.78
-0.17
-2.77
-6.00
-9.77
-13.99
-18.56
-23.34
-28.01
-32.05
-34.83
-35.76
-34.57
-31.38
-26.70
-21.18
-15.40
-9.76
-4.43
0.48
4.89
8.67
11.72
14.01
15.64
16.75
17.49
17.93
18.03
17.72
16.88
15.46
13.50
11.16
8.72
6.52
4.87
3.89
3.40
2.94
1.90
-0.26
-3.81
-8.64
-14.21
-19.73
-24.35
-27.36
-28.41
-27.45
-24.78
-20.85
-16.11
-10.93
-5.56
-0.16
5.14
10.14
14.60
18.29
21.04
22.79
23.59
23.58
22.92
21.84
20.55
19.22
17.96
16.77
15.59
14.35
13.06
11.83
10.75
9.80
8.76
7.28
5.07
2.10
-1.47
-5.28
-9.07
-12.68
-16.10
-19.25
-21.84
-23.43
-23.62
-22.20
-19.28
-15.20
-10.33
-4.97
0.63
6.26
11.55
16.14
19.72
22.20
23.74
24.65
25.19
25.44
25.37
24.84
23.78
22.27
20.47
18.60
16.90
15.49
14.39
13.49
12.54
11.28
9.53
7.29
4.75
2.12
-0.48
-3.16
-6.16
-9.75
-13.93
-18.34
-22.39
-25.32
-26.56
-25.83
-23.22
-19.11
-14.02
-8.50
-2.96
2.36
7.37
11.99
16.12
19.59
22.15
23.63
24.02
23.55
22.61
21.62
20.79
20.10
19.34
18.29
16.85
15.11
13.27
11.48
9.78
8.07
6.24
4.21
2.09
0.00
-1.93
-3.77
-5.79
-8.30
-11.46
-15.14
-18.88
-22.00
-23.91
-24.24
-22.98
-20.36
-16.76
-12.48
-7.74
-2.73
2.30
7.02
11.05
14.10
16.05
16.97
17.06
16.54
15.55
14.17
12.46
10.58
8.76
7.24
6.21
5.71
5.57
5.50
5.18
4.40
3.14
1.47
-0.44
-2.46
-4.57
-6.82
-9.31
-12.16
-15.40
-18.96
-22.64
-26.13
-29.05
-31.09
-32.00
-31.69
-30.16
-27.42
-23.55
-18.66
-12.96
-6.84
-0.76
4.82
9.58
13.43
16.41
18.63
20.15
20.94
20.99
20.37
19.29
18.05
16.90
15.94
15.12
14.31
13.42
12.43
11.39
10.35
9.30
8.13
6.67
4.78
2.41
-0.35
-3.34
-6.42
-9.55
-12.80
-16.30
-20.11
-24.10
-27.95
-31.21
-33.44
-34.34
-33.77
-31.76
-28.43
-23.93
-18.42
-12.16
-5.51
1.07
7.14
12.32
16.40
19.34
21.20
22.19
22.56
22.58
22.49
22.41
22.33
22.14
21.72
21.03
20.09
19.01
17.94
16.91
15.88
14.72
13.25
11.31
8.86
5.99
2.94
0.07
-2.35
-4.24
-5.81
-7.48
-9.71
-12.79
-16.66
-20.97
-25.19
-28.77
-31.29
-32.47
-32.17
-30.39
-27.19
-22.73
-17.30
-11.20
-4.76
1.72
7.87
13.34
17.78
20.94
22.72
23.22
22.67
21.42
19.83
18.23
16.83
15.76
15.01
14.50
14.12
13.76
13.36
12.87
12.26
11.42
10.22
8.53
6.35
3.82
1.21
-1.14
-3.10
-4.72
-6.28
-8.12
-10.38
-12.96
-15.45
-17.34
-18.26
-18.05
-16.84
-14.85
-12.31
-9.30
-5.90
-2.21
1.56
5.07
8.00
10.13
11.45
12.04
12.06
11.60
10.74
9.57
8.27
7.08
6.22
5.82
5.82
6.05
6.21
6.08
5.54
4.61
3.41
2.08
0.68
-0.84
-2.65
-4.98
-8.01
-11.72
-15.89
-20.12
-23.90
-26.80
-28.54
-29.00
-28.17
-26.08
-22.81
-18.49
-13.38
-7.92
-2.59
2.21
6.23
9.43
11.86
13.56
14.54
14.76
14.25
13.17
11.75
10.23
8.76
7.34
5.92
4.44
2.91
1.42
0.01
-1.28
-2.49
-3.71
-5.01
-6.44
-8.08
-10.00
-12.28
-15.01
-18.15
-21.61
-25.17
-28.52
-31.32
-33.22
-33.93
-33.27
-31.15
-27.70
-23.14
-17.76
-11.90
-5.93
-0.19
4.97
9.29
12.59
14.84
16.06
16.42
16.07
15.23
14.13
12.98
11.99
11.22
10.69
10.28
9.87
9.38
8.77
8.03
7.09
5.91
4.45
2.70
0.73
-1.39
-3.64
-6.11
-8.94
-12.28
-16.18
-20.50
-24.96
-29.12
-32.46
-34.49
-34.82
-33.22
-29.76
-24.78
-18.81
-12.47
-6.30
-0.67
4.26
8.45
11.93
14.76
16.94
18.50
19.45
19.85
19.75
19.27
18.52
17.62
16.71
15.87
15.20
14.71
14.40
14.23
14.08
13.77
13.05
11.70
9.62
6.87
3.70
0.45
-2.64
-5.46
-8.20
-11.13
-14.51
-18.46
-22.77
-27.01
-30.63
-33.10
-34.05
-33.35
-31.06
-27.42
-22.76
-17.41
-11.66
-5.78
0.01
5.46
10.35
14.47
17.69
19.99
21.49
22.42
22.99
23.36
23.54
23.45
22.98
22.08
20.82
19.33
17.79
16.31
14.97
13.77
12.65
11.57
10.45
9.18
7.66
5.78
3.50
0.88
-1.96
-4.92
-7.91
-10.89
-13.78
-16.45
-18.65
-20.10
-20.57
-19.99
-18.41
-16.03
-13.02
-9.50
-5.52
-1.19
3.25
7.37
10.67
12.71
13.34
12.72
11.27
9.53
7.97
6.81
6.04
5.51
5.06
4.58
4.17
3.97
4.11
4.64
5.40
6.09
6.35
5.89
4.58
2.48
-0.20
-3.19
-6.29
-9.44
-12.62
-15.83
-18.93
-21.65
-23.61
-24.49
-24.10
-22.47
-19.73
-16.06
-11.68
-6.82
-1.80
2.96
7.07
10.24
12.37
13.50
13.72
13.15
11.91
10.20
8.32
6.63
5.41
4.76
4.52
4.34
3.91
3.04
1.79
0.37
-0.93
-1.97
-2.76
-3.46
-4.33
-5.59
-7.41
-9.83
-12.81
-16.25
-19.95
-23.60
-26.80
-29.11
-30.15
-29.71
-27.75
-24.43
-20.04
-14.93
-9.50
-4.14
0.79
5.02
8.42
10.93
12.59
13.43
13.51
12.96
11.98
10.83
9.77
8.94
8.34
7.84
7.29
6.60
5.71
4.59
3.20
1.45
-0.68
-3.13
-5.74
-8.32
-10.72
-12.95
-15.18
-17.63
-20.45
-23.54
-26.53
-28.88
-30.07
-29.74
-27.83
-24.58
-20.37
-15.57
-10.45
-5.17
0.12
5.19
9.76
13.53
16.32
18.13
19.15
19.63
19.82
19.86
19.77
19.51
19.02
18.31
17.43
16.49
15.56
14.63
13.61
12.39
10.82
8.87
6.58
4.08
1.45
-1.36
-4.49
-8.10
-12.29
-16.92
-21.65
-26.03
-29.59
-31.93
-32.75
-31.90
-29.31
-25.10
-19.48
-12.90
-5.88
1.01
7.30
12.65
16.94
20.19
22.51
24.04
24.89
25.12
24.81
24.06
22.99
21.79
20.59
19.48
18.45
17.42
16.32
15.14
13.93
12.76
11.67
10.61
9.46
8.03
6.15
3.76
0.87
-2.39
-5.86
-9.45
-13.12
-16.93
-20.88
-24.81
-28.33
-30.84
-31.72
-30.61
-27.52
-22.86
-17.25
-11.34
-5.62
-0.34
4.37
8.42
11.69
14.06
15.49
16.05
15.97
15.59
15.22
15.13
15.42
16.05
16.88
17.71
18.37
18.81
19.04
19.07
18.87
18.27
17.07
15.10
12.33
8.90
5.01
0.95
-3.05
-6.86
-10.36
-13.52
-16.28
-18.57
-20.27
-21.18
-21.07
-19.76
-17.19
-13.52
-9.09
-4.33
0.34
4.61
8.30
11.32
13.62
15.16
15.94
15.99
15.41
14.38
13.15
11.95
10.98
10.31
9.89
9.57
9.17
8.57
7.71
6.58
5.18
3.49
1.52
-0.71
-3.08
-5.53
-8.04
-10.69
-13.63
-16.95
-20.55
-24.11
-27.16
-29.24
-30.02
-29.39
-27.38
-24.13
-19.86
-14.88
-9.57
-4.33
0.49
4.63
8.02
10.67
12.69
14.12
15.04
15.45
15.36
14.79
13.75
12.32
10.58
8.72
6.97
5.54
4.53
3.95
3.67
3.50
3.27
2.83
2.04
0.80
-1.02
-3.58
-6.96
-11.15
-15.98
-21.07
-25.91
-29.90
-32.55
-33.60
-33.02
-30.94
-27.57
-23.07
-17.62
-11.42
-4.88
1.43
6.99
11.49
14.89
17.42
19.37
20.86
21.83
22.12
21.62
20.43
18.86
17.28
16.01
15.18
14.70
14.29
13.66
12.60
11.10
9.33
7.55
5.94
4.50
3.04
1.32
-0.84
-3.46
-6.44
-9.70
-13.21
-17.02
-21.03
-24.96
-28.29
-30.46
-30.99
-29.72
-26.77
-22.44
-17.13
-11.22
-5.11
0.86
6.39
11.21
15.16
18.16
20.23
21.49
22.16
22.52
22.86
23.36
24.01
24.62
24.89
24.64
23.89
22.88
21.93
21.21
20.68
20.07
19.05
17.39
15.07
12.27
9.30
6.46
3.96
1.81
-0.11
-2.12
-4.57
-7.78
-11.84
-16.54
-21.35
-25.59
-28.57
-29.80
-29.14
-26.80
-23.15
-18.63
-13.58
-8.19
-2.63
2.85
7.84
11.90
14.71
16.23
16.76
16.74
16.56
16.36
16.08
15.58
14.81
13.89
13.05
12.43
12.08
11.92
11.83
11.70
11.49
11.13
10.52
9.57
8.22
6.52
4.60
2.56
0.49
-1.69
-4.10
-6.84
-9.97
-13.34
-16.70
-19.62
-21.66
-22.44
-21.83
-19.91
-16.97
-13.34
-9.25
-4.83
-0.21
4.37
8.50
11.65
13.43
13.77
13.01
11.71
10.43
9.55
9.08
8.84
8.57
8.11
7.45
6.72
6.07
5.52
4.99
4.29
3.20
1.64
-0.36
-2.61
-4.92
-7.15
-9.29
-11.45
-13.79
-16.42
-19.36
-22.52
-25.77
-28.94
-31.85
-34.26
-35.91
-36.54
-35.91
-33.92
-30.58
-26.06
-20.63
-14.61
-8.35
-2.22
3.46
8.41
12.45
15.54
17.71
19.05
19.66
19.65
19.14
18.27
17.26
16.26
15.40
14.67
13.96
13.14
12.05
10.66
9.01
7.19
5.26
3.22
1.01
-1.38
-3.89
-6.42
-8.81
-11.01
-13.15
-15.44
-18.12
-21.24
-24.61
-27.73
-29.94
-30.67
-29.59
-26.71
-22.37
-17.07
-11.34
-5.58
-0.01
5.21
10.00
14.18
17.57
19.99
21.43
21.97
21.81
21.17
20.22
19.10
17.93
16.86
16.05
15.63
15.60
15.83
16.06
16.03
15.55
14.55
13.05
11.17
9.04
6.79
4.48
2.10
-0.45
-3.34
-6.68
-10.43
-14.37
-18.07
-21.06
-22.94
-23.50
-22.77
-20.90
-18.10
-14.59
-10.60
-6.37
-2.19
1.66
4.94
7.50
9.27
10.27
10.58
10.30
9.57
8.59
7.57
6.65
5.94
5.44
5.07
4.73
4.37
3.95
3.46
2.93
2.40
1.88
1.38
0.81
0.02
-1.18
-2.96
-5.43
-8.56
-12.20
-16.04
-19.70
-22.73
-24.70
-25.32
-24.47
-22.29
-19.06
-15.08
-10.61
-5.89
-1.16
3.28
7.03
9.79
11.42
12.01
11.84
11.21
10.30
9.16
7.79
6.22
4.60
3.16
2.06
1.30
0.72
0.08
-0.80
-1.95
-3.31
-4.76
-6.23
-7.80
-9.62
-11.91
-14.86
-18.51
-22.69
-27.09
-31.26
-34.63
-36.68
-37.02
-35.56
-32.44
-28.04
-22.84
-17.25
-11.58
-6.03
-0.81
3.85
7.68
10.43
12.03
12.64
12.58
12.26
11.94
11.74
11.65
11.59
11.54
11.45
11.28
10.91
10.27
9.32
8.13
6.85
5.59
4.38
3.12
1.60
-0.39
-3.10
-6.65
-11.00
-15.86
-20.69
-24.76
-27.42
-28.27
-27.29
-24.73
-20.96
-16.31
-11.02
-5.34
0.43
5.90
10.74
14.74
17.86
20.16
21.70
22.49
22.52
21.86
20.70
19.35
18.09
17.10
16.46
16.15
16.09
16.19
16.30
16.21
15.72
14.68
13.03
10.82
8.10
4.87
1.02
-3.52
-8.77
-14.52
-20.35
-25.66
-29.85
-32.43
-33.13
-31.96
-29.16
-25.15
-20.37
-15.26
-10.13
-5.18
-0.53
3.75
7.53
10.67
13.02
14.52
15.20
15.19
14.71
13.97
13.15
12.34
11.55
10.72
9.82
8.84
7.90
7.15
6.73
6.64
6.69
6.55
5.85
4.32
1.85
-1.45
-5.34
-9.49
-13.50
-16.89
-19.22
-20.10
-19.32
-16.94
-13.27
-8.76
-3.84
1.17
6.07
10.70
14.87
18.29
20.67
21.80
21.73
20.76
19.41
18.18
17.32
16.80
16.30
15.42
13.98
12.09
10.12
8.50
7.46
6.94
6.64
6.23
5.44
4.19
2.46
0.23
-2.57
-5.95
-9.71
-13.35
-16.20
-17.65
-17.40
-15.56
-12.59
-8.95
-4.90
-0.45
4.46
9.69
14.74
18.92
21.58
22.44
21.75
20.18
18.42
16.93
15.83
14.92
13.97
12.92
11.88
11.07
10.61
10.43
10.31
9.95
9.17
7.96
6.46
4.87
3.23
1.47
-0.66
-3.36
-6.71
-10.50
-14.27
-17.42
-19.36
-19.69
-18.31
-15.42
-11.41
-6.74
-1.80
3.11
7.70
11.69
14.77
16.70
17.34
16.80
15.35
13.39
11.30
9.33
7.58
6.08
4.79
3.70
2.79
2.05
1.42
0.78
0.03
-0.97
-2.25
-3.85
-5.79
-8.15
-11.06
-14.59
-18.62
-22.81
-26.56
-29.23
-30.31
-29.57
-27.14
-23.34
-18.55
-13.17
-7.49
-1.85
3.44
8.03
11.61
14.02
15.25
15.44
14.84
13.75
12.47
11.25
10.18
9.22
8.19
6.95
5.42
3.69
1.96
0.39
-0.95
-2.18
-3.52
-5.15
-7.23
-9.76
-12.69
-15.93
-19.40
-22.99
-26.49
-29.61
-31.99
-33.21
-32.92
-30.86
-27.03
-21.68
-15.34
-8.70
-2.38
3.16
7.75
11.48
14.49
16.89
18.69
19.79
20.16
19.88
19.19
18.37
17.71
17.29
17.00
16.60
15.81
14.52
12.78
10.81
8.88
7.14
5.63
4.19
2.57
0.49
-2.21
-5.59
-9.57
-13.93
-18.35
-22.43
-25.76
-28.00
-28.90
-28.34
-26.31
-22.86
-18.17
-12.55
-6.44
-0.39
5.11
9.73
13.36
16.16
18.35
20.12
21.50
22.36
22.57
22.19
21.45
20.72
20.26
20.09
19.96
19.47
18.37
16.63
14.60
12.70
11.25
10.30
9.63
8.80
7.37
5.12
2.01
-1.75
-5.84
-9.95
-13.82
-17.28
-20.23
-22.51
-23.90
-24.15
-23.04
-20.52
-16.75
-12.09
-6.98
-1.82
3.08
7.51
11.28
14.18
15.98
16.57
16.11
14.99
13.75
12.86
12.49
12.53
12.69
12.64
12.25
11.60
10.84
10.08
9.25
8.24
6.96
5.45
3.85
2.27
0.68
-1.15
-3.54
-6.68
-10.50
-14.61
-18.41
-21.31
-22.90
-23.06
-21.93
-19.79
-16.88
-13.36
-9.29
-4.77
-0.03
4.52
8.39
11.12
12.51
12.66
11.91
10.67
9.28
7.90
6.61
5.41
4.39
3.62
3.15
2.92
2.73
2.33
1.54
0.26
-1.42
-3.33
-5.29
-7.25
-9.30
-11.65
-14.52
-17.98
-21.89
-25.90
-29.52
-32.26
-33.76
-33.80
-32.36
-29.55
-25.57
-20.69
-15.24
-9.55
-3.94
1.26
5.74
9.25
11.64
12.90
13.19
12.78
12.01
11.15
10.33
9.53
8.64
7.60
6.39
5.13
3.96
2.99
2.23
1.57
0.89
0.04
-1.04
-2.42
-4.14
-6.29
-8.98
-12.22
-15.91
-19.75
-23.34
-26.27
-28.19
-28.91
-28.35
-26.53
-23.54
-19.52
-14.65
-9.23
-3.63
1.76
6.59
10.61
13.72
15.96
17.41
18.24
18.54
18.43
17.98
17.25
16.32
15.21
14.00
12.76
11.53
10.36
9.18
7.90
6.45
4.82
3.10
1.45
-0.05
-1.46
-3.00
-4.92
-7.43
-10.59
-14.25
-18.08
-21.66
-24.57
-26.43
-26.97
-26.10
-23.86
-20.47
-16.18
-11.26
-5.92
-0.46
4.83
9.55
13.36
16.03
17.52
17.99
17.77
17.25
16.76
16.52
16.55
16.76
16.99
17.14
17.18
17.13
17.03
16.84
16.39
15.52
14.11
12.20
9.97
7.61
5.29
2.99
0.62
-1.99
-4.95
-8.28
-11.88
-15.54
-18.93
-21.67
-23.36
-23.73
-22.69
-20.33
-16.89
-12.63
-7.76
-2.47
3.05
8.49
13.45
17.52
20.45
22.19
22.93
22.99
22.67
22.16
21.53
20.75
19.81
18.73
17.56
16.41
15.34
14.38
13.50
12.61
11.59
10.34
8.79
6.87
4.58
1.89
-1.16
-4.51
-8.03
-11.56
-14.93
-17.96
-20.48
-22.29
-23.20
-23.02
-21.65
-19.12
-15.56
-11.23
-6.44
-1.57
2.96
6.78
9.62
11.41
12.29
12.56
12.53
12.41
12.17
11.69
10.89
9.81
8.67
7.74
7.16
6.86
6.61
6.12
5.27
4.09
2.76
1.46
0.18
-1.30
-3.29
-6.06
-9.64
-13.85
-18.30
-22.63
-26.57
-30.02
-32.90
-35.04
-36.14
-35.77
-33.68
-29.86
-24.62
-18.51
-12.12
-5.91
-0.23
4.72
8.77
11.76
13.64
14.53
14.66
14.36
13.89
13.40
12.93
12.50
12.12
11.88
11.84
12.01
12.30
12.49
12.33
11.55
9.99
7.67
4.80
1.71
-1.28
-4.01
-6.54
-9.15
-12.19
-15.87
-20.16
-24.73
-29.10
-32.69
-34.99
-35.65
-34.52
-31.66
-27.34
-21.93
-15.84
-9.46
-3.15
2.79
8.07
12.45
15.77
18.00
19.26
19.83
19.98
19.98
19.94
19.86
19.68
19.31
18.79
18.25
17.86
17.68
17.64
17.48
16.89
15.63
13.65
11.10
8.21
5.24
2.36
-0.33
-2.85
-5.27
-7.76
-10.52
-13.72
-17.35
-21.11
-24.43
-26.66
-27.26
-26.04
-23.14
-18.92
-13.77
-8.05
-2.04
3.93
9.50
14.27
17.95
20.40
21.67
21.97
21.56
20.73
19.74
18.83
18.18
17.86
17.70
17.45
16.81
15.67
14.13
12.52
11.18
10.32
9.88
9.62
9.21
8.39
7.08
5.30
3.17
0.78
-1.81
-4.57
-7.44
-10.28
-12.85
-14.88
-16.09
-16.27
-15.36
-13.47
-10.76
-7.42
-3.64
0.44
4.67
8.83
12.64
15.77
17.95
19.09
19.30
18.90
18.25
17.65
17.26
17.05
16.89
16.64
16.21
15.57
14.73
13.67
12.38
10.85
9.12
7.28
5.43
3.62
1.76
-0.32
-2.81
-5.84
-9.38
-13.25
-17.19
-20.95
-24.26
-26.86
-28.47
-28.83
-27.79
-25.35
-21.74
-17.28
-12.34
-7.23
-2.27
2.28
6.12
9.03
10.91
11.85
12.02
11.62
10.80
9.70
8.45
7.30
6.49
6.15
6.25
6.55
6.74
6.60
6.04
5.13
3.99
2.72
1.32
-0.21
-1.89
-3.75
-5.85
-8.34
-11.38
-15.10
-19.45
-24.19
-28.93
-33.18
-36.46
-38.35
-38.60
-37.09
-33.94
-29.45
-24.06
-18.21
-12.28
-6.49
-0.92
4.38
9.32
13.69
17.23
19.78
21.31
21.98
22.06
21.73
21.11
20.19
18.95
17.45
15.86
14.41
13.32
12.64
12.26
11.88
11.21
10.00
8.20
5.90
3.34
0.69
-1.94
-4.58
-7.37
-10.46
-13.91
-17.69
-21.61
-25.36
-28.55
-30.75
-31.60
-30.91
-28.66
-25.03
-20.33
-14.91
-9.09
-3.20
2.45
7.55
11.82
15.05
17.15
18.26
18.60
18.50
18.23
18.02
17.94
17.98
18.01
17.87
17.49
16.88
16.17
15.51
14.98
14.48
13.82
12.73
11.07
8.94
6.64
4.63
3.30
2.94
3.46
4.60
5.90
6.91
7.35
7.10
6.27
5.06
3.67
2.18
0.55
-1.36
-3.71
-6.58
-9.94
-13.61
-17.31
-20.69
-23.36
-24.97
-25.32
-24.34
-22.12
-18.80
-14.57
-9.62
-4.17
1.46
6.92
11.84
15.96
19.18
21.47
22.90
23.49
23.32
22.49
21.28
20.01
18.97
18.34
18.05
17.86
17.51
16.85
15.88
14.68
13.33
11.80
10.03
7.98
5.74
3.49
1.44
-0.37
-2.04
-3.81
-5.91
-8.44
-11.33
-14.39
-17.35
-19.98
-22.04
-23.31
-23.59
-22.74
-20.70
-17.60
-13.62
-9.08
-4.34
0.24
4.33
7.64
9.96
11.22
11.45
10.86
9.73
8.36
7.02
5.87
5.03
4.50
4.27
4.26
4.33
4.34
4.11
3.53
2.52
1.11
-0.59
-2.46
-4.37
-6.29
-8.18
-10.06
-11.94
-13.96
-16.27
-19.02
-22.27
-25.86
-29.38
-32.29
-34.04
-34.34
-33.21
-30.86
-27.61
-23.70
-19.31
-14.57
-9.68
-4.90
-0.55
3.14
6.09
8.39
10.17
11.56
12.62
13.33
13.68
13.71
13.49
13.17
12.87
12.72
12.78
13.01
13.21
13.09
12.36
10.88
8.71
6.13
3.49
1.05
-1.13
-3.19
-5.33
-7.69
-10.32
-13.17
-16.20
-19.39
-22.67
-25.85
-28.53
-30.20
-30.45
-29.11
-26.33
-22.44
-17.85
-12.84
-7.60
-2.27
2.95
7.76
11.86
15.03
17.23
18.55
19.20
19.44
19.48
19.46
19.45
19.43
19.29
18.95
18.45
17.87
17.38
17.04
16.78
16.38
15.58
14.20
12.18
9.69
6.98
4.37
2.09
0.24
-1.26
-2.62
-4.18
-6.22
-8.88
-12.07
-15.51
-18.83
-21.62
-23.59
-24.53
-24.29
-22.79
-19.99
-16.00
-11.05
-5.52
0.10
5.37
9.93
13.64
16.55
18.79
20.47
21.61
22.12
21.89
20.92
19.37
17.57
15.87
14.55
13.69
13.17
12.77
12.26
11.47
10.35
8.92
7.26
5.45
3.52
1.51
-0.58
-2.76
-5.02
-7.35
-9.73
-12.13
-14.56
-17.01
-19.45
-21.75
-23.69
-24.96
-25.23
-24.27
-22.01
-18.53
-14.08
-8.98
-3.67
1.42
5.86
9.28
11.46
12.35
12.09
11.02
9.50
7.88
6.41
5.20
4.27
3.53
2.91
2.35
1.83
1.30
0.69
-0.04
-0.91
-1.88
-2.94
-4.08
-5.43
-7.11
-9.18
-11.59
-14.16
-16.77
-19.40
-22.20
-25.24
-28.46
-31.41
-33.47
-34.05
-32.85
-30.05
-26.13
-21.62
-16.84
-11.93
-6.92
-1.90
2.86
7.02
10.27
12.52
13.86
14.46
14.47
14.02
13.23
12.28
11.33
10.46
9.66
8.83
7.91
6.92
6.01
5.24
4.58
3.82
2.73
1.16
-0.83
-3.10
-5.45
-7.79
-10.17
-12.68
-15.40
-18.39
-21.59
-24.84
-27.84
-30.10
-31.12
-30.49
-28.10
-24.20
-19.24
-13.76
-8.15
-2.63
2.68
7.63
11.97
15.38
17.66
18.77
18.94
18.53
17.96
17.52
17.32
17.28
17.25
17.06
16.68
16.18
15.66
15.16
14.64
14.00
13.14
12.01
10.64
9.15
7.62
6.07
4.46
2.67
0.55
-2.07
-5.31
-9.14
-13.42
-17.73
-21.54
-24.19
-25.25
-24.53
-22.23
-18.78
-14.64
-10.20
-5.63
-1.02
3.54
7.83
11.54
14.39
16.23
17.16
17.45
17.45
17.42
17.48
17.53
17.46
17.15
16.63
16.09
15.74
15.73
16.02
16.38
16.45
15.88
14.49
12.29
9.50
6.45
3.43
0.64
-1.89
-4.33
-6.91
-9.86
-13.22
-16.82
-20.23
-22.91
-24.40
-24.39
-22.79
-19.68
-15.29
-10.00
-4.31
1.23
6.08
9.87
12.48
13.99
14.57
14.39
13.58
12.23
10.55
8.84
7.46
6.67
6.53
6.84
7.24
7.38
7.05
6.25
5.12
3.83
2.41
0.81
-1.13
-3.52
-6.34
-9.47
-12.76
-16.10
-19.47
-22.89
-26.25
-29.26
-31.47
-32.38
-31.65
-29.21
-25.27
-20.25
-14.67
-9.03
-3.76
0.82
4.59
7.57
9.90
11.74
13.17
14.17
14.64
14.54
13.94
13.05
12.11
11.30
10.66
10.11
9.51
8.79
7.91
6.86
5.60
4.04
2.13
-0.10
-2.52
-4.97
-7.35
-9.65
-12.01
-14.61
-17.58
-20.86
-24.24
-27.40
-29.93
-31.54
-32.02
-31.25
-29.23
-25.99
-21.67
-16.49
-10.77
-4.93
0.66
5.73
10.13
13.80
16.81
19.14
20.78
21.69
21.90
21.49
20.68
19.69
18.77
18.07
17.64
17.38
17.12
16.66
15.86
14.69
13.19
11.42
9.38
7.05
4.40
1.56
-1.24
-3.78
-5.98
-8.00
-10.21
-12.97
-16.36
-20.12
-23.65
-26.27
-27.52
-27.20
-25.39
-22.31
-18.19
-13.20
-7.50
-1.32
5.00
11.03
16.32
20.48
23.34
24.92
25.46
25.32
24.83
24.24
23.62
22.97
22.29
21.63
21.09
20.73
20.56
20.45
20.21
19.66
18.76
17.55
16.15
14.68
13.15
11.52
9.72
7.67
5.37
2.79
-0.08
-3.29
-6.85
-10.69
-14.61
-18.26
-21.24
-23.15
-23.74
-22.88
-20.63
-17.17
-12.81
-7.93
-2.97
1.72
5.85
9.20
11.68
13.26
14.01
14.08
13.70
13.10
12.40
11.68
10.89
10.06
9.28
8.74
8.58
8.81
9.23
9.44
9.07
7.91
5.98
3.53
0.90
-1.67
-4.10
-6.46
-8.99
-11.91
-15.33
-19.22
-23.29
-27.07
-30.02
-31.66
-31.74
-30.29
-27.53
-23.81
-19.44
-14.67
-9.68
-4.64
0.20
4.56
8.20
11.01
13.00
14.29
15.00
15.22
15.01
14.42
13.50
12.35
11.09
9.90
8.90
8.17
7.66
7.24
6.69
5.81
4.50
2.83
0.95
-0.97
-2.90
-4.93
-7.24
-10.00
-13.23
-16.85
-20.72
-24.62
-28.35
-31.59
-33.92
-34.89
-34.21
-31.83
-28.03
-23.31
-18.17
-12.99
-7.92
-2.98
1.74
6.07
9.73
12.53
14.39
15.49
16.09
16.49
16.84
17.16
17.38
17.39
17.15
16.73
16.30
16.00
15.90
15.91
15.76
15.15
13.83
11.73
8.99
5.91
2.84
-0.02
-2.61
-5.10
-7.71
-10.71
-14.23
-18.21
-22.43
-26.44
-29.76
-31.94
-32.69
-31.89
-29.56
-25.84
-20.93
-15.07
-8.65
-2.10
4.11
9.56
14.03
17.47
19.97
21.68
22.74
23.22
23.26
22.99
22.59
22.23
21.94
21.68
21.33
20.75
19.94
18.97
17.96
17.04
16.16
15.12
13.65
11.50
8.61
5.22
1.74
-1.44
-4.12
-6.39
-8.54
-10.84
-13.42
-16.16
-18.80
-21.08
-22.78
-23.78
-23.99
-23.31
-21.58
-18.68
-14.56
-9.30
-3.16
3.45
9.93
15.67
20.18
23.24
24.94
25.63
25.69
25.36
24.72
23.80
22.65
21.43
20.33
19.45
18.75
18.05
17.17
16.04
14.68
13.18
11.60
9.96
8.24
6.38
4.37
2.12
-0.44
-3.41
-6.82
-10.61
-14.58
-18.46
-21.94
-24.80
-26.85
-27.97
-28.07
-27.03
-24.75
-21.21
-16.48
-10.88
-4.92
0.81
5.76
9.55
12.02
13.25
13.44
12.84
11.76
10.54
9.50
8.90
8.79
8.99
9.17
8.99
8.33
7.34
6.35
5.66
5.29
4.95
4.21
2.77
0.65
-1.85
-4.29
-6.40
-8.19
-10.02
-12.32
-15.41
-19.31
-23.71
-28.09
-31.85
-34.48
-35.63
-35.16
-33.17
-29.88
-25.59
-20.58
-15.14
-9.55
-4.16
0.73
4.83
8.05
10.45
12.20
13.50
14.49
15.21
15.68
15.88
15.85
15.61
15.22
14.74
14.24
13.79
13.40
13.02
12.49
11.62
10.28
8.51
6.47
4.36
2.28
0.21
-2.00
-4.46
-7.18
-10.13
-13.25
-16.56
-20.08
-23.75
-27.28
-30.18
-31.87
-31.89
-30.06
-26.51
-21.63
-15.87
-9.66
-3.34
2.84
8.57
13.54
17.43
20.01
21.23
21.25
20.44
19.24
18.09
17.28
16.86
16.75
16.75
16.72
16.62
16.45
16.27
16.08
15.87
15.56
15.05
14.24
13.07
11.51
9.58
7.35
4.92
2.28
-0.57
-3.76
-7.32
-11.14
-14.98
-18.51
-21.44
-23.61
-25.00
-25.62
-25.42
-24.21
-21.72
-17.81
-12.56
-6.40
0.04
6.06
11.14
15.04
17.80
19.65
20.89
21.74
22.31
22.60
22.51
21.96
20.95
19.62
18.20
16.94
16.01
15.43
15.04
14.64
14.07
13.25
12.19
10.88
9.25
7.19
4.67
1.78
-1.28
-4.28
-7.07
-9.71
-12.31
-14.99
-17.63
-19.94
-21.56
-22.15
-21.62
-20.01
-17.51
-14.22
-10.21
-5.58
-0.58
4.28
8.39
11.21
12.41
12.11
10.71
8.77
6.83
5.20
4.04
3.32
3.01
3.06
3.45
4.14
4.96
5.67
5.93
5.46
4.15
2.14
-0.25
-2.59
-4.63
-6.31
-7.82
-9.49
-11.56
-14.18
-17.33
-20.84
-24.41
-27.65
-30.15
-31.53
-31.53
-30.09
-27.32
-23.49
-18.91
-13.89
-8.75
-3.83
0.56
4.21
7.06
9.17
10.68
11.68
12.19
12.23
11.88
11.32
10.75
10.30
9.95
9.60
9.17
8.68
8.30
8.17
8.29
8.44
8.23
7.32
5.56
3.13
0.36
-2.37
-4.83
-7.13
-9.54
-12.36
-15.76
-19.62
-23.52
-26.91
-29.29
-30.30
-29.89
-28.13
-25.23
-21.43
-17.00
-12.19
-7.24
-2.38
2.18
6.26
9.71
12.44
14.40
15.67
16.39
16.77
16.98
17.16
17.29
17.29
17.05
16.50
15.74
14.93
14.24
13.75
13.42
13.09
12.55
11.55
9.95
7.73
5.08
2.24
-0.54
-3.15
-5.69
-8.39
-11.47
-14.95
-18.59
-21.91
-24.43
-25.74
-25.71
-24.40
-21.99
-18.70
-14.69
-10.11
-5.09
0.22
5.57
10.60
14.88
18.01
19.77
20.19
19.60
18.46
17.22
16.17
15.42
14.92
14.59
14.36
14.20
14.09
13.99
13.89
13.73
13.47
13.01
12.19
10.86
9.01
6.82
4.60
2.69
1.21
0.03
-1.29
-3.22
-6.07
-9.79
-13.88
-17.64
-20.35
-21.59
-21.34
-19.85
-17.51
-14.63
-11.38
-7.78
-3.90
0.15
4.09
7.61
10.42
12.31
13.22
13.21
12.44
11.19
9.74
8.43
7.48
7.03
7.06
7.47
8.12
8.81
9.31
9.31
8.60
7.01
4.58
1.52
-1.86
-5.25
-8.40
-11.28
-13.96
-16.65
-19.56
-22.79
-26.28
-29.78
-32.80
-34.82
-35.36
-34.20
-31.41
-27.26
-22.18
-16.55
-10.72
-4.97
0.40
5.08
8.80
11.36
12.80
13.28
13.17
12.80
12.45
12.22
12.06
11.84
11.45
10.86
10.13
9.34
8.56
7.72
6.73
5.48
3.97
2.29
0.54
-1.21
-3.06
-5.12
-7.42
-9.85
-12.16
-14.17
-15.92
-17.63
-19.63
-22.08
-24.79
-27.29
-28.95
-29.34
-28.30
-26.00
-22.75
-18.83
-14.38
-9.44
-4.12
1.34
6.53
10.99
14.34
16.44
17.38
17.51
17.25
16.98
16.93
17.13
17.47
17.76
17.85
17.75
17.54
17.38
17.37
17.50
17.64
17.57
17.10
16.10
14.55
12.56
10.32
8.06
5.98
4.14
2.43
0.59
-1.73
-4.80
-8.68
-13.18
-17.88
-22.24
-25.77
-28.09
-29.02
-28.50
-26.53
-23.19
-18.58
-12.99
-6.82
-0.63
4.99
9.61
13.08
15.52
17.25
18.59
19.69
20.52
20.92
20.79
20.15
19.17
18.08
17.09
16.38
16.03
16.05
16.38
16.81
17.03
16.72
15.61
13.64
10.97
7.96
5.00
2.36
0.15
-1.77
-3.66
-5.80
-8.34
-11.27
-14.43
-17.49
-20.11
-21.99
-22.95
-22.89
-21.79
-19.68
-16.62
-12.72
-8.19
-3.34
1.46
5.86
9.57
12.42
14.33
15.32
15.48
15.03
14.25
13.46
12.84
12.44
12.12
11.64
10.89
9.88
8.79
7.81
7.04
6.35
5.46
4.12
2.18
-0.26
-2.97
-5.67
-8.18
-10.41
-12.48
-14.56
-16.90
-19.65
-22.88
-26.49
-30.21
-33.61
-36.27
-37.79
-37.91
-36.53
-33.70
-29.58
-24.46
-18.67
-12.64
-6.80
-1.55
2.90
6.44
9.17
11.22
12.71
13.75
14.39
14.72
14.86
14.93
15.03
15.15
15.25
15.26
15.19
15.04
14.84
14.52
14.02
13.22
12.07
10.55
8.64
6.36
3.72
0.81
-2.21
-5.11
-7.74
-10.11
-12.43
-15.01
-18.07
-21.61
-25.29
-28.56
-30.77
-31.48
-30.51
-27.96
-24.17
-19.49
-14.24
-8.65
-2.91
2.74
7.94
12.32
15.58
17.66
18.72
19.08
19.08
18.95
18.80
18.65
18.53
18.50
18.58
18.71
18.79
18.65
18.26
17.65
16.95
16.25
15.57
14.75
13.64
12.10
10.09
7.69
5.04
2.33
-0.33
-2.90
-5.43
-8.04
-10.92
-14.15
-17.64
-21.14
-24.18
-26.34
-27.31
-27.03
-25.63
-23.35
-20.38
-16.76
-12.46
-7.44
-1.86
3.94
9.41
13.96
17.13
18.78
19.13
18.69
18.07
17.77
18.01
18.66
19.38
19.87
19.95
19.66
19.20
18.73
18.33
17.99
17.61
17.08
16.39
15.55
14.57
13.41
11.90
9.85
7.08
3.55
-0.58
-4.98
-9.31
-13.23
-16.56
-19.22
-21.15
-22.30
-22.61
-22.02
-20.47
-17.96
-14.50
-10.18
-5.22
-0.02
4.86
8.86
11.63
13.07
13.40
12.99
12.20
11.22
10.18
9.09
8.02
7.03
6.19
5.51
4.96
4.51
4.12
3.77
3.40
2.94
2.24
1.18
-0.32
-2.19
-4.28
-6.48
-8.76
-11.23
-14.08
-17.43
-21.18
-25.03
-28.51
-31.10
-32.47
-32.55
-31.52
-29.64
-27.13
-23.99
-20.08
-15.30
-9.74
-3.78
1.96
6.87
10.52
12.79
13.87
14.07
13.74
13.12
12.36
11.57
10.81
10.17
9.65
9.25
8.93
8.68
8.50
8.36
8.20
7.86
7.15
5.91
4.13
1.87
-0.65
-3.24
-5.78
-8.32
-11.01
-14.02
-17.43
-21.12
-24.77
-27.92
-30.11
-31.04
-30.62
-28.99
-26.35
-22.88
-18.63
-13.58
-7.80
-1.59
4.59
10.13
14.54
17.59
19.36
20.13
20.29
20.15
19.94
19.75
19.55
19.23
18.68
17.83
16.77
15.71
14.93
14.65
14.91
15.45
15.83
15.60
14.54
12.72
10.46
8.19
6.18
4.42
2.64
0.45
-2.41
-5.98
-9.97
-13.96
-17.48
-20.25
-22.17
-23.23
-23.46
-22.85
-21.33
-18.82
-15.28
-10.82
-5.65
-0.17
5.10
9.63
13.04
15.20
16.34
16.91
17.35
17.96
18.70
19.34
19.57
19.23
18.40
17.40
16.59
16.22
16.31
16.63
16.85
16.65
15.88
14.59
12.97
11.25
9.60
7.99
6.27
4.24
1.77
-1.14
-4.39
-7.79
-11.20
-14.49
-17.50
-20.07
-21.92
-22.81
-22.63
-21.40
-19.26
-16.37
-12.87
-8.83
-4.40
0.15
4.40
7.88
10.24
11.40
11.54
11.09
10.52
10.14
10.07
10.18
10.22
9.98
9.41
8.67
8.00
7.58
7.43
7.34
6.99
6.08
4.52
2.44
0.11
-2.17
-4.19
-5.96
-7.64
-9.48
-11.71
-14.47
-17.80
-21.63
-25.83
-30.15
-34.20
-37.48
-39.47
-39.75
-38.13
-34.77
-30.02
-24.34
-18.14
-11.80
-5.64
-0.05
4.63
8.18
10.64
12.29
13.50
14.50
15.35
15.89
15.98
15.64
15.11
14.70
14.66
15.05
15.73
16.49
17.11
17.47
17.44
16.93
15.82
14.08
11.78
9.12
6.40
3.86
1.62
-0.36
-2.23
-4.22
-6.53
-9.27
-12.48
-16.07
-19.83
-23.48
-26.62
-28.88
-29.92
-29.49
-27.52
-24.08
-19.39
-13.80
-7.71
-1.50
4.45
9.82
14.31
17.66
19.71
20.47
20.16
19.20
18.09
17.24
16.80
16.70
16.70
16.58
16.29
15.90
15.56
15.35
15.23
15.05
14.64
13.90
12.82
11.45
9.83
7.95
5.77
3.29
0.57
-2.28
-5.17
-8.07
-11.01
-13.99
-16.88
-19.37
-21.04
-21.54
-20.69
-18.62
-15.67
-12.22
-8.51
-4.66
-0.66
3.39
7.24
10.49
12.77
13.95
14.13
13.68
12.97
12.23
11.48
10.59
9.46
8.14
6.89
5.99
5.62
5.70
5.92
5.89
5.36
4.23
2.67
0.87
-1.03
-3.03
-5.24
-7.76
-10.60
-13.66
-16.80
-19.84
-22.63
-24.95
-26.59
-27.30
-26.91
-25.36
-22.78
-19.38
-15.40
-11.04
-6.53
-2.12
1.88
5.16
7.46
8.69
8.96
8.52
7.70
6.75
5.88
5.16
4.58
4.12
3.71
3.33
2.95
2.57
2.12
1.50
0.63
-0.56
-2.07
-3.86
-5.92
-8.22
-10.78
-13.60
-16.69
-19.98
-23.37
-26.66
-29.55
-31.66
-32.60
-32.07
-29.93
-26.32
-21.58
-16.16
-10.52
-5.03
0.06
4.58
8.44
11.61
14.07
15.82
16.82
17.10
16.72
15.83
14.70
13.62
12.79
12.27
11.96
11.64
11.12
10.29
9.13
7.72
6.10
4.32
2.35
0.16
-2.38
-5.36
-8.84
-12.80
-17.04
-21.27
-25.11
-28.23
-30.38
-31.37
-31.07
-29.41
-26.36
-22.07
-16.89
-11.28
-5.77
-0.69
3.76
7.56
10.77
13.37
15.31
16.56
17.16
17.20
16.86
16.34
15.80
15.34
15.05
14.92
14.80
14.48
13.74
12.55
11.02
9.37
7.80
6.32
4.79
2.98
0.73
-1.96
-5.00
-8.28
-11.74
-15.40
-19.24
-23.14
-26.77
-29.70
-31.48
-31.78
-30.43
-27.47
-23.11
-17.73
-11.82
-5.88
-0.27
4.75
9.06
12.64
15.50
17.66
19.19
20.19
20.85
21.30
21.62
21.79
21.73
21.35
20.66
19.80
18.99
18.46
18.26
18.22
17.96
17.07
15.29
12.66
9.54
6.38
3.56
1.21
-0.81
-2.73
-4.78
-7.10
-9.75
-12.77
-16.13
-19.71
-23.14
-25.87
-27.30
-26.95
-24.70
-20.79
-15.70
-9.98
-4.14
1.51
6.81
11.67
15.99
19.61
22.31
23.92
24.49
24.28
23.75
23.31
23.15
23.21
23.20
22.87
22.17
21.32
20.64
20.36
20.44
20.53
20.18
19.00
16.91
14.15
11.15
8.34
5.99
4.07
2.27
0.16
-2.67
-6.39
-10.84
-15.58
-20.07
-23.83
-26.57
-28.16
-28.62
-27.95
-26.08
-22.92
-18.49
-13.00
-6.84
-0.57
5.26
10.21
13.99
16.56
17.99
18.47
18.28
17.68
16.90
16.06
15.19
14.27
13.33
12.51
11.96
11.79
11.90
12.01
11.73
10.80
9.15
7.00
4.64
2.35
0.21
-1.84
-3.94
-6.24
-8.86
-11.90
-15.37
-19.19
-23.01
-26.36
-28.66
-29.49
-28.67
-26.35
-22.91
-18.71
-14.05
-9.08
-3.93
1.22
6.07
10.19
13.26
15.13
15.94
15.97
15.56
14.92
14.10
13.08
11.90
10.73
9.81
9.33
9.29
9.44
9.41
8.91
7.81
6.22
4.33
2.26
0.04
-2.41
-5.15
-8.14
-11.27
-14.45
-17.61
-20.76
-23.88
-26.83
-29.35
-31.04
-31.58
-30.74
-28.54
-25.11
-20.65
-15.41
-9.63
-3.65
2.16
7.41
11.84
15.29
17.76
19.35
20.20
20.49
20.36
20.00
19.58
19.23
18.99
18.82
18.59
18.17
17.46
16.43
15.13
13.66
12.08
10.39
8.54
6.39
3.86
0.96
-2.12
-5.12
-7.80
-10.13
-12.32
-14.75
-17.73
-21.25
-24.93
-28.09
-30.04
-30.33
-28.94
-26.11
-22.21
-17.54
-12.26
-6.49
-0.48
5.36
10.50
14.52
17.21
18.65
19.16
19.13
18.95
18.87
18.97
19.21
19.46
19.55
19.37
18.90
18.19
17.37
16.54
15.73
14.85
13.75
12.28
10.38
8.16
5.76
3.37
1.03
-1.32
-3.81
-6.60
-9.79
-13.34
-17.11
-20.89
-24.42
-27.38
-29.41
-30.22
-29.61
-27.54
-24.16
-19.74
-14.58
-8.95
-3.12
2.62
7.94
12.47
15.92
18.15
19.19
19.25
18.67
17.76
16.79
15.93
15.28
14.88
14.79
14.97
15.34
15.72
15.91
15.74
15.14
14.13
12.77
11.14
9.25
7.10
4.71
2.11
-0.67
-3.69
-7.04
-10.86
-15.14
-19.67
-24.00
-27.56
-29.83
-30.46
-29.41
-26.83
-23.01
-18.30
-13.03
-7.48
-1.97
3.14
7.51
10.79
12.82
13.64
13.58
13.09
12.58
12.29
12.21
12.14
11.84
11.26
10.54
9.93
9.60
9.55
9.51
9.12
8.15
6.57
4.66
2.75
1.09
-0.29
-1.59
-3.07
-4.98
-7.36
-10.11
-12.98
-15.74
-18.18
-20.15
-21.51
-22.06
-21.62
-19.97
-17.03
-12.88
-7.82
-2.31
3.14
8.06
12.13
15.14
17.00
17.72
17.39
16.22
14.51
12.63
10.93
9.64
8.81
8.39
8.25
8.26
8.34
8.41
8.44
8.37
8.15
7.70
6.95
5.81
4.23
2.16
-0.42
-3.46
-6.81
-10.21
-13.35
-15.90
-17.57
-18.19
-17.67
-16.04
-13.36
-9.77
-5.47
-0.76
3.93
8.16
11.49
13.70
14.81
15.08
14.84
14.41
13.93
13.41
12.72
11.78
10.55
9.11
7.65
6.30
5.18
4.27
3.50
2.73
1.92
1.01
-0.05
-1.38
-3.15
-5.51
-8.45
-11.72
-14.91
-17.59
-19.44
-20.36
-20.37
-19.48
-17.65
-14.78
-10.91
-6.30
-1.48
2.90
6.30
8.39
9.19
8.91
7.94
6.65
5.34
4.19
3.19
2.27
1.31
0.27
-0.75
-1.59
-2.12
-2.39
-2.60
-3.04
-3.94
-5.35
-7.20
-9.38
-11.89
-14.82
-18.18
-21.86
-25.43
-28.36
-30.12
-30.47
-29.43
-27.22
-24.07
-20.12
-15.47
-10.26
-4.87
0.18
4.36
7.32
9.07
9.85
10.02
9.89
9.64
9.33
8.96
8.47
7.80
6.89
5.74
4.48
3.29
2.35
1.66
1.02
0.08
-1.50
-3.85
-6.88
-10.34
-13.97
-17.66
-21.36
-24.99
-28.31
-30.85
-32.07
-31.60
-29.34
-25.57
-20.78
-15.48
-10.02
-4.60
0.64
5.58
9.94
13.45
15.87
17.14
17.43
17.06
16.39
15.67
15.01
14.35
13.54
12.51
11.27
9.92
8.59
7.34
6.08
4.63
2.81
0.59
-1.94
-4.54
-7.00
-9.28
-11.53
-13.99
-16.80
-19.89
-22.84
-25.06
-25.96
-25.19
-22.72
-18.89
-14.20
-9.19
-4.22
0.49
4.91
9.00
12.73
16.00
18.67
20.61
21.75
22.08
21.70
20.82
19.67
18.53
17.61
16.99
16.62
16.31
15.84
15.00
13.68
11.89
9.73
7.34
4.83
2.27
-0.38
-3.20
-6.30
-9.68
-13.25
-16.76
-19.90
-22.33
-23.77
-23.98
-22.85
-20.35
-16.63
-11.97
-6.80
-1.57
3.36
7.82
11.82
15.44
18.70
21.50
23.67
25.04
25.58
25.41
24.74
23.76
22.59
21.32
19.98
18.65
17.38
16.23
15.21
14.28
13.35
12.34
11.15
9.71
8.00
5.99
3.77
1.43
-0.94
-3.27
-5.61
-8.04
-10.67
-13.48
-16.30
-18.76
-20.41
-20.84
-19.80
-17.30
-13.57
-9.05
-4.17
0.65
5.09
8.95
12.04
14.27
15.58
16.03
15.72
14.91
13.82
12.66
11.56
10.60
9.79
9.15
8.63
8.21
7.81
7.34
6.71
5.85
4.73
3.33
1.68
-0.15
-2.08
-4.04
-6.06
-8.20
-10.57
-13.22
-16.03
-18.76
-21.11
-22.80
-23.66
-23.63
-22.68
-20.81
-18.02
-14.41
-10.20
-5.77
-1.53
2.17
5.15
7.38
8.92
9.91
10.40
10.47
10.18
9.65
9.04
8.47
8.03
7.68
7.33
6.87
6.23
5.39
4.34
3.07
1.54
-0.26
-2.26
-4.33
-6.36
-8.27
-10.10
-11.99
-14.11
-16.52
-19.31
-22.45
-25.90
-29.43
-32.59
-34.80
-35.47
-34.31
-31.40
-27.22
-22.36
-17.34
-12.36
-7.42
-2.50
2.28
6.56
9.98
12.31
13.63
14.24
14.57
14.91
15.41
15.96
16.42
16.64
16.57
16.28
15.85
15.31
14.65
13.81
12.73
11.39
9.81
8.06
6.18
4.22
2.22
0.21
-1.82
-3.92
-6.25
-9.01
-12.38
-16.31
-20.47
-24.34
-27.32
-28.99
-29.15
-27.85
-25.30
-21.74
-17.36
-12.39
-7.09
-1.72
3.45
8.20
12.39
15.90
18.62
20.47
21.49
21.85
21.80
21.61
21.44
21.35
21.28
21.13
20.87
20.51
20.09
19.64
19.17
18.64
17.96
17.04
15.78
14.10
11.98
9.45
6.57
3.44
0.18
-3.10
-6.32
-9.43
-12.45
-15.50
-18.59
-21.67
-24.46
-26.55
-27.51
-27.07
-25.23
-22.20
-18.26
-13.61
-8.41
-2.80
2.97
8.54
13.48
17.49
20.41
22.26
23.19
23.36
22.96
22.17
21.21
20.25
19.34
18.38
17.22
15.74
14.02
12.25
10.67
9.35
8.17
6.84
5.14
3.02
0.68
-1.63
-3.69
-5.49
-7.19
-8.98
-10.99
-13.20
-15.53
-17.85
-20.03
-21.95
-23.42
-24.17
-23.90
-22.41
-19.60
-15.60
-10.68
-5.24
0.24
5.26
9.36
12.17
13.52
13.49
12.46
10.94
9.47
8.42
7.87
7.71
7.69
7.60
7.35
6.93
6.38
5.66
4.65
3.25
1.42
-0.68
-2.86
-4.90
-6.75
-8.48
-10.31
-12.45
-15.05
-18.11
-21.50
-25.00
-28.30
-31.09
-33.04
-33.95
-33.74
-32.48
-30.31
-27.38
-23.79
-19.58
-14.78
-9.56
-4.20
0.85
5.18
8.46
10.59
11.68
11.96
11.76
11.33
10.85
10.41
10.05
9.82
9.75
9.85
10.06
10.24
10.13
9.51
8.28
6.54
4.50
2.44
0.52
-1.26
-3.03
-4.98
-7.22
-9.78
-12.60
-15.57
-18.53
-21.21
-23.27
-24.28
-23.86
-21.81
-18.24
-13.56
-8.36
-3.21
1.51
5.65
9.33
12.67
15.76
18.48
20.61
21.90
22.27
21.87
21.06
20.27
19.77
19.61
19.62
19.55
19.22
18.60
17.77
16.87
16.04
15.29
14.51
13.56
12.23
10.38
7.99
5.20
2.21
-0.70
-3.45
-6.10
-8.89
-12.01
-15.45
-18.88
-21.76
-23.51
-23.75
-22.40
-19.67
-15.95
-11.63
-7.06
-2.56
1.63
5.28
8.19
10.23
11.37
11.64
11.21
10.28
9.08
7.88
6.89
6.27
6.05
6.12
6.28
6.29
5.95
5.19
4.01
2.47
0.62
-1.49
-3.79
-6.22
-8.65
-11.03
-13.38
-15.83
-18.59
-21.77
-25.29
-28.81
-31.77
-33.58
-33.73
-32.00
-28.51
-23.71
-18.27
-12.81
-7.76
-3.25
0.75
4.32
7.40
9.78
11.26
11.79
11.61
11.12
10.75
10.67
10.82
10.92
10.69
10.03
9.03
7.92
6.88
5.97
5.09
4.04
2.59
0.60
-1.96
-5.00
-8.33
-11.75
-15.16
-18.54
-21.93
-25.27
-28.32
-30.65
-31.80
-31.43
-29.47
-26.12
-21.70
-16.55
-10.96
-5.18
0.47
5.66
10.09
13.63
16.33
18.36
19.82
20.76
21.10
20.80
19.97
18.89
17.88
17.20
16.91
16.87
16.85
16.67
16.22
15.52
14.61
13.52
12.23
10.71
8.91
6.80
4.45
1.91
-0.83
-3.78
-7.02
-10.56
-14.27
-17.90
-21.05
-23.35
-24.46
-24.17
-22.38
-19.12
-14.60
-9.17
-3.33
2.41
7.66
12.15
15.79
18.54
20.43
21.51
21.95
21.96
21.79
21.57
21.28
20.83
20.14
19.28
18.45
17.93
17.85
18.17
18.64
18.93
18.75
17.92
16.39
14.23
11.58
8.61
5.51
2.41
-0.68
-3.89
-7.39
-11.26
-15.36
-19.29
-22.52
-24.55
-25.03
-23.95
-21.48
-17.94
-13.67
-8.98
-4.08
0.75
5.23
9.07
12.03
13.97
14.90
14.97
14.43
13.59
12.71
11.99
11.49
11.17
10.91
10.59
10.15
9.56
8.87
8.06
7.11
5.92
4.42
2.54
0.31
-2.21
-4.97
-7.94
-11.19
-14.79
-18.80
-23.08
-27.29
-30.90
-33.37
-34.30
-33.54
-31.16
-27.37
-22.46
-16.71
-10.46
-4.13
1.85
7.09
11.34
14.51
16.58
17.61
17.71
17.06
15.98
14.85
14.00
13.59
13.52
13.54
13.40
12.98
12.30
11.47
10.50
9.34
7.84
5.90
3.52
0.82
-2.00
-4.77
-7.40
-9.93
-12.55
-15.53
-19.13
-23.36
-27.93
-32.23
-35.51
-37.18
-36.97
-34.99
-31.61
-27.26
-22.27
-16.76
-10.82
-4.58
1.69
7.61
12.75
16.74
19.39
20.76
21.10
20.84
20.42
20.17
20.19
20.36
20.44
20.25
19.77
19.17
18.70
18.48
18.39
18.15
17.36
15.75
13.21
9.90
6.14
2.32
-1.23
-4.31
-6.92
-9.29
-11.78
-14.70
-18.20
-22.10
-25.91
-29.00
-30.75
-30.78
-29.02
-25.65
-20.99
-15.38
-9.12
-2.49
4.17
10.44
15.91
20.22
23.23
24.98
25.69
25.74
25.48
25.23
25.19
25.39
25.68
25.80
25.50
24.69
23.50
22.27
21.30
20.71
20.33
19.77
18.66
16.81
14.31
11.42
8.44
5.59
2.96
0.47
-2.02
-4.75
-7.91
-11.58
-15.61
-19.56
-22.86
-24.94
-25.49
-24.49
-22.17
-18.83
-14.69
-9.90
-4.59
1.00
6.48
11.36
15.20
17.77
19.06
19.31
18.85
18.04
17.12
16.24
15.40
14.55
13.73
13.00
12.47
12.15
11.95
11.66
11.02
9.87
8.13
5.81
3.06
0.03
-3.07
-6.04
-8.79
-11.39
-14.06
-17.16
-20.89
-25.21
-29.66
-33.53
-36.11
-36.93
-35.93
-33.35
-29.61
-25.04
-19.81
-14.02
-7.78
-1.40
4.68
9.93
13.95
16.57
17.90
18.28
18.08
17.62
17.07
16.47
15.77
14.98
14.13
13.33
12.67
12.19
11.80
11.31
10.56
9.37
7.71
5.60
3.17
0.54
-2.21
-5.03
-7.93
-10.98
-14.24
-17.76
-21.51
-25.32
-28.94
-32.03
-34.20
-35.15
-34.71
-32.83
-29.57
-25.12
-19.67
-13.49
-6.88
-0.21
6.08
11.57
15.91
18.89
20.46
20.72
19.97
18.59
17.02
15.66
14.74
14.29
14.19
14.23
14.26
14.23
14.16
14.02
13.71
12.99
11.68
9.73
7.27
4.58
1.92
-0.58
-2.98
-5.45
-8.19
-11.30
-14.74
-18.37
-21.91
-25.03
-27.35
-28.55
-28.35
-26.65
-23.46
-18.97
-13.50
-7.51
-1.48
4.10
8.91
12.78
15.69
17.73
18.97
19.49
19.38
18.82
18.09
17.54
17.43
17.86
18.71
19.68
20.42
20.70
20.35
19.39
17.92
16.09
14.00
11.73
9.31
6.68
3.87
0.96
-1.97
-4.83
-7.66
-10.57
-13.72
-17.12
-20.60
-23.77
-26.14
-27.24
-26.79
-24.77
-21.37
-16.96
-11.92
-6.62
-1.31
3.82
8.67
13.10
16.94
19.95
21.90
22.74
22.58
21.74
20.58
19.40
18.34
17.39
16.50
15.66
14.95
14.50
14.36
14.43
14.45
14.08
13.07
11.29
8.78
5.71
2.24
-1.41
-5.18
-9.04
-13.01
-17.08
-21.06
-24.60
-27.19
-28.33
-27.71
-25.38
-21.71
-17.26
-12.58
-8.01
-3.69
0.37
4.08
7.28
9.72
11.21
11.77
11.61
11.09
10.47
9.86
9.20
8.42
7.55
6.79
6.37
6.41
6.78
7.13
7.05
6.26
4.78
2.86
0.83
-1.16
-3.13
-5.30
-7.95
-11.25
-15.20
-19.64
-24.25
-28.64
-32.37
-35.00
-36.18
-35.67
-33.40
-29.53
-24.37
-18.41
-12.15
-6.07
-0.57
4.12
7.87
10.62
12.37
13.15
13.04
12.24
11.03
9.74
8.69
8.07
7.85
7.87
7.85
7.60
7.04
6.21
5.24
4.18
3.06
1.76
0.18
-1.73
-3.86
-6.14
-8.48
-10.96
-13.75
-16.94
-20.46
-23.95
-26.85
-28.64
-28.94
-27.72
-25.15
-21.54
-17.16
-12.21
-6.88
-1.40
3.92
8.73
12.73
15.75
17.81
19.05
19.72
20.10
20.39
20.68
20.88
20.85
20.48
19.81
19.01
18.33
17.89
17.65
17.38
16.81
15.71
14.02
11.84
9.33
6.67
4.01
1.44
-1.05
-3.57
-6.33
-9.57
-13.41
-17.71
-22.08
-25.92
-28.66
-29.90
-29.53
-27.67
-24.63
-20.68
-16.06
-10.97
-5.65
-0.42
4.40
8.53
11.86
14.45
16.42
17.86
18.76
19.02
18.58
17.50
16.06
14.64
13.56
13.01
12.96
13.20
13.50
13.66
13.59
13.24
12.61
11.62
10.15
8.08
5.39
2.24
-1.09
-4.28
-7.20
-9.91
-12.59
-15.42
-18.36
-21.09
-23.08
-23.85
-23.15
-21.08
-18.03
-14.46
-10.74
-7.08
-3.55
-0.22
2.82
5.38
7.27
8.37
8.74
8.56
8.08
7.50
6.91
6.29
5.60
4.85
4.08
3.36
2.74
2.23
1.83
1.54
1.38
1.32
1.23
0.89
0.01
-1.68
-4.23
-7.46
-10.97
-14.25
-16.90
-18.69
-19.61
-19.71
-18.99
-17.30
-14.44
-10.28
-5.00
0.88
6.59
11.35
14.64
16.36
16.79
16.39
15.55
14.50
13.29
12.00
10.75
9.75
9.22
9.20
9.46
9.64
9.35
8.39
6.90
5.13
3.40
1.81
0.22
-1.66
-4.10
-7.18
-10.79
-14.68
-18.48
-21.82
-24.34
-25.70
-25.60
-23.89
-20.61
-16.02
-10.57
-4.84
0.59
5.20
8.65
10.82
11.84
11.99
11.58
10.85
9.92
8.90
7.82
6.80
5.93
5.23
4.63
3.98
3.12
1.98
0.65
-0.73
-2.02
-3.22
-4.50
-6.15
-8.43
-11.47
-15.11
-18.93
-22.36
-24.80
-25.86
-25.40
-23.55
-20.53
-16.57
-11.88
-6.68
-1.29
3.81
8.11
11.20
12.91
13.37
12.96
12.11
11.22
10.52
10.04
9.69
9.29
8.68
7.77
6.59
5.24
3.86
2.56
1.32
0.08
-1.29
-2.88
-4.75
-6.96
-9.62
-12.86
-16.74
-21.10
-25.55
-29.49
-32.29
-33.44
-32.69
-30.09
-25.92
-20.61
-14.63
-8.49
-2.60
2.68
7.13
10.62
13.15
14.78
15.62
15.81
15.51
14.90
14.16
13.43
12.77
12.21
11.73
11.29
10.85
10.33
9.64
8.65
7.23
5.37
3.15
0.73
-1.77
-4.41
-7.42
-11.09
-15.61
-20.82
-26.23
-31.14
-34.89
-37.06
-37.58
-36.57
-34.19
-30.52
-25.55
-19.33
-12.15
-4.59
2.63
8.85
13.67
17.10
19.37
20.76
21.50
21.64
21.28
20.58
19.81
19.26
19.07
19.14
19.19
18.94
18.22
17.09
15.70
14.23
12.74
11.15
9.28
6.95
4.05
0.57
-3.34
-7.46
-11.56
-15.53
-19.42
-23.40
-27.64
-32.13
-36.58
-40.41
-42.96
-43.69
-42.32
-38.98
-34.03
-27.97
-21.31
-14.46
-7.71
-1.24
4.81
10.31
15.10
19.03
21.97
23.91
25.02
25.54
25.77
25.85
25.82
25.58
25.08
24.34
23.49
22.75
22.22
21.84
21.41
20.65
19.34
17.39
14.84
11.86
8.71
5.58
2.65
-0.04
-2.58
-5.17
-8.02
-11.31
-15.08
-19.25
-23.65
-28.03
-32.12
-35.55
-37.88
-38.64
-37.52
-34.46
-29.76
-23.92
-17.48
-10.90
-4.38
1.99
8.10
13.70
18.39
21.77
23.67
24.24
23.95
23.40
23.05
23.14
23.62
24.30
24.99
25.55
25.97
26.22
26.27
26.00
25.29
24.07
22.40
20.43
18.32
16.21
14.13
12.02
9.74
7.15
4.18
0.89
-2.60
-6.11
-9.55
-12.99
-16.63
-20.68
-25.15
-29.75
-33.78
-36.37
-36.77
-34.64
-30.24
-24.23
-17.42
-10.47
-3.68
2.88
9.12
14.83
19.65
23.26
25.47
26.44
26.49
26.01
25.31
24.58
23.90
23.28
22.70
22.15
21.59
21.10
20.76
20.65
20.75
20.87
20.70
19.93
18.42
16.25
13.74
11.20
8.88
6.82
4.90
2.92
0.73
-1.75
-4.51
-7.50
-10.67
-13.96
-17.23
-20.25
-22.63
-23.94
-23.78
-21.94
-18.47
-13.70
-8.18
-2.52
2.73
7.25
10.89
13.66
15.57
16.62
16.75
16.02
14.65
13.04
11.65
10.77
10.42
10.39
10.41
10.31
10.15
10.07
10.14
10.25
10.05
9.23
7.62
5.37
2.78
0.18
-2.31
-4.85
-7.72
-11.16
-15.09
-19.21
-22.95
-25.78
-27.29
-27.36
-26.07
-23.61
-20.21
-16.09
-11.49
-6.60
-1.72
2.88
6.92
10.14
12.35
13.45
13.52
12.74
11.41
9.84
8.26
6.77
5.38
4.08
2.88
1.88
1.16
0.78
0.63
0.48
0.03
-0.93
-2.46
-4.40
-6.49
-8.49
-10.29
-11.98
-13.85
-16.16
-19.07
-22.45
-25.87
-28.72
-30.36
-30.31
-28.43
-24.87
-20.02
-14.38
-8.44
-2.60
2.88
7.81
11.98
15.19
17.23
18.00
17.57
16.24
14.46
12.68
11.24
10.28
9.69
9.31
9.01
8.72
8.43
8.14
7.78
7.20
6.27
4.93
3.25
1.35
-0.65
-2.71
-4.88
-7.23
-9.80
-12.61
-15.60
-18.68
-21.63
-24.14
-25.75
-25.97
-24.49
-21.25
-16.60
-11.16
-5.64
-0.61
3.63
7.06
9.86
12.17
14.08
15.50
16.34
16.46
15.90
14.78
13.34
11.86
10.53
9.48
8.73
8.27
8.03
7.98
8.03
8.04
7.81
7.16
5.95
4.22
2.08
-0.30
-2.81
-5.46
-8.33
-11.46
-14.79
-18.13
-21.12
-23.41
-24.70
-24.84
-23.81
-21.69
-18.58
-14.64
-10.08
-5.24
-0.55
3.55
6.73
8.83
9.97
10.38
10.37
10.15
9.83
9.48
9.08
8.67
8.35
8.18
8.17
8.22
8.19
7.93
7.36
6.53
5.54
4.45
3.24
1.79
0.01
-2.12
-4.46
-6.85
-9.18
-11.47
-13.78
-16.08
-18.11
-19.40
-19.49
-18.14
-15.47
-11.85
-7.75
-3.50
0.71
4.84
8.79
12.35
15.20
17.07
17.82
17.54
16.57
15.30
14.03
12.90
11.85
10.78
9.62
8.49
7.58
7.08
6.98
7.04
6.91
6.32
5.23
3.87
2.52
1.38
0.39
-0.75
-2.33
-4.49
-7.10
-9.69
-11.71
-12.64
-12.20
-10.42
-7.54
-3.98
-0.12
3.69
7.12
9.95
11.98
13.20
13.76
13.99
14.23
14.65
15.01
14.71
13.04
9.52
4.27
-1.93
-7.88
-12.48
-15.07
-15.71
-14.94
-13.48
-11.88
-10.41
-9.22
-8.44
-8.29
-9.05
-10.83
-13.43
-16.39
-19.07
-20.89
-21.49
-20.83
-19.01
-16.30
-12.94
-9.15
-5.14
-1.18
2.47
5.51
7.69
8.89
9.08
8.41
7.08
5.38
3.59
1.97
0.73
-0.05
-0.42
-0.57
-0.74
-1.16
-1.95
-3.09
-4.43
-5.78
-6.98
-8.00
-8.97
-10.16
-11.91
-14.44
-17.69
-21.30
-24.58
-26.84
-27.53
-26.48
-23.87
-20.10
-15.58
-10.63
-5.51
-0.45
4.27
8.30
11.33
13.17
13.83
13.50
12.53
11.32
10.25
9.53
9.19
9.03
8.78
8.22
7.30
6.19
5.12
4.25
3.49
2.60
1.36
-0.33
-2.32
-4.42
-6.51
-8.68
-11.13
-14.03
-17.27
-20.40
-22.80
-23.85
-23.22
-20.91
-17.25
-12.67
-7.60
-2.36
2.80
7.63
11.83
15.10
17.31
18.52
19.02
19.19
19.27
19.35
19.30
18.93
18.10
16.87
15.44
14.05
12.86
11.88
10.99
10.01
8.81
7.42
6.04
4.89
4.10
3.52
2.80
1.49
-0.72
-3.80
-7.45
-11.14
-14.39
-16.86
-18.41
-18.96
-18.42
-16.63
-13.47
-8.94
-3.36
2.67
8.39
13.08
16.29
17.91
18.25
17.80
17.08
16.42
15.89
15.35
14.59
13.43
11.95
10.39
9.10
8.33
8.11
8.24
8.35
8.10
7.33
6.09
4.51
2.73
0.72
-1.58
-4.26
-7.31
-10.60
-13.95
-17.09
-19.78
-21.75
-22.79
-22.73
-21.51
-19.19
-15.89
-11.79
-7.13
-2.22
2.54
6.71
9.88
11.85
12.71
12.76
12.40
11.94
11.46
10.81
9.80
8.31
6.49
4.65
3.17
2.27
1.88
1.73
1.43
0.77
-0.29
-1.62
-3.07
-4.58
-6.24
-8.15
-10.37
-12.84
-15.42
-18.05
-20.71
-23.46
-26.23
-28.80
-30.80
-31.79
-31.49
-29.77
-26.74
-22.63
-17.75
-12.45
-7.05
-1.87
2.79
6.76
9.94
12.34
14.04
15.10
15.62
15.66
15.33
14.75
14.04
13.34
12.70
12.22
11.92
11.78
11.71
11.58
11.23
10.51
9.36
7.76
5.78
3.58
1.36
-0.71
-2.57
-4.29
-6.13
-8.34
-11.09
-14.35
-17.83
-21.05
-23.51
-24.84
-24.83
-23.49
-20.90
-17.21
-12.60
-7.28
-1.58
4.12
9.34
13.68
16.89
18.95
20.11
20.72
21.08
21.34
21.41
21.11
20.30
19.10
17.84
16.91
16.57
16.75
17.14
17.30
16.90
15.86
14.30
12.43
10.41
8.29
6.09
3.85
1.70
-0.16
-1.69
-3.09
-4.75
-7.10
-10.32
-14.15
-17.91
-20.75
-21.97
-21.26
-18.78
-14.97
-10.40
-5.52
-0.73
3.69
7.50
10.54
12.69
14.00
14.56
14.54
14.07
13.32
12.44
11.57
10.79
10.04
9.22
8.23
7.10
6.00
5.12
4.55
4.21
3.82
3.10
1.82
-0.06
-2.39
-4.95
-7.54
-10.08
-12.64
-15.35
-18.31
-21.51
-24.69
-27.42
-29.20
-29.64
-28.52
-25.90
-21.98
-17.06
-11.50
-5.68
-0.06
4.86
8.70
11.29
12.69
13.14
12.96
12.41
11.63
10.71
9.72
8.69
7.66
6.67
5.71
4.73
3.76
2.79
1.80
0.76
-0.40
-1.75
-3.31
-5.03
-6.86
-8.76
-10.70
-12.71
-14.83
-17.16
-19.81
-22.82
-26.11
-29.33
-32.01
-33.60
-33.70
-32.17
-29.15
-24.96
-19.93
-14.37
-8.58
-2.86
2.46
7.09
10.87
13.80
15.94
17.36
18.08
18.18
17.78
17.13
16.49
16.02
15.72
15.43
15.01
14.37
13.54
12.61
11.61
10.50
9.14
7.42
5.30
2.86
0.26
-2.33
-4.81
-7.23
-9.76
-12.62
-15.89
-19.42
-22.78
-25.38
-26.66
-26.30
-24.22
-20.60
-15.73
-9.90
-3.51
3.01
9.09
14.25
18.17
20.87
22.61
23.69
24.32
24.51
24.22
23.47
22.45
21.46
20.75
20.38
20.20
19.95
19.40
18.54
17.44
16.23
14.96
13.51
11.77
9.59
7.03
4.23
1.43
-1.23
-3.76
-6.31
-9.12
-12.34
-15.96
-19.63
-22.79
-24.83
-25.24
-23.85
-20.81
-16.59
-11.72
-6.63
-1.55
3.42
8.22
12.69
16.53
19.45
21.29
22.10
22.17
21.82
21.34
20.80
20.17
19.37
18.43
17.46
16.69
16.26
16.16
16.19
15.98
15.23
13.71
11.46
8.63
5.49
2.25
-0.97
-4.15
-7.33
-10.54
-13.79
-17.00
-19.99
-22.49
-24.19
-24.78
-24.09
-22.12
-19.01
-15.05
-10.57
-5.89
-1.29
2.97
6.69
9.70
11.91
13.25
13.73
13.38
12.35
10.85
9.21
7.77
6.81
6.44
6.60
7.02
7.41
7.51
7.21
6.53
5.51
4.20
2.57
0.54
-1.91
-4.70
-7.69
-10.70
-13.67
-16.65
-19.75
-23.01
-26.27
-29.22
-31.40
-32.41
-31.95
-29.88
-26.21
-21.16
-15.10
-8.61
-2.31
3.27
7.84
11.38
14.02
15.91
17.10
17.58
17.39
16.75
15.94
15.22
14.65
14.11
13.42
12.50
11.44
10.45
9.67
9.06
8.42
7.46
5.96
3.90
1.40
-1.30
-4.01
-6.60
-9.02
-11.36
-13.80
-16.52
-19.64
-23.04
-26.29
-28.75
-29.80
-29.10
-26.66
-22.79
-17.96
-12.55
-6.86
-1.10
4.44
9.47
13.64
16.73
18.70
19.70
20.00
19.86
19.56
19.29
19.18
19.22
19.30
19.23
18.86
18.16
17.26
16.33
15.45
14.56
13.54
12.26
10.67
8.85
6.87
4.78
2.51
-0.09
-3.10
-6.54
-10.29
-14.18
-17.97
-21.43
-24.30
-26.27
-27.02
-26.30
-24.01
-20.26
-15.36
-9.73
-3.82
1.97
7.32
12.05
15.95
18.92
20.87
21.84
22.01
21.67
21.18
20.79
20.58
20.49
20.38
20.16
19.84
19.50
19.23
19.04
18.86
18.50
17.74
16.45
14.59
12.23
9.59
6.89
4.33
2.00
-0.21
-2.51
-5.15
-8.28
-11.80
-15.43
-18.81
-21.65
-23.77
-25.08
-25.56
-25.11
-23.55
-20.70
-16.50
-11.12
-5.01
1.14
6.61
10.79
13.39
14.42
14.27
13.46
12.49
11.68
11.06
10.50
9.84
9.08
8.43
8.21
8.59
9.45
10.36
10.72
10.05
8.21
5.48
2.38
-0.55
-2.96
-4.78
-6.23
-7.66
-9.45
-11.90
-15.11
-19.00
-23.23
-27.26
-30.47
-32.28
-32.33
-30.57
-27.23
-22.73
-17.52
-12.00
-6.45
-1.05
4.01
8.49
12.18
14.85
16.42
16.94
16.66
15.89
14.97
14.13
13.48
12.97
12.49
11.91
11.19
10.35
9.46
8.57
7.65
6.59
5.25
3.57
1.59
-0.50
-2.55
-4.49
-6.39
-8.43
-10.83
-13.71
-17.06
-20.81
-24.77
-28.68
-32.16
-34.70
-35.75
-34.94
-32.26
-28.11
-23.10
-17.82
-12.56
-7.36
-2.20
2.86
7.54
11.47
14.39
16.24
17.19
17.53
17.56
17.53
17.64
17.98
18.47
18.89
18.95
18.48
17.52
16.41
15.58
15.31
15.54
15.86
15.69
14.61
12.52
9.67
6.56
3.65
1.18
-0.86
-2.73
-4.69
-7.01
-9.75
-12.84
-16.11
-19.30
-22.12
-24.27
-25.45
-25.36
-23.86
-20.97
-16.88
-11.94
-6.59
-1.23
3.78
8.22
11.97
14.98
17.26
18.87
19.88
20.42
20.62
20.58
20.30
19.73
18.87
17.77
16.63
15.72
15.19
15.02
14.92
14.49
13.43
11.66
9.39
6.95
4.64
2.56
0.62
-1.33
-3.38
-5.57
-7.81
-10.06
-12.29
-14.50
-16.67
-18.66
-20.24
-21.13
-21.09
-20.01
-17.92
-14.96
-11.40
-7.49
-3.50
0.30
3.70
6.46
8.41
9.46
9.62
9.05
8.09
7.04
6.16
5.51
5.03
4.60
4.20
3.85
3.70
3.80
4.05
4.20
3.94
3.04
1.43
-0.71
-3.10
-5.46
-7.61
-9.61
-11.67
-14.07
-16.99
-20.40
-24.03
-27.35
-29.77
-30.83
-30.32
-28.37
-25.33
-21.62
-17.58
-13.39
-9.12
-4.85
-0.74
2.99
6.09
8.38
9.83
10.54
10.66
10.34
9.70
8.85
7.92
7.06
6.44
6.17
6.22
6.50
6.78
6.85
6.53
5.76
4.54
2.92
0.92
-1.45
-4.15
-7.14
-10.29
-13.49
-16.67
-19.80
-22.75
-25.30
-27.12
-27.82
-27.17
-25.16
-22.06
-18.24
-14.04
-9.65
-5.17
-0.70
3.54
7.29
10.33
12.53
13.95
14.70
14.84
14.40
13.41
12.03
10.56
9.42
8.91
9.06
9.64
10.20
10.34
9.86
8.77
7.29
5.69
4.15
2.74
1.32
-0.34
-2.47
-5.18
-8.42
-11.98
-15.65
-19.20
-22.44
-25.11
-26.83
-27.20
-25.91
-22.94
-18.62
-13.50
-8.19
-3.10
1.53
5.67
9.26
12.20
14.42
15.85
16.60
16.81
16.63
16.13
15.35
14.32
13.15
12.03
11.14
10.58
10.25
9.92
9.30
8.22
6.69
4.93
3.17
1.60
0.24
-1.06
-2.49
-4.23
-6.37
-8.91
-11.82
-14.96
-18.07
-20.69
-22.32
-22.52
-21.09
-18.19
-14.23
-9.74
-5.15
-0.74
3.42
7.30
10.82
13.78
15.97
17.22
17.53
17.10
16.24
15.26
14.39
13.72
13.26
12.96
12.75
12.58
12.37
12.04
11.51
10.78
9.86
8.79
7.57
6.11
4.33
2.23
-0.09
-2.50
-4.87
-7.30
-9.95
-12.97
-16.26
-19.49
-22.08
-23.48
-23.34
-21.61
-18.52
-14.42
-9.65
-4.53
0.65
5.55
9.78
12.99
14.98
15.83
15.85
15.42
14.89
14.38
13.87
13.25
12.45
11.54
10.69
10.08
9.75
9.63
9.56
9.33
8.80
7.88
6.60
5.00
3.17
1.17
-1.02
-3.51
-6.42
-9.82
-13.65
-17.62
-21.33
-24.28
-26.06
-26.39
-25.28
-22.91
-19.60
-15.64
-11.29
-6.76
-2.25
1.93
5.47
8.12
9.81
10.65
10.90
10.78
10.43
9.82
8.94
7.91
6.95
6.34
6.19
6.43
6.76
6.79
6.22
4.97
3.19
1.25
-0.41
-1.44
-1.68
-1.27
-0.65
-0.42
-1.17
-3.30
-6.85
-11.44
-16.39
-20.89
-24.23
-26.00
-26.11
-24.79
-22.35
-19.14
-15.34
-11.10
-6.51
-1.76
2.81
6.82
9.88
11.82
12.69
12.80
12.49
12.11
11.79
11.55
11.33
11.12
10.99
11.04
11.31
11.63
11.74
11.38
10.43
8.97
7.17
5.14
2.85
0.24
-2.78
-6.10
-9.50
-12.74
-15.67
-18.28
-20.58
-22.45
-23.62
-23.73
-22.49
-19.85
-16.03
-11.46
-6.67
-2.09
1.99
5.38
8.06
10.06
11.45
12.28
12.55
12.26
11.47
10.27
8.89
7.54
6.37
5.37
4.41
3.38
2.18
0.92
-0.26
-1.23
-2.01
-2.72
-3.62
-4.93
-6.72
-8.91
-11.39
-14.06
-16.88
-19.87
-22.98
-25.98
-28.44
-29.89
-29.91
-28.32
-25.18
-20.75
-15.36
-9.39
-3.19
2.84
8.23
12.56
15.57
17.18
17.62
17.28
16.57
15.82
15.22
14.82
14.58
14.35
13.92
13.13
11.90
10.31
8.60
7.05
5.82
4.88
4.01
2.92
1.42
-0.54
-2.89
-5.54
-8.52
-11.87
-15.59
-19.47
-23.09
-25.86
-27.28
-27.01
-25.01
-21.58
-17.13
-12.16
-7.11
-2.25
2.24
6.31
9.95
13.11
15.70
17.61
18.71
18.97
18.45
17.36
15.97
14.58
13.45
12.73
12.44
12.50
12.79
13.14
13.49
13.78
13.99
14.05
13.78
12.95
11.28
8.62
5.01
0.62
-4.23
-9.26
-14.26
-19.05
-23.40
-26.95
-29.26
-29.90
-28.65
-25.54
-20.90
-15.25
-9.18
-3.22
2.17
6.66
10.10
12.47
13.90
14.61
14.84
14.79
14.60
14.39
14.22
14.15
14.17
14.21
14.17
13.93
13.45
12.75
11.90
10.98
9.96
8.76
7.26
5.31
2.82
-0.22
-3.73
-7.56
-11.47
-15.15
-18.24
-20.39
-21.31
-20.88
-19.14
-16.28
-12.51
-8.04
-3.06
2.21
7.45
12.22
16.04
18.53
19.54
19.24
18.00
16.32
14.60
13.12
12.04
11.41
11.19
11.28
11.48
11.54
11.25
10.47
9.26
7.75
6.10
4.40
2.63
0.66
-1.65
-4.41
-7.62
-11.20
-15.00
-18.76
-22.19
-24.89
-26.43
-26.41
-24.57
-20.95
-15.93
-10.12
-4.22
1.19
5.79
9.46
12.22
14.06
14.93
14.78
13.75
12.23
10.74
9.73
9.40
9.56
9.81
9.78
9.31
8.51
7.67
7.03
6.68
6.57
6.48
6.25
5.67
4.53
2.57
-0.42
-4.43
-9.12
-13.84
-17.77
-20.19
-20.73
-19.39
-16.51
-12.56
-7.99
-3.14
1.71
6.27
10.30
13.51
15.76
17.03
17.47
17.26
16.65
15.79
14.80
13.74
12.68
11.65
10.71
9.82
8.94
7.98
6.88
5.68
4.48
3.46
2.71
2.27
1.98
1.53
0.54
-1.27
-4.00
-7.35
-10.74
-13.50
-15.08
-15.32
-14.37
-12.54
-10.09
-7.11
-3.57
0.49
4.76
8.76
11.94
13.97
14.83
14.82
14.37
13.82
13.36
12.98
12.61
12.13
11.48
10.70
9.85
9.04
8.30
7.57
6.66
5.38
3.65
1.53
-0.77
-3.07
-5.31
-7.64
-10.25
-13.21
-16.36
-19.21
-21.22
-21.95
-21.25
-19.26
-16.29
-12.64
-8.51
-4.07
0.44
4.64
7.94
9.83
10.09
8.89
6.80
4.53
2.69
1.52
0.95
0.71
0.51
0.22
-0.13
-0.48
-0.80
-1.23
-1.89
-2.93
-4.40
-6.28
-8.50
-11.06
-13.95
-17.14
-20.45
-23.50
-25.79
-26.84
-26.34
-24.28
-20.94
-16.76
-12.17
-7.49
-2.98
1.16
4.67
7.27
8.81
9.29
8.98
8.25
7.45
6.73
6.02
5.13
3.88
2.29
0.52
-1.10
-2.27
-2.83
-2.88
-2.72
-2.76
-3.41
-4.85
-7.12
-10.05
-13.45
-17.11
-20.83
-24.33
-27.22
-29.08
-29.59
-28.58
-26.08
-22.34
-17.66
-12.37
-6.84
-1.45
3.42
7.39
10.30
12.11
12.98
13.14
12.81
12.17
11.36
10.51
9.74
9.10
8.54
8.00
7.34
6.51
5.46
4.22
2.85
1.38
-0.14
-1.67
-3.22
-4.92
-7.00
-9.70
-13.09
-16.94
-20.74
-23.77
-25.37
-25.17
-23.16
-19.62
-15.03
-9.88
-4.63
0.40
4.93
8.84
12.10
14.74
16.78
18.18
18.87
18.84
18.22
17.27
16.30
15.55
15.12
14.98
14.97
15.02
15.05
15.01
14.79
14.18
13.00
11.16
8.77
6.11
3.50
1.13
-1.06
-3.32
-5.98
-9.24
-13.01
-16.90
-20.37
-22.88
-24.07
-23.77
-21.99
-18.80
-14.46
-9.30
-3.81
1.53
6.28
10.25
13.47
16.07
18.18
19.84
20.93
21.32
20.97
20.00
18.66
17.27
16.12
15.39
15.08
15.08
15.23
15.39
15.50
15.54
15.50
15.27
14.69
13.55
11.67
9.04
5.80
2.18
-1.56
-5.26
-8.86
-12.29
-15.41
-17.95
-19.56
-19.94
-18.92
-16.56
-13.13
-9.00
-4.55
-0.11
4.06
7.74
10.72
12.82
13.93
14.07
13.42
12.30
11.08
10.08
9.41
8.99
8.68
8.34
7.98
7.72
7.71
7.93
8.18
8.10
7.35
5.78
3.51
0.85
-1.86
-4.40
-6.74
-9.02
-11.50
-14.40
-17.75
-21.38
-24.87
-27.67
-29.23
-29.20
-27.46
-24.22
-19.86
-14.82
-9.57
-4.46
0.16
4.09
7.19
9.45
10.95
11.82
12.20
12.20
11.97
11.67
11.47
11.40
11.39
11.24
10.81
10.05
9.10
8.21
7.49
6.90
6.21
5.16
3.57
1.52
-0.75
-2.99
-5.06
-7.02
-9.05
-11.38
-14.19
-17.54
-21.37
-25.46
-29.40
-32.68
-34.68
-34.91
-33.17
-29.60
-24.65
-18.95
-13.08
-7.40
-2.07
2.87
7.41
11.42
14.73
17.16
18.62
19.21
19.16
18.75
18.22
17.72
17.29
16.87
16.44
16.00
15.59
15.26
15.04
14.85
14.52
13.88
12.76
11.12
9.03
6.64
4.11
1.56
-0.96
-3.51
-6.19
-9.13
-12.45
-16.14
-20.11
-24.04
-27.50
-30.01
-31.12
-30.57
-28.27
-24.39
-19.22
-13.21
-6.83
-0.55
5.27
10.35
14.53
17.72
19.85
20.94
21.08
20.53
19.65
18.88
18.54
18.71
19.22
19.72
19.88
19.54
18.82
17.94
17.15
16.49
15.82
14.89
13.48
11.60
9.43
7.19
5.06
3.05
1.01
-1.22
-3.75
-6.54
-9.51
-12.57
-15.66
-18.75
-21.75
-24.46
-26.58
-27.72
-27.57
-25.94
-22.82
-18.39
-12.97
-6.99
-0.95
4.65
9.45
13.21
15.92
17.68
18.65
19.02
18.99
18.73
18.40
18.09
17.83
17.57
17.30
17.02
16.81
16.71
16.68
16.56
16.11
15.14
13.61
11.61
9.30
6.85
4.32
1.74
-0.91
-3.62
-6.34
-9.04
-11.69
-14.24
-16.60
-18.62
-20.13
-20.94
-20.87
-19.82
-17.76
-14.77
-11.00
-6.73
-2.26
2.01
5.77
8.75
10.80
11.93
12.30
12.15
11.76
11.36
11.06
10.91
10.84
10.78
10.67
10.48
10.19
9.75
9.06
8.01
6.53
4.59
2.28
-0.20
-2.70
-5.12
-7.48
-9.95
-12.68
-15.79
-19.24
-22.91
-26.55
-29.86
-32.51
-34.16
-34.54
-33.50
-31.04
-27.30
-22.59
-17.27
-11.71
-6.25
-1.20
3.18
6.72
9.30
10.91
11.69
11.81
11.51
11.03
10.54
10.16
9.94
9.89
9.96
10.10
10.22
10.20
9.90
9.26
8.26
6.97
5.48
3.86
2.11
0.13
-2.17
-4.87
-8.00
-11.47
-15.18
-18.97
-22.69
-26.17
-29.19
-31.50
-32.81
-32.86
-31.42
-28.44
-24.01
-18.39
-11.98
-5.29
1.15
6.88
11.58
15.10
17.48
18.85
19.46
19.54
19.36
19.11
18.88
18.72
18.56
18.33
17.98
17.49
16.88
16.16
15.30
14.23
12.87
11.18
9.13
6.75
4.15
1.47
-1.15
-3.60
-5.88
-8.13
-10.54
-13.32
-16.54
-20.08
-23.67
-26.91
-29.43
-30.90
-31.07
-29.83
-27.14
-23.12
-17.96
-12.04
-5.78
0.37
5.96
10.71
14.50
17.31
19.25
20.43
20.95
20.92
20.54
20.02
19.61
19.47
19.56
19.71
19.66
19.24
18.44
17.39
16.24
15.07
13.86
12.44
10.64
8.42
5.81
3.02
0.28
-2.25
-4.49
-6.58
-8.80
-11.43
-14.67
-18.48
-22.52
-26.26
-29.12
-30.64
-30.61
-29.03
-26.09
-22.00
-16.97
-11.24
-5.09
1.07
6.77
11.58
15.22
17.65
19.05
19.70
19.89
19.80
19.55
19.22
18.87
18.58
18.35
18.10
17.76
17.27
16.66
16.06
15.57
15.19
14.75
13.99
12.65
10.63
8.06
5.22
2.43
-0.08
-2.30
-4.39
-6.62
-9.22
-12.29
-15.73
-19.30
-22.65
-25.45
-27.45
-28.49
-28.49
-27.42
-25.18
-21.70
-16.94
-11.06
-4.44
2.31
8.53
13.65
17.41
19.85
21.23
21.90
22.18
22.29
22.34
22.43
22.58
22.82
23.09
23.30
23.31
23.06
22.55
21.84
21.04
20.23
19.45
18.66
17.77
16.62
15.02
12.73
9.58
5.55
0.83
-4.16
-8.91
-13.00
-16.24
-18.68
-20.56
-22.06
-23.24
-24.01
-24.19
-23.61
-22.21
-20.01
-17.04
-13.31
-8.90
-4.01
0.96
5.48
8.97
11.04
11.55
10.65
8.71
6.22
3.65
1.39
-0.30
-1.22
-1.36
-0.79
0.31
1.69
3.05
4.15
4.77
4.76
4.04
2.62
0.66
-1.64
-4.00
-6.24
-8.29
-10.23
-12.28
-14.70
-17.69
-21.25
-25.15
-28.93
-32.05
-33.97
-34.32
-32.97
-30.02
-25.69
-20.32
-14.28
-7.95
-1.76
3.83
8.39
11.67
13.61
14.35
14.20
13.49
12.57
11.66
10.97
10.58
10.46
10.44
10.31
9.88
9.07
7.92
6.57
5.12
3.59
1.91
-0.05
-2.29
-4.72
-7.15
-9.40
-11.43
-13.39
-15.51
-18.05
-21.09
-24.51
-28.00
-31.14
-33.53
-34.94
-35.20
-34.27
-32.13
-28.79
-24.29
-18.82
-12.73
-6.48
-0.56
4.63
8.89
12.16
14.47
15.92
16.62
16.77
16.61
16.41
16.36
16.46
16.59
16.58
16.36
15.97
15.51
15.02
14.43
13.51
12.10
10.14
7.78
5.24
2.71
0.30
-2.03
-4.40
-6.90
-9.62
-12.59
-15.85
-19.34
-22.87
-26.14
-28.73
-30.22
-30.33
-28.97
-26.20
-22.18
-17.18
-11.47
-5.41
0.59
6.11
10.81
14.51
17.23
19.12
20.37
21.15
21.57
21.72
21.70
21.62
21.57
21.53
21.43
21.09
20.42
19.41
18.15
16.78
15.45
14.18
12.96
11.70
10.25
8.52
6.42
3.99
1.34
-1.34
-3.98
-6.62
-9.44
-12.68
-16.37
-20.26
-23.83
-26.42
-27.55
-26.99
-24.87
-21.48
-17.14
-12.11
-6.62
-0.96
4.55
9.46
13.42
16.25
17.98
18.77
18.90
18.58
18.00
17.27
16.46
15.62
14.81
14.12
13.66
13.48
13.49
13.46
13.14
12.26
10.80
8.88
6.78
4.70
2.70
0.70
-1.46
-3.88
-6.56
-9.41
-12.36
-15.40
-18.49
-21.50
-24.14
-25.96
-26.53
-25.57
-23.03
-19.11
-14.19
-8.77
-3.36
1.56
5.63
8.65
10.54
11.43
11.52
11.06
10.33
9.56
8.88
8.41
8.10
7.91
7.72
7.43
7.01
6.41
5.64
4.68
3.50
2.10
0.44
-1.45
-3.55
-5.80
-8.13
-10.48
-12.80
-15.13
-17.57
-20.30
-23.42
-26.89
-30.39
-33.37
-35.22
-35.46
-33.91
-30.74
-26.36
-21.14
-15.37
-9.23
-2.92
3.25
8.84
13.39
16.58
18.37
18.99
18.86
18.38
17.86
17.46
17.18
16.96
16.73
16.46
16.13
15.73
15.27
14.70
13.95
12.97
11.72
10.16
8.29
6.11
3.65
1.00
-1.77
-4.54
-7.33
-10.24
-13.42
-16.99
-20.92
-24.91
-28.51
-31.17
-32.46
-32.17
-30.29
-27.02
-22.61
-17.35
-11.57
-5.60
0.16
5.37
9.77
13.29
16.02
18.10
19.67
20.80
21.51
21.83
21.85
21.68
21.40
21.06
20.64
20.18
19.70
19.24
18.75
18.15
17.25
15.90
14.03
11.69
9.01
6.15
3.27
0.52
-2.02
-4.36
-6.59
-8.88
-11.44
-14.40
-17.74
-21.24
-24.55
-27.20
-28.78
-28.99
-27.70
-24.93
-20.88
-15.83
-10.12
-4.11
1.84
7.36
12.10
15.80
18.32
19.73
20.25
20.20
19.91
19.60
19.36
19.19
19.00
18.74
18.39
17.98
17.59
17.26
17.02
16.81
16.55
16.10
15.34
14.16
12.53
10.39
7.73
4.59
1.09
-2.54
-6.03
-9.16
-11.86
-14.22
-16.42
-18.58
-20.66
-22.46
-23.63
-23.84
-22.81
-20.38
-16.57
-11.58
-5.80
0.17
5.68
10.12
13.08
14.51
14.59
13.77
12.52
11.30
10.43
10.05
10.15
10.58
11.12
11.57
11.80
11.70
11.22
10.35
9.09
7.52
5.76
3.92
2.01
-0.02
-2.28
-4.87
-7.79
-10.97
-14.37
-17.92
-21.54
-25.11
-28.34
-30.87
-32.30
-32.34
-30.89
-28.00
-23.89
-18.86
-13.27
-7.53
-2.02
2.92
7.05
10.23
12.45
13.76
14.28
14.23
13.91
13.55
13.34
13.28
13.25
13.15
12.88
12.44
11.90
11.25
10.43
9.31
7.83
5.99
3.91
1.75
-0.40
-2.53
-4.67
-6.90
-9.29
-11.90
-14.87
-18.31
-22.27
-26.58
-30.84
-34.41
-36.66
-37.17
-35.81
-32.78
-28.48
-23.31
-17.61
-11.61
-5.54
0.33
5.66
10.14
13.49
15.71
16.96
17.58
17.92
18.25
18.64
18.98
19.12
18.96
18.53
17.99
17.53
17.26
17.10
16.81
16.09
14.68
12.48
9.62
6.36
3.06
-0.02
-2.72
-5.03
-7.14
-9.29
-11.82
-14.99
-18.92
-23.38
-27.84
-31.54
-33.72
-33.87
-31.90
-28.14
-23.12
-17.40
-11.38
-5.29
0.64
6.18
11.00
14.83
17.54
19.19
20.04
20.36
20.44
20.42
20.35
20.18
19.80
19.18
18.36
17.46
16.69
16.20
16.06
16.17
16.28
16.02
15.10
13.34
10.78
7.69
4.41
1.29
-1.44
-3.73
-5.75
-7.75
-10.02
-12.73
-15.88
-19.32
-22.75
-25.85
-28.27
-29.68
-29.73
-28.12
-24.70
-19.55
-13.07
-5.92
1.08
7.18
11.90
15.15
17.14
18.32
19.13
19.80
20.39
20.79
20.84
20.51
19.90
19.19
18.53
17.94
17.30
16.45
15.34
14.05
12.83
11.93
11.36
10.93
10.22
8.84
6.60
3.66
0.38
-2.87
-5.86
-8.62
-11.33
-14.12
-16.96
-19.58
-21.57
-22.54
-22.21
-20.52
-17.56
-13.59
-8.98
-4.15
0.43
4.41
7.60
9.95
11.55
12.47
12.80
12.62
12.07
11.35
10.67
10.18
9.86
9.59
9.21
8.66
8.00
7.34
6.73
6.06
5.14
3.76
1.82
-0.58
-3.17
-5.72
-8.09
-10.33
-12.62
-15.14
-17.99
-21.13
-24.44
-27.70
-30.64
-32.92
-34.16
-34.03
-32.30
-29.00
-24.39
-18.93
-13.14
-7.44
-2.13
2.56
6.44
9.36
11.23
12.13
12.33
12.14
11.89
11.73
11.68
11.67
11.62
11.53
11.43
11.35
11.28
11.16
10.89
10.38
9.56
8.37
6.79
4.85
2.62
0.23
-2.20
-4.60
-7.01
-9.60
-12.58
-16.10
-20.14
-24.43
-28.51
-31.82
-33.82
-34.19
-32.82
-29.87
-25.65
-20.56
-14.94
-9.11
-3.30
2.26
7.28
11.48
14.59
16.52
17.41
17.63
17.63
17.79
18.22
18.74
19.09
19.02
18.53
17.81
17.13
16.69
16.48
16.31
15.87
14.95
13.45
11.46
9.14
6.64
4.10
1.56
-0.97
-3.51
-6.09
-8.77
-11.65
-14.81
-18.21
-21.65
-24.74
-26.97
-27.89
-27.21
-24.94
-21.31
-16.64
-11.32
-5.66
-0.02
5.24
9.72
13.12
15.32
16.47
16.93
17.08
17.27
17.60
17.98
18.21
18.12
17.70
17.11
16.58
16.27
16.16
16.04
15.61
14.58
12.88
10.66
8.22
5.89
3.86
2.08
0.31
-1.77
-4.42
-7.69
-11.44
-15.39
-19.18
-22.50
-25.10
-26.72
-27.13
-26.09
-23.45
-19.31
-14.03
-8.17
-2.38
2.83
7.16
10.53
12.96
14.50
15.18
15.08
14.42
13.55
12.78
12.27
11.92
11.51
10.84
9.87
8.79
7.79
6.97
6.21
5.24
3.83
1.94
-0.26
-2.51
-4.56
-6.40
-8.20
-10.22
-12.75
-15.89
-19.56
-23.46
-27.12
-30.02
-31.72
-32.01
-30.86
-28.38
-24.72
-20.07
-14.64
-8.75
-2.87
2.48
6.85
10.00
11.94
12.95
13.36
13.52
13.57
13.57
13.46
13.17
12.70
12.09
11.47
10.93
10.52
10.20
9.82
9.21
8.23
6.84
5.04
2.91
0.50
-2.13
-4.91
-7.75
-10.57
-13.33
-16.10
-18.99
-22.12
-25.45
-28.73
-31.42
-32.92
-32.69
-30.55
-26.67
-21.56
-15.87
-10.14
-4.72
0.29
4.90
9.11
12.81
15.84
18.04
19.38
20.00
20.14
20.05
19.90
19.74
19.51
19.12
18.54
17.79
16.93
16.06
15.18
14.25
13.18
11.85
10.15
8.07
5.66
3.03
0.33
-2.32
-4.91
-7.49
-10.22
-13.28
-16.77
-20.65
-24.68
-28.41
-31.30
-32.85
-32.72
-30.83
-27.27
-22.31
-16.33
-9.72
-2.92
3.57
9.32
13.95
17.31
19.42
20.49
20.85
20.80
20.60
20.43
20.31
20.18
19.94
19.49
18.83
18.04
17.27
16.66
16.24
15.89
15.38
14.46
12.88
10.59
7.67
4.37
1.01
-2.09
-4.75
-7.01
-9.10
-11.38
-14.17
-17.57
-21.37
-25.09
-28.15
-29.97
-30.24
-28.89
-26.04
-21.99
-17.00
-11.41
-5.51
0.36
5.88
10.74
14.71
17.67
19.61
20.66
21.05
21.05
20.92
20.82
20.77
20.69
20.42
19.92
19.23
18.50
17.89
17.46
17.12
16.69
15.92
14.68
12.94
10.85
8.62
6.42
4.33
2.23
-0.04
-2.61
-5.52
-8.66
-11.86
-14.97
-17.88
-20.51
-22.67
-24.07
-24.35
-23.18
-20.48
-16.40
-11.33
-5.77
-0.22
4.87
9.19
12.51
14.75
15.93
16.16
15.63
14.56
13.25
12.03
11.21
10.97
11.22
11.69
11.96
11.71
10.82
9.49
8.03
6.72
5.62
4.59
3.39
1.85
-0.04
-2.15
-4.35
-6.61
-9.05
-11.89
-15.25
-19.07
-23.01
-26.54
-29.06
-30.10
-29.45
-27.13
-23.43
-18.72
-13.40
-7.83
-2.33
2.80
7.26
10.73
12.99
13.91
13.64
12.55
11.16
9.96
9.28
9.13
9.29
9.47
9.45
9.20
8.85
8.58
8.43
8.25
7.81
6.87
5.40
3.59
1.81
0.41
-0.41
-0.71
-0.73
-0.80
-1.21
-2.07
-3.33
-4.85
-6.48
-8.16
-9.93
-11.81
-13.88
-16.18
-18.76
-21.65
-24.88
-28.29
-31.55
-34.16
-35.56
-35.34
-33.36
-29.79
-25.05
-19.60
-13.87
-8.16
-2.66
2.46
7.05
10.93
13.97
16.09
17.36
17.93
18.02
17.84
17.48
17.02
16.47
15.86
15.24
14.66
14.09
13.40
12.46
11.17
9.52
7.59
5.46
3.15
0.63
-2.15
-5.17
-8.34
-11.57
-14.87
-18.34
-22.05
-25.85
-29.27
-31.65
-32.36
-31.09
-27.93
-23.27
-17.61
-11.38
-4.92
1.46
7.42
12.54
16.50
19.17
20.65
21.20
21.15
20.74
20.13
19.39
18.55
17.63
16.69
15.79
14.99
14.29
13.64
12.91
11.88
10.39
8.33
5.71
2.70
-0.44
-3.44
-6.03
-8.14
-9.86
-11.48
-13.39
-15.92
-19.12
-22.68
-25.93
-28.07
-28.47
-26.88
-23.45
-18.63
-12.92
-6.80
-0.62
5.30
10.62
15.04
18.32
20.35
21.25
21.29
20.84
20.21
19.63
19.16
18.79
18.43
18.07
17.67
17.26
16.84
16.39
15.80
14.98
13.81
12.21
10.21
7.85
5.26
2.61
0.07
-2.24
-4.31
-6.36
-8.67
-11.52
-14.99
-18.85
-22.55
-25.42
-26.86
-26.54
-24.44
-20.79
-15.97
-10.43
-4.58
1.16
6.43
10.98
14.70
17.56
19.60
20.83
21.29
20.97
19.97
18.44
16.58
14.59
12.62
10.83
9.36
8.34
7.79
7.60
7.51
7.15
6.21
4.60
2.42
-0.13
-2.90
-5.86
-9.09
-12.71
-16.69
-20.80
-24.66
-27.76
-29.68
-30.13
-29.05
-26.54
-22.85
-18.29
-13.17
-7.79
-2.38
2.86
7.69
11.88
15.16
17.28
18.11
17.73
16.47
14.80
13.22
12.03
11.28
10.79
10.34
9.72
8.91
7.99
7.09
6.23
5.32
4.17
2.57
0.50
-1.88
-4.32
-6.54
-8.52
-10.49
-12.89
-16.12
-20.28
-24.99
-29.51
-32.96
-34.63
-34.25
-31.91
-28.00
-22.96
-17.21
-11.18
-5.23
0.26
5.00
8.86
11.87
14.19
16.00
17.39
18.34
18.82
18.82
18.43
17.81
17.14
16.55
16.01
15.46
14.81
13.99
12.95
11.65
10.04
8.05
5.65
2.86
-0.15
-3.22
-6.19
-9.04
-11.90
-14.97
-18.43
-22.25
-26.14
-29.53
-31.73
-32.07
-30.19
-26.10
-20.28
-13.50
-6.55
-0.08
5.64
10.60
14.90
18.58
21.51
23.47
24.33
24.17
23.28
22.03
20.72
19.51
18.44
17.56
16.96
16.69
16.72
16.87
16.86
16.44
15.55
14.27
12.79
11.20
9.52
7.63
5.47
3.05
0.41
-2.42
-5.46
-8.77
-12.39
-16.20
-19.88
-22.91
-24.73
-24.83
-22.98
-19.29
-14.20
-8.39
-2.58
2.63
6.86
10.00
12.10
13.29
13.71
13.45
12.67
11.59
10.47
9.62
9.21
9.25
9.55
9.82
9.78
9.29
8.37
7.15
5.78
4.34
2.80
1.10
-0.80
-2.92
-5.27
-7.82
-10.67
-13.88
-17.46
-21.28
-25.00
-28.11
-30.05
-30.32
-28.67
-25.17
-20.24
-14.50
-8.60
-3.08
1.73
5.68
8.78
11.11
12.74
13.75
14.24
14.35
14.17
13.79
13.24
12.48
11.51
10.35
9.05
7.71
6.37
5.01
3.57
1.92
0.01
-2.18
-4.65
-7.40
-10.50
-14.07
-18.16
-22.67
-27.31
-31.66
-35.24
-37.60
-38.39
-37.40
-34.58
-30.09
-24.26
-17.65
-10.82
-4.38
1.27
5.92
9.56
12.28
14.21
15.46
16.12
16.30
16.13
15.76
15.31
14.81
14.22
13.45
12.45
11.20
9.82
8.41
7.04
5.68
4.15
2.26
-0.15
-3.13
-6.61
-10.47
-14.57
-18.79
-22.98
-26.86
-30.00
-31.90
-32.12
-30.46
-27.03
-22.20
-16.49
-10.37
-4.25
1.59
6.99
11.79
15.88
19.19
21.62
23.15
23.79
23.62
22.81
21.62
20.36
19.26
18.42
17.78
17.18
16.46
15.59
14.65
13.76
12.99
12.22
11.19
9.58
7.10
3.70
-0.54
-5.33
-10.38
-15.39
-20.13
-24.31
-27.60
-29.65
-30.08
-28.67
-25.37
-20.40
-14.23
-7.47
-0.73
5.52
10.99
15.55
19.17
21.80
23.38
23.92
23.53
22.48
21.15
19.85
18.78
17.95
17.25
16.53
15.67
14.61
13.30
11.70
9.83
7.75
5.57
3.37
1.14
-1.25
-3.98
-7.17
-10.81
-14.74
-18.66
-22.27
-25.31
-27.57
-28.83
-28.85
-27.40
-24.36
-19.85
-14.26
-8.13
-2.05
3.58
8.54
12.83
16.45
19.38
21.51
22.69
22.93
22.36
21.28
19.98
18.72
17.65
16.82
16.24
15.86
15.63
15.41
15.05
14.37
13.25
11.67
9.73
7.54
5.22
2.77
0.10
-2.96
-6.58
-10.84
-15.63
-20.62
-25.29
-29.11
-31.66
-32.70
-32.22
-30.32
-27.10
-22.68
-17.21
-11.01
-4.52
1.66
7.00
11.16
14.07
15.86
16.77
17.05
16.81
16.19
15.31
14.34
13.51
12.98
12.78
12.84
12.97
12.99
12.80
12.37
11.68
10.71
9.37
7.59
5.35
2.79
0.10
-2.59
-5.32
-8.28
-11.70
-15.60
-19.68
-23.30
-25.67
-26.20
-24.67
-21.32
-16.64
-11.20
-5.49
0.19
5.61
10.55
14.74
17.89
19.84
20.64
20.51
19.78
18.77
17.64
16.43
15.09
13.64
12.16
10.86
9.92
9.39
9.14
8.87
8.35
7.42
6.10
4.55
2.87
1.10
-0.90
-3.31
-6.20
-9.49
-12.87
-15.91
-18.16
-19.36
-19.37
-18.26
-16.16
-13.20
-9.46
-5.07
-0.25
4.58
8.88
12.17
14.17
14.94
14.81
14.23
13.52
12.77
11.92
10.87
9.62
8.30
7.07
6.05
5.26
4.59
3.96
3.26
2.45
1.46
0.24
-1.22
-2.90
-4.78
-6.86
-9.17
-11.79
-14.64
-17.47
-19.84
-21.23
-21.25
-19.83
-17.19
-13.69
-9.70
-5.48
-1.16
3.11
7.10
10.44
12.79
13.93
13.82
12.66
10.80
8.63
6.52
4.73
3.40
2.56
2.07
1.77
1.42
0.86
-0.01
-1.20
-2.62
-4.22
-5.95
-7.89
-10.12
-12.73
-15.75
-19.07
-22.48
-25.72
-28.51
-30.56
-31.64
-31.54
-30.13
-27.40
-23.48
-18.59
-13.10
-7.40
-1.90
3.02
7.06
10.03
11.89
12.78
12.91
12.51
11.75
10.73
9.52
8.25
7.06
6.10
5.42
4.94
4.47
3.87
3.01
1.91
0.61
-0.85
-2.49
-4.36
-6.53
-9.02
-11.84
-15.01
-18.52
-22.22
-25.82
-28.85
-30.76
-31.14
-29.79
-26.81
-22.46
-17.11
-11.10
-4.83
1.34
6.95
11.59
14.96
16.97
17.71
17.47
16.59
15.41
14.19
13.09
12.14
11.32
10.54
9.73
8.89
8.04
7.23
6.39
5.44
4.20
2.62
0.70
-1.45
-3.77
-6.28
-9.10
-12.35
-16.02
-19.90
-23.54
-26.42
-28.09
-28.30
-27.04
-24.48
-20.86
-16.40
-11.24
-5.56
0.37
6.15
11.35
15.56
18.60
20.48
21.42
21.65
21.38
20.73
19.75
18.55
17.22
15.93
14.77
13.76
12.82
11.82
10.67
9.35
7.97
6.63
5.41
4.21
2.77
0.82
-1.84
-5.16
-8.88
-12.67
-16.28
-19.57
-22.55
-25.14
-27.06
-27.91
-27.27
-24.92
-20.98
-15.83
-9.99
-3.93
1.97
7.41
12.12
15.82
18.33
19.66
20.00
19.68
19.03
18.30
17.58
16.89
16.17
15.40
14.56
13.66
12.73
11.77
10.79
9.76
8.71
7.64
6.59
5.54
4.43
3.11
1.41
-0.78
-3.49
-6.59
-9.87
-13.10
-16.07
-18.61
-20.53
-21.54
-21.35
-19.72
-16.60
-12.18
-6.89
-1.32
3.98
8.54
12.17
14.86
16.72
17.88
18.45
18.47
17.98
17.04
15.81
14.46
13.24
12.30
11.69
11.34
11.04
10.57
9.75
8.47
6.78
4.76
2.51
0.11
-2.42
-5.09
-7.90
-10.87
-14.02
-17.33
-20.73
-24.00
-26.82
-28.77
-29.44
-28.53
-25.95
-21.85
-16.58
-10.62
-4.49
1.27
6.22
10.05
12.62
13.91
14.10
13.47
12.40
11.31
10.48
10.01
9.77
9.53
9.06
8.24
7.08
5.65
4.05
2.33
0.51
-1.35
-3.22
-5.07
-6.92
-8.85
-10.93
-13.26
-15.84
-18.67
-21.74
-24.96
-28.16
-31.00
-33.00
-33.65
-32.54
-29.57
-24.97
-19.26
-13.07
-6.98
-1.38
3.57
7.84
11.44
14.28
16.24
17.20
17.20
16.44
15.23
13.90
12.68
11.70
10.97
10.45
10.08
9.73
9.28
8.58
7.53
6.12
4.40
2.45
0.32
-1.94
-4.32
-6.80
-9.38
-12.13
-15.20
-18.71
-22.63
-26.67
-30.25
-32.67
-33.35
-32.03
-28.86
-24.29
-18.84
-12.96
-6.90
-0.81
5.10
10.58
15.29
18.92
21.29
22.45
22.65
22.25
21.55
20.76
19.97
19.17
18.39
17.61
16.87
16.12
15.29
14.24
12.86
11.15
9.15
7.03
4.91
2.87
0.88
-1.17
-3.41
-5.99
-9.00
-12.48
-16.31
-20.26
-23.99
-27.09
-29.13
-29.77
-28.75
-26.00
-21.65
-15.99
-9.55
-2.94
3.24
8.58
12.83
16.00
18.19
19.58
20.30
20.50
20.30
19.86
19.33
18.80
18.35
17.99
17.74
17.60
17.60
17.71
17.84
17.81
17.42
16.49
14.93
12.75
10.07
7.12
4.16
1.40
-1.08
-3.38
-5.75
-8.53
-11.97
-16.04
-20.40
-24.42
-27.40
-28.75
-28.18
-25.78
-21.91
-17.03
-11.58
-5.88
-0.20
5.26
10.20
14.32
17.35
19.18
19.89
19.79
19.31
18.84
18.66
18.81
19.14
19.45
19.58
19.46
19.14
18.70
18.16
17.44
16.41
14.98
13.15
11.02
8.71
6.30
3.79
1.19
-1.50
-4.24
-7.04
-9.93
-12.96
-16.11
-19.22
-21.96
-23.91
-24.73
-24.21
-22.35
-19.25
-15.10
-10.09
-4.45
1.46
7.17
12.16
15.97
18.32
19.19
18.84
17.61
15.91
14.08
12.32
10.80
9.61
8.74
8.18
7.82
7.55
7.26
6.85
6.27
5.50
4.49
3.21
1.61
-0.28
-2.37
-4.54
-6.69
-8.87
-11.24
-13.98
-17.23
-20.81
-24.32
-27.19
-28.86
-28.98
-27.46
-24.47
-20.27
-15.18
-9.56
-3.82
1.59
6.24
9.82
12.21
13.53
14.02
13.94
13.50
12.85
12.06
11.27
10.60
10.13
9.85
9.64
9.28
8.56
7.39
5.84
4.08
2.27
0.56
-1.09
-2.80
-4.70
-6.87
-9.29
-11.94
-14.80
-17.92
-21.38
-25.09
-28.78
-31.92
-33.86
-34.01
-32.09
-28.18
-22.77
-16.52
-10.12
-4.06
1.36
6.05
9.99
13.13
15.43
16.85
17.45
17.36
16.82
16.06
15.24
14.43
13.66
12.91
12.21
11.62
11.18
10.91
10.67
10.34
9.67
8.47
6.66
4.26
1.40
-1.67
-4.74
-7.69
-10.55
-13.49
-16.76
-20.38
-24.17
-27.59
-29.99
-30.74
-29.56
-26.53
-22.05
-16.63
-10.73
-4.69
1.24
6.80
11.70
15.60
18.37
19.99
20.66
20.63
20.12
19.30
18.31
17.24
16.25
15.47
14.93
14.60
14.39
14.16
13.88
13.47
12.86
11.96
10.62
8.73
6.27
3.36
0.14
-3.18
-6.48
-9.70
-12.88
-16.07
-19.29
-22.40
-25.11
-27.01
-27.66
-26.83
-24.49
-20.89
-16.38
-11.29
-5.83
-0.16
5.50
10.90
15.66
19.49
22.21
23.85
24.62
24.79
24.64
24.35
23.99
23.56
23.01
22.34
21.56
20.77
20.02
19.32
18.55
17.51
16.04
14.11
11.81
9.34
6.86
4.41
1.94
-0.61
-3.33
-6.22
-9.30
-12.56
-16.01
-19.51
-22.81
-25.47
-27.03
-27.12
-25.52
-22.27
-17.65
-12.02
-5.93
0.09
5.51
9.91
13.10
15.06
15.99
16.17
15.89
15.39
14.84
14.27
13.68
13.02
12.34
11.70
11.23
10.99
10.92
10.84
10.49
9.66
8.31
6.54
4.58
2.65
0.82
-0.95
-2.83
-5.00
-7.60
-10.67
-14.17
-17.87
-21.43
-24.38
-26.21
-26.52
-25.13
-22.14
-17.84
-12.68
-7.15
-1.70
3.28
7.49
10.74
12.95
14.12
14.33
13.73
12.48
10.83
9.04
7.41
6.18
5.44
5.15
5.12
5.10
4.88
4.35
3.51
2.44
1.24
-0.04
-1.45
-3.11
-5.12
-7.53
-10.28
-13.27
-16.40
-19.65
-23.05
-26.57
-29.99
-32.85
-34.61
-34.74
-33.00
-29.47
-24.51
-18.68
-12.53
-6.57
-1.13
3.60
7.63
11.01
13.79
15.91
17.18
17.53
17.00
15.93
14.76
13.91
13.54
13.46
13.35
12.91
12.06
10.97
9.86
8.85
7.85
6.60
4.89
2.65
0.05
-2.65
-5.21
-7.55
-9.84
-12.32
-15.24
-18.67
-22.47
-26.27
-29.59
-31.91
-32.82
-32.09
-29.71
-25.88
-20.94
-15.28
-9.29
-3.24
2.60
8.00
12.74
16.59
19.44
21.26
22.14
22.23
21.74
20.85
19.75
18.62
17.65
17.00
16.73
16.77
16.97
17.10
16.94
16.34
15.19
13.46
11.17
8.43
5.38
2.27
-0.71
-3.40
-5.77
-7.93
-10.06
-12.32
-14.76
-17.31
-19.73
-21.75
-23.01
-23.25
-22.27
-19.99
-16.49
-12.00
-6.74
-0.95
5.22
11.61
18.00
24.01
29.16
33.00
35.25
35.96
35.60
34.88
34.56
35.19
36.86
39.21
41.52
43.05
43.32
42.29
40.39
38.28
36.53
35.42
34.80
34.21
33.17
31.27
28.28
24.19
19.18
13.60
7.86
2.41
-2.51
-6.84
-10.82
-14.79
-18.98
-23.32
-27.41
-30.67
-32.64
-33.18
-32.56
-31.30
-29.80
-28.20
-26.32
-23.85
-20.67
-17.11
-13.87
-11.85
-11.72
-13.67
-17.36
-22.02
-26.73
-30.65
-33.14
-33.84
-32.73
-30.11
-26.63
-23.08
-20.23
-18.52
-18.00
-18.27
-18.77
-19.02
-18.83
-18.34
-17.89
-17.83
-18.36
-19.53
-21.26
-23.51
-26.26
-29.44
-32.82
-35.92
-38.09
-38.70
-37.33
-33.91
-28.79
-22.57
-15.97
-9.64
-4.03
0.66
4.47
7.56
10.07
12.10
13.65
14.69
15.21
15.34
15.33
15.42
15.78
16.35
16.89
17.05
16.56
15.37
13.65
11.73
9.93
8.35
6.84
5.08
2.76
-0.29
-4.04
-8.31
-12.88
-17.53
-22.02
-26.09
-29.42
-31.74
-32.93
-32.97
-31.97
-29.97
-26.96
-22.91
-17.87
-12.07
-6.00
-0.20
4.85
8.86
11.76
13.64
14.63
14.91
14.68
14.10
13.40
12.76
12.30
12.10
12.20
12.62
13.38
14.43
15.56
16.41
16.56
15.64
13.59
10.62
7.21
3.85
0.80
-1.89
-4.43
-7.02
-9.80
-12.71
-15.65
-18.43
-20.89
-22.83
-23.96
-23.91
-22.33
-19.08
-14.30
-8.46
-2.24
3.72
8.96
13.30
16.77
19.45
21.41
22.60
22.94
22.38
21.07
19.35
17.65
16.38
15.74
15.68
15.93
16.11
15.97
15.40
14.45
13.26
11.88
10.24
8.21
5.64
2.50
-1.14
-5.18
-9.51
-14.03
-18.66
-23.27
-27.69
-31.77
-35.45
-38.79
-41.86
-44.68
-47.08
-48.66
-48.89
-47.30
-43.64
-38.02
-30.93
-23.11
-15.35
-8.30
-2.30
2.67
6.92
10.78
14.51
18.10
21.30
23.68
24.82
24.56
23.09
20.93
18.86
17.66
17.83
19.44
21.97
24.50
25.98
25.64
23.27
19.35
14.92
11.29
9.59
10.39
13.43
17.57
21.11
22.23
19.69
13.42
4.62
-4.59
-11.93
-16.03
-17.00
-16.49
-17.22
-21.95
-32.59
-49.43
-70.98
-94.27
-115.56
-131.14
-138.05
-134.51
-120.16
-95.89
-63.68
-26.19
13.55
52.57
88.48
119.85
146.46
169.15
189.19
207.57
224.35
238.56
248.63
253.13
251.55
244.46
233.00
217.94
198.96
174.53
142.79
102.86
55.85
5.07
-44.74
-88.73
-123.32
-146.88
-159.75
-163.65
-161.05
-154.49
-146.27
-138.21
-131.55
-126.87
-124.16
-122.88
-122.05
-120.44
-116.81
-110.37
-101.13
-89.99
-78.44
-67.84
-58.72
-50.48
-41.78
-31.44
-19.47
-7.42
2.02
6.22
4.00
-3.58
-13.31
-20.96
-22.74
-16.57
-2.66
16.72
38.10
57.85
73.08
82.08
84.48
81.05
73.40
63.45
53.17
44.19
37.67
34.15
33.44
34.74
36.69
37.79
36.96
33.95
29.52
25.06
21.90
20.66
21.00
21.87
22.24
21.59
20.04
17.99
15.63
12.71
8.89
4.23
-0.38
-3.52
-3.90
-1.21
3.58
8.69
12.37
13.65
12.49
9.24
3.95
-3.88
-14.92
-29.10
-45.01
-59.94
-70.76
-75.10
-72.14
-62.74
-49.00
-33.46
-18.70
-6.91
0.22
1.83
-1.76
-8.84
-16.64
-22.18
-23.40
-19.96
-13.36
-6.11
-0.51
2.35
3.06
3.40
5.31
9.96
17.25
25.98
34.33
40.45
42.79
40.31
32.76
20.86
6.37
-8.30
-20.83
-29.75
-34.97
-37.47
-38.54
-38.83
-38.06
-35.42
-30.71
-24.94
-20.25
-18.80
-21.29
-26.19
-30.08
-29.23
-21.46
-7.42
9.56
24.97
35.04
38.39
36.26
31.44
26.62
23.14
20.65
18.02
14.51
10.62
8.03
8.72
13.73
22.44
32.65
41.43
46.33
46.24
41.71
34.46
26.63
19.92
15.18
12.35
10.70
9.31
7.46
4.88
1.76
-1.49
-4.37
-6.52
-7.74
-7.99
-7.33
-5.92
-4.00
-1.87
0.15
1.79
2.86
3.23
2.85
1.73
-0.03
-2.19
-4.33
-6.02
-6.85
-6.62
-5.37
-3.23
-0.31
3.28
7.42
11.81
15.91
19.03
20.52
20.05
17.67
13.77
8.85
3.34
-2.42
-8.11
-13.24
-17.25
-19.64
-20.21
-19.22
-17.27
-15.01
-12.80
-10.53
-7.80
-4.18
0.43
5.72
11.10
15.94
19.80
22.45
23.81
23.86
22.65
20.30
17.13
13.52
9.83
6.30
3.04
0.19
-2.02
-3.29
-3.42
-2.55
-1.25
-0.32
-0.53
-2.19
-5.12
-8.80
-12.57
-16.02
-18.96
-21.38
-23.30
-24.63
-25.18
-24.78
-23.38
-21.10
-18.26
-15.21
-12.19
-9.26
-6.22
-2.78
1.24
5.71
10.01
13.22
14.36
12.89
9.08
4.02
-0.66
-3.51
-3.90
-2.34
-0.24
0.81
-0.19
-3.22
-7.37
-11.43
-14.56
-16.52
-17.62
-18.24
-18.55
-18.55
-18.31
-18.25
-19.06
-21.33
-25.01
-29.29
-32.89
-34.66
-34.12
-31.58
-27.91
-23.92
-20.01
-16.16
-12.24
-8.50
-5.69
-4.80
-6.47
-10.58
-16.09
-21.55
-25.71
-28.12
-29.18
-29.72
-30.45
-31.43
-32.09
-31.55
-29.18
-25.01
-19.79
-14.69
-10.83
-8.89
-8.86
-10.23
-12.25
-14.29
-16.11
-17.78
-19.53
-21.56
-23.82
-25.99
-27.58
-28.14
-27.32
-25.01
-21.30
-16.42
-10.72
-4.59
1.55
7.31
12.31
16.32
19.20
21.05
22.11
22.77
23.39
24.21
25.32
26.60
27.91
29.04
29.76
29.85
29.16
27.66
25.59
23.36
21.41
19.93
18.74
17.24
14.65
10.47
4.73
-1.89
-8.29
-13.30
-16.12
-16.58
-15.05
-12.26
-8.90
-5.36
-1.67
2.37
6.94
11.95
16.95
21.36
24.76
27.12
28.79
30.37
32.21
34.25
35.97
36.69
35.97
33.86
30.92
27.89
25.34
23.39
21.75
19.94
17.63
14.74
11.46
7.97
4.36
0.55
-3.56
-7.95
-12.33
-16.26
-19.36
-21.39
-22.39
-22.46
-21.68
-20.02
-17.38
-13.68
-9.01
-3.64
2.03
7.52
12.40
16.35
19.17
20.82
21.38
21.08
20.24
19.25
18.46
18.10
18.27
18.86
19.61
20.20
20.36
19.89
18.76
17.00
14.70
11.99
8.96
5.73
2.35
-1.16
-4.88
-8.90
-13.23
-17.61
-21.61
-24.65
-26.16
-25.83
-23.68
-20.08
-15.62
-10.88
-6.27
-1.91
2.31
6.58
10.93
15.13
18.72
21.20
22.29
22.16
21.40
20.74
20.72
21.49
22.73
23.85
24.26
23.71
22.31
20.49
18.74
17.41
16.55
15.87
14.93
13.32
10.80
7.40
3.35
-1.09
-5.67
-10.24
-14.69
-18.83
-22.45
-25.25
-26.96
-27.42
-26.56
-24.42
-21.11
-16.77
-11.55
-5.70
0.41
6.34
11.57
15.62
18.17
19.13
18.76
17.57
16.27
15.51
15.60
16.39
17.31
17.66
16.92
15.10
12.72
10.48
8.95
8.22
7.96
7.58
6.68
5.15
3.22
1.17
-0.91
-3.17
-5.91
-9.36
-13.35
-17.40
-20.82
-22.92
-23.37
-22.20
-19.81
-16.75
-13.52
-10.39
-7.34
-4.20
-0.77
2.97
6.80
10.26
12.85
14.16
14.06
12.72
10.55
8.00
5.44
3.07
0.94
-0.94
-2.56
-3.87
-4.84
-5.58
-6.26
-7.16
-8.49
-10.36
-12.79
-15.73
-19.16
-23.12
-27.55
-32.30
-36.97
-40.96
-43.61
-44.40
-43.07
-39.71
-34.71
-28.56
-21.73
-14.66
-7.80
-1.59
3.51
7.21
9.49
10.75
11.69
13.10
15.48
18.85
22.67
26.11
28.39
29.04
28.11
26.02
23.37
20.70
18.34
16.32
14.50
12.66
10.64
8.38
5.80
2.81
-0.79
-5.22
-10.56
-16.66
-23.04
-28.95
-33.64
-36.46
-37.04
-35.31
-31.44
-25.91
-19.43
-12.82
-6.88
-2.16
1.23
3.59
5.46
7.30
9.28
11.23
12.80
13.72
13.93
13.66
13.26
13.05
13.23
13.82
14.70
15.62
16.25
16.25
15.44
13.84
11.79
9.81
8.40
7.78
7.65
7.30
5.81
2.61
-2.22
-7.62
-11.91
-13.38
-11.13
-5.52
1.70
8.12
11.56
10.98
6.94
1.30
-3.49
-5.23
-2.62
4.36
14.52
25.77
35.57
41.66
42.71
38.76
31.18
22.10
13.55
6.75
1.89
-1.49
-3.86
-5.23
-5.08
-2.84
1.56
7.46
13.61
18.68
21.71
22.28
20.44
16.44
10.61
3.40
-4.48
-12.03
-18.10
-21.73
-22.46
-20.50
-16.63
-11.86
-7.06
-2.63
1.58
6.01
11.01
16.49
21.79
25.87
27.72
26.77
23.23
17.89
11.98
6.62
2.58
0.13
-0.88
-0.77
0.09
1.40
2.91
4.30
5.19
5.20
4.06
1.80
-1.32
-4.94
-8.83
-13.00
-17.56
-22.60
-27.86
-32.73
-36.44
-38.33
-38.16
-36.16
-32.91
-29.01
-24.91
-20.83
-16.80
-12.85
-9.07
-5.57
-2.50
0.07
2.10
3.51
4.12
3.73
2.25
-0.16
-2.99
-5.58
-7.39
-8.25
-8.46
-8.53
-8.98
-9.95
-11.20
-12.29
-12.94
-13.32
-13.96
-15.60
-18.67
-23.06
-28.00
-32.29
-34.72
-34.45
-31.28
-25.63
-18.42
-10.70
-3.27
3.35
9.10
14.08
18.46
22.25
25.37
27.71
29.18
29.81
29.66
28.76
27.12
24.79
21.92
18.81
15.89
13.51
11.82
10.67
9.68
8.34
6.17
2.87
-1.59
-6.92
-12.63
-18.18
-23.13
-27.29
-30.65
-33.36
-35.48
-36.92
-37.43
-36.67
-34.35
-30.40
-24.94
-18.39
-11.30
-4.33
1.84
6.68
9.86
11.37
11.43
10.45
8.85
6.96
4.97
2.95
0.97
-0.86
-2.33
-3.23
-3.42
-2.92
-1.92
-0.80
-0.07
-0.30
-2.01
-5.48
-10.62
-16.82
-23.14
-28.52
-32.28
-34.27
-34.88
-34.71
-34.16
-33.17
-31.26
-27.87
-22.73
-16.10
-8.65
-1.24
5.43
10.98
15.32
18.56
20.79
22.17
22.77
22.69
21.98
20.69
18.84
16.53
14.01
11.58
9.52
7.93
6.75
5.75
4.74
3.62
2.46
1.37
0.41
-0.57
-1.84
-3.76
-6.56
-10.25
-14.56
-18.98
-22.83
-25.42
-26.16
-24.66
-20.79
-14.76
-7.07
1.51
9.99
17.38
22.92
26.32
27.84
28.20
28.26
28.64
29.50
30.59
31.47
31.84
31.69
31.23
30.71
30.19
29.55
28.62
27.23
25.40
23.15
20.49
17.25
13.22
8.23
2.33
-4.15
-10.72
-16.83
-22.07
-26.30
-29.65
-32.34
-34.57
-36.23
-36.99
-36.39
-34.10
-30.21
-25.21
-19.94
-15.29
-11.91
-10.14
-9.84
-10.55
-11.60
-12.35
-12.41
-11.75
-10.72
-9.83
-9.52
-9.92
-10.84
-11.88
-12.67
-13.01
-12.90
-12.48
-12.02
-11.84
-12.30
-13.71
-16.23
-19.75
-23.93
-28.26
-32.26
-35.51
-37.83
-39.13
-39.52
-39.20
-38.41
-37.29
-35.72
-33.30
-29.51
-24.17
-17.64
-10.97
-5.43
-2.05
-1.15
-2.32
-4.65
-7.16
-9.15
-10.25
-10.38
-9.62
-8.10
-6.09
-3.90
-1.90
-0.44
0.28
0.24
-0.49
-1.72
-3.24
-4.93
-6.76
-8.77
-11.01
-13.35
-15.38
-16.46
-15.92
-13.33
-8.83
-2.97
3.42
9.69
15.56
21.13
26.56
31.81
36.50
40.01
41.81
41.78
40.32
38.21
36.25
35.01
34.56
34.61
34.70
34.43
33.64
32.38
30.84
29.24
27.69
26.21
24.62
22.70
20.17
16.85
12.71
7.94
2.87
-2.04
-6.34
-9.58
-11.37
-11.34
-9.22
-5.00
1.02
8.15
15.45
21.96
26.95
30.15
31.67
31.97
31.54
30.79
29.89
28.84
27.50
25.75
23.53
20.83
17.72
14.24
10.52
6.69
2.99
-0.35
-3.11
-5.27
-7.03
-8.78
-10.90
-13.64
-16.86
-20.11
-22.78
-24.29
-24.35
-22.92
-20.21
-16.43
-11.74
-6.27
-0.10
6.55
13.40
20.04
26.06
31.13
35.03
37.70
39.19
39.68
39.40
38.59
37.44
36.04
34.38
32.47
30.38
28.26
26.29
24.56
23.00
21.41
19.60
17.48
15.06
12.44
9.67
6.83
3.93
1.07
-1.69
-4.31
-6.77
-9.06
-10.95
-12.02
-11.70
-9.58
-5.61
-0.24
5.65
11.09
15.24
17.66
18.28
17.40
15.48
13.11
10.84
9.12
8.15
7.88
8.09
8.57
9.18
9.81
10.35
10.58
10.20
8.96
6.78
3.83
0.44
-3.13
-6.79
-10.61
-14.64
-18.67
-22.15
-24.33
-24.54
-22.52
-18.56
-13.25
-7.29
-1.17
4.87
10.84
16.66
22.18
27.03
30.78
33.10
33.86
33.13
31.15
28.18
24.40
19.93
14.82
9.22
3.40
-2.17
-7.00
-10.70
-13.16
-14.63
-15.65
-16.79
-18.54
-21.11
-24.43
-28.22
-32.08
-35.53
-38.04
-39.06
-38.19
-35.28
-30.59
-24.83
-18.97
-14.10
-10.96
-9.83
-10.36
-11.76
-13.15
-13.85
-13.69
-12.95
-12.25
-12.06
-12.55
-13.43
-14.15
-14.24
-13.56
-12.47
-11.52
-11.19
-11.51
-12.02
-11.94
-10.65
-7.95
-4.24
-0.32
3.02
5.31
6.71
7.85
9.65
12.90
18.00
24.85
32.87
41.32
49.42
56.57
62.28
66.08
67.48
66.02
61.59
54.60
46.10
37.42
29.80
23.92
19.71
16.62
13.88
10.87
7.23
2.93
-1.86
-6.74
-11.24
-15.05
-18.17
-21.14
-24.83
-29.96
-36.65
-44.18
-51.16
-56.11
-57.94
-56.26
-51.29
-43.61
-34.07
-23.70
-13.70
-5.41
0.13
2.56
2.44
1.09
-0.01
0.22
2.02
4.84
7.78
9.99
11.07
11.13
10.60
9.93
9.38
8.77
7.56
4.87
-0.28
-8.53
-19.68
-32.28
-43.78
-51.14
-52.10
-46.14
-35.01
-22.03
-10.85
-3.95
-1.71
-2.58
-3.99
-3.60
-0.23
5.86
13.38
20.60
25.93
28.27
26.99
22.03
13.86
3.64
-6.85
-15.32
-19.67
-18.74
-12.99
-4.66
2.84
6.20
3.35
-5.69
-18.97
-33.45
-46.10
-54.75
-58.56
-57.82
-53.66
-47.56
-40.98
-35.07
-30.41
-27.01
-24.43
-21.94
-18.89
-14.81
-9.55
-3.30
3.40
9.80
15.09
18.79
21.01
22.52
24.47
27.75
32.54
38.07
42.90
45.63
45.47
42.60
37.97
32.81
28.02
23.91
20.19
16.29
11.72
6.34
0.36
-5.82
-11.77
-17.17
-21.79
-25.38
-27.52
-27.71
-25.48
-20.64
-13.54
-5.07
3.48
10.85
16.12
19.02
19.89
19.43
18.33
16.99
15.37
13.18
10.05
5.91
1.04
-3.94
-8.33
-11.57
-13.52
-14.47
-15.01
-15.82
-17.41
-20.03
-23.59
-27.76
-32.02
-35.71
-38.09
-38.39
-36.01
-30.66
-22.55
-12.41
-1.35
9.41
18.83
26.23
31.41
34.48
35.67
35.18
33.22
30.15
26.64
23.65
22.14
22.60
24.67
27.22
28.85
28.52
26.09
22.21
17.84
13.57
9.20
3.80
-3.61
-13.49
-25.25
-37.40
-47.96
-55.19
-58.15
-56.93
-52.63
-46.96
-41.63
-37.79
-35.67
-34.63
-33.46
-30.91
-26.11
-18.71
-8.85
2.87
15.50
27.59
37.25
42.41
41.46
33.99
21.30
6.25
-7.51
-16.72
-19.60
-16.44
-9.40
-1.72
3.42
3.87
-0.91
-9.88
-20.96
-31.75
-40.30
-45.49
-47.20
-46.06
-43.06
-39.15
-35.06
-31.10
-27.30
-23.49
-19.31
-14.39
-8.42
-1.33
6.61
14.70
21.92
27.19
29.77
29.59
27.36
24.37
22.04
21.34
22.47
24.82
27.30
28.80
28.60
26.56
23.03
18.64
14.06
9.87
6.39
3.72
1.68
-0.06
-1.98
-4.48
-7.71
-11.49
-15.35
-18.67
-20.88
-21.65
-20.89
-18.70
-15.27
-10.85
-5.76
-0.34
5.01
10.00
14.41
18.25
21.55
24.36
26.64
28.29
29.26
29.63
29.61
29.45
29.34
29.34
29.42
29.57
29.83
30.26
30.78
31.05
30.43
28.14
23.54
16.51
7.66
-1.76
-10.27
-16.78
-21.06
-23.94
-26.95
-31.73
-39.32
-49.75
-61.88
-73.72
-83.00
-87.75
-86.93
-80.77
-70.76
-59.36
-49.36
-43.08
-41.75
-45.00
-50.97
-56.82
-59.51
-56.75
-47.67
-33.04
-14.88
4.34
22.67
39.16
53.80
66.87
78.18
86.90
91.91
92.64
89.71
84.97
80.80
79.03
80.12
82.92
85.00
83.43
75.83
61.21
40.48
16.47
-6.84
-25.55
-37.28
-42.10
-42.20
-40.85
-40.67
-42.45
-45.08
-46.52
-45.25
-41.30
-36.18
-32.06
-30.53
-31.81
-34.72
-37.39
-38.08
-35.95
-31.27
-25.16
-19.07
-14.17
-10.93
-9.03
-7.55
-5.49
-2.23
2.20
7.27
12.25
16.64
20.39
23.77
27.11
30.51
33.99
37.61
41.67
46.80
53.64
62.57
73.42
85.58
98.24
110.75
122.71
134.05
144.62
153.97
161.25
165.26
164.97
159.90
150.32
137.04
120.90
102.30
81.06
56.75
29.22
-0.86
-32.03
-62.32
-89.75
-112.63
-129.77
-140.55
-145.03
-144.13
-139.66
-133.89
-128.68
-124.68
-121.04
-116.02
-108.06
-96.78
-83.36
-69.99
-58.90
-51.48
-47.82
-46.96
-47.19
-46.59
-43.38
-36.17
-24.22
-7.74
11.96
32.75
52.17
68.02
78.93
84.46
85.10
82.18
77.78
74.26
73.82
77.72
85.67
95.70
104.57
108.84
105.91
95.03
77.54
56.68
36.62
21.51
14.27
15.88
24.92
37.88
50.02
56.72
54.91
44.04
26.23
5.51
-13.69
-27.99
-36.12
-38.77
-37.74
-34.68
-30.26
-24.11
-15.45
-4.25
8.20
19.35
26.21
26.56
19.81
7.39
-7.78
-22.12
-32.50
-37.12
-36.14
-31.76
-27.67
-27.75
-34.54
-47.93
-64.68
-79.17
-85.29
-78.74
-58.81
-28.73
5.37
36.69
60.09
73.58
78.40
77.91
75.77
74.42
74.54
75.45
76.27
76.86
78.15
81.57
88.08
97.27
107.55
116.84
123.73
128.17
131.41
135.20
140.80
148.34
156.79
164.32
168.77
168.06
160.34
144.30
119.67
88.03
53.03
19.60
-7.72
-26.90
-39.40
-49.82
-63.61
-84.52
-113.01
-146.24
-180.05
-211.31
-239.53
-266.95
-297.25
-334.05
-379.23
-431.98
-488.28
-541.29
-582.65
-604.66
-602.73
-577.02
-532.34
-476.32
-416.86
-359.75
-307.82
-261.48
-219.88
-181.73
-145.64
-110.39
-75.36
-41.02
-9.16
17.73
37.63
49.94
55.56
56.18
53.28
47.69
39.85
30.78
22.46
17.35
17.11
21.56
28.68
35.92
42.08
48.46
58.52
76.09
103.33
139.35
180.19
220.22
254.03
278.10
291.55
295.77
293.64
288.16
281.33
273.60
263.91
250.44
231.71
207.52
179.26
149.33
120.22
93.63
70.18
49.78
32.29
17.96
7.21
0.15
-3.89
-6.21
-8.28
-11.11
-14.90
-19.18
-23.14
-25.93
-26.91
-25.93
-23.68
-21.80
-22.60
-27.87
-37.64
-49.44
-59.01
-62.14
-56.81
-44.19
-27.92
-12.21
0.16
8.55
13.82
16.87
17.79
15.90
10.67
2.42
-7.70
-18.23
-28.00
-36.07
-41.20
-41.50
-34.86
-20.01
2.24
28.81
55.24
77.34
92.89
102.29
107.95
113.02
119.72
128.51
138.15
146.33
150.81
150.49
145.92
139.28
133.75
132.18
135.95
144.26
154.46
163.08
167.38
166.43
161.28
154.31
147.87
143.25
140.24
137.46
132.88
124.58
111.24
92.58
69.89
46.24
26.14
14.29
13.52
23.02
37.91
50.70
54.33
45.39
25.83
2.36
-16.43
-23.64
-16.87
1.11
23.98
44.84
58.90
64.95
64.90
62.24
59.86
58.86
58.21
55.68
49.18
37.79
22.15
3.89
-15.37
-34.91
-55.12
-77.17
-102.23
-130.90
-162.98
-197.91
-235.14
-273.82
-312.11
-346.53
-372.38
-385.38
-384.00
-370.94
-352.68
-337.02
-329.94
-333.04
-343.27
-354.64
-361.05
-358.56
-346.14
-325.00
-297.11
-264.09
-226.74
-185.35
-140.51
-93.81
-48.18
-7.42
24.98
47.04
59.05
63.18
62.19
58.18
51.96
43.66
34.08
25.52
21.49
25.07
36.85
53.70
69.38
76.88
71.33
52.06
23.13
-8.15
-33.53
-46.35
-43.38
-25.36
3.37
36.24
66.09
87.24
96.66
94.94
85.97
75.79
70.72
75.10
89.70
111.33
134.03
151.54
159.81
158.41
150.28
139.88
130.99
125.20
121.93
119.49
116.56
112.89
109.14
106.02
103.56
100.98
97.18
91.47
84.02
75.82
68.22
62.27
58.27
55.76
53.71
51.08
47.14
41.70
34.98
27.65
20.76
15.59
13.41
14.90
19.71
26.31
32.46
36.12
36.51
34.44
31.81
30.39
30.47
30.41
27.10
17.41
-0.19
-24.66
-52.31
-77.84
-95.82
-102.50
-96.95
-81.52
-61.17
-42.19
-30.40
-29.55
-40.36
-60.28
-84.33
-106.51
-121.63
-126.80
-122.31
-111.30
-98.54
-88.57
-84.04
-84.99
-89.26
-93.81
-96.35
-96.32
-95.01
-94.68
-97.21
-102.96
-110.15
-115.29
-114.25
-103.65
-81.99
-50.02
-10.44
33.21
77.38
118.93
154.93
182.37
198.15
199.68
186.11
159.27
123.89
86.55
53.77
30.00
16.29
10.40
8.19
5.61
0.29
-7.64
-15.94
-21.31
-20.89
-13.49
-0.21
15.86
30.80
41.30
45.89
45.36
42.19
39.19
38.04
38.45
38.47
35.69
28.76
18.36
7.16
-1.21
-3.65
1.17
12.49
27.78
43.90
58.08
68.74
75.48
78.80
79.48
78.08
74.71
69.04
60.64
49.45
36.20
22.53
10.58
2.23
-1.80
-2.46
-2.14
-3.68
-9.05
-18.36
-29.69
-39.87
-45.72
-45.49
-39.61
-30.70
-22.72
-19.55
-23.44
-34.12
-48.83
-63.37
-73.66
-77.19
-73.63
-64.54
-52.30
-39.23
-26.90
-16.26
-7.98
-2.66
-0.69
-1.81
-4.74
-7.51
-8.20
-5.84
-1.02
4.36
7.95
8.23
5.18
0.36
-3.94
-5.89
-4.96
-2.14
0.61
1.36
-0.86
-5.71
-11.71
-17.00
-20.19
-20.97
-20.29
-19.94
-21.82
-27.16
-36.05
-47.23
-58.43
-66.98
-70.51
-67.73
-58.80
-45.33
-29.85
-15.15
-3.31
4.70
9.17
11.26
12.34
13.46
15.02
16.79
18.10
18.24
16.69
13.33
8.58
3.28
-1.54
-4.88
-6.15
-5.32
-2.95
-0.04
2.39
3.65
3.63
2.68
1.37
-0.11
-2.13
-5.67
-11.98
-21.91
-35.29
-50.50
-64.63
-74.23
-76.40
-70.00
-56.24
-38.39
-20.59
-6.38
2.44
6.27
7.07
7.18
8.28
10.77
14.05
17.16
19.47
20.96
22.13
23.48
25.12
26.60
27.10
25.80
22.41
17.32
11.49
6.21
2.64
1.41
2.40
4.72
6.99
7.74
5.85
0.80
-7.19
-17.36
-28.51
-39.22
-47.95
-53.17
-53.70
-49.04
-39.74
-27.35
-13.95
-1.54
8.64
16.31
21.88
25.86
28.47
29.52
28.78
26.43
23.29
20.58
19.28
19.65
20.94
21.87
21.30
18.89
15.25
11.50
8.59
6.80
5.67
4.46
2.63
0.12
-2.80
-5.79
-8.63
-11.39
-14.33
-17.81
-22.23
-27.74
-34.01
-39.98
-44.09
-44.76
-41.09
-33.42
-23.26
-12.75
-3.82
2.42
5.80
6.93
6.80
6.40
6.69
8.33
11.50
15.83
20.32
23.88
25.76
25.87
24.88
23.76
23.25
23.43
23.73
23.24
21.25
17.71
13.38
9.63
7.86
8.95
12.72
17.92
22.37
23.66
19.94
10.70
-2.73
-17.23
-28.71
-33.41
-29.38
-17.35
-0.65
16.14
28.97
35.90
37.64
36.82
36.49
38.64
43.39
49.24
54.05
56.10
54.88
51.12
46.37
42.27
39.85
39.09
38.95
37.88
34.52
28.42
20.38
12.09
5.41
1.54
0.53
1.26
2.14
1.85
-0.15
-3.61
-7.93
-12.61
-17.44
-22.34
-27.01
-30.69
-32.35
-31.12
-26.84
-20.21
-12.65
-5.68
-0.39
2.94
4.75
5.79
6.78
8.12
9.85
11.79
13.58
14.78
14.99
13.99
11.93
9.37
7.14
5.98
6.18
7.43
8.93
9.71
9.01
6.53
2.46
-2.57
-7.72
-12.22
-15.56
-17.76
-19.47
-21.88
-26.39
-34.06
-44.82
-57.25
-68.61
-75.83
-76.55
-70.12
-57.90
-42.69
-27.59
-14.91
-5.53
0.96
5.62
9.45
12.98
16.29
19.26
21.71
23.52
24.55
24.60
23.63
21.84
19.81
18.36
18.25
19.82
22.74
26.09
28.75
29.80
28.90
26.33
22.57
18.06
12.98
7.43
1.69
-3.55
-7.40
-9.30
-9.49
-9.16
-10.22
-14.45
-22.63
-33.97
-46.06
-55.60
-59.66
-56.86
-48.04
-35.98
-24.18
-15.43
-10.67
-8.91
-7.98
-5.65
-0.73
6.59
15.15
23.34
29.73
33.55
34.69
33.85
32.31
31.56
32.69
35.85
40.03
43.41
44.28
41.95
37.08
31.42
26.87
24.71
24.92
26.39
27.47
26.69
23.36
17.75
10.89
4.13
-1.53
-5.71
-8.86
-12.04
-16.54
-23.49
-33.32
-45.55
-58.68
-70.37
-78.08
-79.82
-75.06
-65.06
-52.53
-40.61
-31.49
-25.51
-21.15
-15.92
-7.77
3.77
17.17
29.72
38.78
43.04
43.07
41.03
39.53
40.46
44.12
49.19
53.47
54.93
52.73
47.58
41.41
36.42
34.08
34.46
36.26
37.37
35.92
31.04
23.23
13.98
5.08
-2.14
-7.19
-10.40
-12.61
-14.70
-17.33
-20.83
-25.28
-30.77
-37.34
-45.01
-53.43
-61.62
-67.93
-70.50
-67.95
-60.12
-48.34
-35.08
-22.95
-13.74
-7.79
-4.20
-1.48
1.59
5.52
10.15
15.01
19.66
23.85
27.49
30.60
33.29
35.81
38.52
41.70
45.23
48.56
50.85
51.44
50.26
47.96
45.60
43.92
42.84
41.32
37.89
31.39
21.84
10.59
-0.01
-7.55
-10.53
-9.05
-5.04
-1.61
-2.10
-8.82
-22.05
-39.49
-56.69
-68.37
-70.32
-61.27
-43.50
-22.21
-3.38
8.63
12.76
11.34
8.60
8.45
12.68
20.39
28.85
35.11
37.34
35.51
31.01
25.80
21.47
18.72
17.43
17.12
17.50
18.86
21.68
26.02
30.84
34.03
33.12
26.61
15.08
1.38
-10.42
-16.95
-17.16
-12.85
-7.78
-5.90
-9.64
-19.16
-32.66
-47.31
-60.21
-69.05
-72.22
-69.02
-59.91
-46.69
-32.24
-19.72
-11.44
-7.90
-7.64
-8.05
-6.59
-1.97
5.43
13.85
21.01
25.02
24.93
21.07
14.86
8.50
4.24
3.64
6.90
12.63
18.30
21.30
20.02
14.51
6.28
-2.55
-10.28
-16.23
-20.61
-24.06
-26.98
-29.43
-31.32
-32.91
-34.98
-38.78
-45.31
-54.75
-65.98
-76.81
-84.58
-87.02
-83.15
-73.46
-59.82
-44.76
-30.77
-19.51
-11.43
-5.78
-0.99
4.53
11.70
20.19
28.59
34.99
37.89
36.98
33.26
28.56
24.77
23.03
23.51
25.56
28.17
30.33
31.22
30.24
27.05
21.63
14.41
6.30
-1.55
-8.03
-12.47
-14.92
-16.09
-17.05
-18.96
-22.68
-28.77
-37.36
-48.07
-59.87
-70.99
-79.01
-81.41
-76.52
-64.49
-47.64
-29.97
-15.70
-7.48
-5.19
-5.95
-5.42
0.08
11.82
27.90
44.07
55.59
59.50
55.84
47.63
39.36
34.93
36.15
42.20
50.47
57.97
62.62
63.77
61.82
57.42
50.96
42.62
32.88
22.85
14.18
8.37
5.96
6.11
6.98
6.53
3.35
-2.99
-12.15
-23.49
-36.32
-49.72
-62.16
-71.42
-75.19
-72.05
-62.36
-48.41
-33.65
-21.22
-12.66
-7.43
-3.40
1.78
9.40
19.08
29.08
37.18
41.97
43.26
42.19
40.42
39.30
39.33
40.06
40.53
39.84
37.60
34.13
30.17
26.60
24.04
22.61
21.91
21.27
19.89
17.17
12.86
7.14
0.60
-5.93
-11.70
-16.34
-19.98
-23.25
-26.96
-31.83
-38.19
-45.88
-54.28
-62.36
-68.87
-72.41
-71.82
-66.38
-56.24
-42.56
-27.40
-13.13
-1.79
5.59
9.33
10.98
12.68
16.37
22.92
31.74
40.93
47.96
50.82
48.93
43.51
37.06
32.43
31.46
34.44
40.00
45.92
50.04
51.06
48.79
43.93
37.55
30.66
24.13
18.52
14.21
11.18
9.03
7.03
4.42
0.85
-3.50
-8.14
-12.63
-17.15
-22.29
-28.77
-36.57
-44.46
-50.22
-51.41
-46.55
-36.00
-22.06
-8.12
2.57
8.27
9.25
7.61
6.23
7.50
12.39
20.20
29.07
36.80
41.76
43.32
41.92
38.78
35.45
33.26
32.95
34.37
36.59
38.22
37.97
35.21
30.23
23.96
17.57
11.85
7.02
2.86
-0.94
-4.51
-7.72
-10.36
-12.43
-14.32
-16.81
-20.93
-27.54
-37.08
-49.08
-62.14
-74.00
-82.13
-84.51
-80.39
-70.68
-57.75
-44.63
-33.95
-27.06
-23.70
-22.32
-20.81
-17.48
-11.62
-3.64
5.21
13.46
19.92
24.04
25.95
26.26
25.92
25.85
26.69
28.66
31.30
33.67
34.66
33.49
30.14
25.32
20.23
15.74
12.07
8.66
4.71
-0.10
-5.35
-10.02
-13.30
-15.14
-16.46
-18.60
-22.56
-28.41
-35.48
-42.79
-49.73
-56.13
-61.91
-66.52
-68.83
-67.61
-62.20
-53.08
-41.80
-30.29
-20.03
-11.64
-4.86
0.97
6.50
11.99
17.42
22.61
27.39
31.58
35.05
37.76
39.85
41.62
43.41
45.27
46.70
46.73
44.34
39.08
31.48
23.14
16.12
12.08
11.48
13.33
15.52
15.75
12.55
5.91
-2.71
-11.04
-17.07
-19.88
-20.01
-19.15
-19.25
-21.75
-27.06
-34.64
-43.45
-52.31
-60.05
-65.49
-67.41
-64.92
-57.99
-47.84
-36.79
-27.43
-21.35
-18.31
-16.38
-12.87
-5.89
4.62
16.74
27.47
34.16
35.61
32.50
26.92
21.31
17.51
16.16
16.76
18.21
19.41
19.79
19.30
18.26
17.02
15.79
14.54
13.02
10.84
7.50
2.56
-4.14
-12.16
-20.31
-26.81
-29.82
-28.20
-22.18
-13.50
-5.08
0.01
-0.36
-6.63
-17.18
-28.87
-37.92
-41.29
-37.63
-27.75
-14.27
-0.55
10.62
18.09
22.52
25.81
29.88
35.59
42.34
48.32
51.58
51.01
46.94
40.96
35.19
31.34
30.10
31.04
33.06
35.09
36.50
37.26
37.60
37.67
37.37
36.32
34.23
31.10
27.32
23.38
19.55
15.69
11.27
5.73
-1.03
-8.43
-15.41
-20.74
-23.64
-23.97
-22.20
-19.06
-15.21
-11.00
-6.57
-2.06
2.26
5.94
8.84
11.33
14.36
19.10
26.07
34.71
43.25
49.39
51.43
49.22
44.40
39.71
37.80
40.00
45.81
53.26
59.86
63.63
63.78
60.64
55.21
48.60
41.64
34.82
28.39
22.48
16.88
11.03
3.94
-5.46
-17.75
-32.61
-48.50
-63.15
-74.47
-81.51
-85.00
-87.06
-90.29
-96.50
-105.97
-117.09
-126.97
-132.44
-130.95
-121.41
-104.44
-82.30
-58.32
-36.35
-19.69
-10.21
-7.66
-9.75
-12.88
-13.63
-10.09
-2.73
5.70
11.26
10.41
1.54
-14.03
-32.36
-48.10
-56.46
-54.95
-44.32
-28.15
-11.23
2.22
9.89
11.56
8.67
3.41
-1.83
-4.83
-3.89
1.78
11.47
23.27
34.51
43.13
48.35
50.91
52.20
53.25
54.18
54.33
53.02
49.99
45.33
39.10
31.19
21.56
10.94
1.03
-5.93
-8.33
-6.28
-1.81
1.95
2.30
-1.69
-8.92
-16.92
-23.34
-27.22
-29.46
-32.21
-37.56
-46.19
-56.75
-66.41
-72.27
-72.97
-69.35
-63.94
-59.30
-56.49
-54.34
-50.16
-41.53
-27.71
-10.32
7.55
22.78
33.79
40.99
46.22
51.70
58.99
68.50
79.60
90.93
100.84
107.67
110.05
107.32
99.71
88.56
76.15
65.06
57.46
54.46
55.68
59.54
63.70
65.83
64.45
59.28
51.35
42.43
34.00
26.32
18.08
7.25
-7.38
-24.97
-42.54
-56.31
-63.80
-65.30
-63.72
-62.99
-65.91
-72.86
-81.92
-90.22
-95.21
-95.31
-89.73
-77.98
-60.06
-37.08
-12.01
10.59
25.83
30.57
25.00
12.79
-0.23
-8.31
-7.86
1.52
17.39
35.77
52.65
65.30
72.75
75.41
74.01
68.59
57.94
40.21
14.40
-18.13
-52.96
-83.69
-104.19
-111.32
-106.43
-94.74
-82.92
-75.93
-74.97
-77.35
-78.34
-73.64
-61.55
-43.39
-22.47
-2.35
14.71
28.28
39.24
48.64
56.77
62.92
65.86
64.84
60.24
53.78
47.88
44.63
44.78
47.41
50.34
51.17
48.55
42.79
35.59
29.01
24.13
20.43
16.17
9.63
0.35
-10.43
-20.52
-28.11
-33.04
-37.00
-42.62
-51.93
-65.13
-80.28
-94.22
-104.00
-108.15
-107.13
-102.96
-98.12
-94.51
-92.57
-91.00
-87.30
-78.78
-63.71
-42.23
-16.47
10.21
34.46
54.27
69.39
80.97
90.45
98.62
105.39
110.40
113.79
116.69
120.66
126.56
133.57
139.03
139.53
132.60
118.09
98.58
78.30
61.16
48.94
40.51
32.53
21.19
4.06
-18.72
-44.62
-70.03
-91.78
-108.19
-119.13
-125.32
-127.58
-126.45
-122.54
-116.82
-110.84
-105.95
-102.32
-98.20
-90.33
-75.56
-52.85
-24.58
3.87
26.15
37.67
37.61
29.12
17.87
9.59
7.93
13.60
24.87
38.63
51.84
62.15
68.08
69.07
65.20
57.39
47.30
37.17
29.24
25.13
25.11
27.81
30.48
29.81
23.10
9.42
-9.74
-30.78
-48.92
-59.98
-61.82
-55.19
-43.39
-30.88
-21.57
-17.40
-18.02
-21.34
-24.77
-26.46
-25.88
-23.82
-21.69
-20.82
-21.70
-23.72
-25.30
-24.47
-19.58
-10.02
3.35
18.40
32.45
43.35
50.17
53.51
54.94
56.07
57.76
59.74
60.92
60.04
56.29
49.74
41.14
31.63
22.25
13.75
6.47
0.56
-4.15
-8.10
-12.02
-16.72
-22.51
-28.88
-34.44
-37.39
-36.38
-31.32
-23.52
-15.23
-8.49
-4.12
-1.35
1.69
6.80
14.71
24.68
34.87
43.31
48.68
50.80
50.33
48.29
45.59
42.76
40.00
37.43
35.29
33.81
33.04
32.67
31.96
30.02
26.09
19.98
12.25
4.06
-3.16
-8.16
-10.31
-9.72
-7.16
-3.80
-0.93
0.30
-0.80
-4.36
-9.73
-15.65
-20.62
-23.28
-22.96
-19.72
-14.20
-7.27
0.30
7.95
15.25
21.86
27.58
32.51
37.07
41.81
46.93
51.92
55.50
56.23
53.35
47.44
40.50
35.18
33.53
35.93
40.96
45.98
48.45
47.06
42.15
35.26
28.12
21.70
15.80
9.47
1.85
-7.06
-16.05
-23.33
-27.44
-28.22
-27.20
-27.01
-30.19
-37.86
-49.02
-60.80
-69.70
-73.03
-70.11
-62.30
-52.27
-42.67
-35.06
-29.62
-25.66
-22.34
-19.23
-16.35
-13.71
-11.14
-8.24
-4.80
-1.08
2.09
3.92
4.14
3.28
2.38
2.34
3.34
4.74
5.61
5.41
4.34
3.23
2.78
3.01
2.99
1.27
-3.25
-10.57
-19.38
-27.55
-33.16
-35.37
-34.83
-33.35
-33.05
-35.39
-40.51
-47.16
-53.13
-55.97
-53.79
-45.87
-33.02
-17.45
-2.17
9.92
17.00
18.95
17.40
14.98
14.23
16.62
21.95
28.65
34.49
37.55
37.06
33.69
29.19
25.66
24.58
26.19
29.36
32.14
32.60
29.71
23.68
15.82
7.90
1.37
-3.10
-5.81
-7.74
-10.00
-13.55
-18.92
-26.17
-34.86
-44.26
-53.64
-62.60
-71.62
-82.07
-95.72
-113.63
-134.83
-155.41
-169.03
-168.76
-150.19
-114.02
-66.86
-19.32
17.91
38.09
40.54
29.72
12.17
-7.10
-26.50
-47.46
-72.33
-102.44
-137.55
-176.80
-219.63
-265.80
-314.05
-360.73
-399.61
-423.70
-428.11
-412.38
-380.82
-340.56
-298.57
-259.19
-223.50
-190.20
-157.41
-124.13
-90.64
-57.81
-26.42
3.55
32.99
63.27
95.80
131.62
171.27
214.42
259.49
303.24
340.92
367.50
379.31
375.75
359.61
336.26
311.60
289.93
272.87
259.44
247.31
234.10
218.26
199.37
178.14
156.30
136.50
121.66
114.20
114.96
122.76
135.12
149.17
162.61
173.99
182.12
185.38
181.68
169.42
148.85
122.88
96.55
75.01
61.18
54.55
51.74
48.50
42.11
32.60
22.37
14.44
10.46
9.74
9.77
7.68
1.93
-6.79
-15.95
-22.37
-23.72
-19.37
-10.39
1.24
13.51
25.23
36.16
46.67
57.45
69.08
81.79
95.18
108.25
119.50
127.58
132.02
133.60
133.97
134.47
135.15
134.51
130.26
120.69
105.52
85.70
62.22
35.24
4.15
-31.07
-68.22
-102.42
-127.42
-138.10
-132.67
-113.39
-85.29
-53.80
-22.70
6.48
33.68
58.96
81.62
100.20
113.03
119.07
118.41
112.24
102.58
91.53
80.68
70.33
59.53
46.52
29.86
9.58
-12.45
-33.15
-49.64
-60.70
-67.30
-71.73
-75.88
-79.91
-82.35
-81.33
-76.20
-68.44
-61.12
-57.45
-59.10
-65.57
-74.80
-84.49
-93.16
-100.18
-105.23
-107.59
-106.22
-100.56
-91.61
-82.43
-77.25
-80.11
-93.28
-116.65
-148.37
-186.33
-229.55
-278.35
-332.84
-390.75
-446.18
-490.26
-514.11
-512.21
-485.03
-438.82
-382.87
-325.95
-273.27
-226.02
-182.74
-141.45
-100.88
-60.41
-19.21
24.12
70.60
119.32
166.33
205.25
229.30
233.62
216.87
181.25
131.58
74.15
16.05
-35.69
-75.17
-99.20
-108.38
-106.86
-100.50
-94.12
-89.60
-85.75
-79.87
-70.07
-56.35
-40.69
-25.86
-14.25
-7.39
-5.97
-9.90
-18.07
-28.17
-36.97
-41.15
-38.17
-26.94
-7.97
16.97
45.44
74.85
103.08
129.11
153.27
177.16
202.70
230.75
259.98
286.76
306.13
313.67
307.29
287.95
259.11
225.26
190.24
156.43
124.77
95.37
68.15
42.88
18.82
-5.68
-32.98
-64.89
-101.32
-139.41
-174.06
-199.74
-212.70
-212.37
-201.33
-183.80
-163.69
-143.23
-122.80
-101.66
-79.14
-55.54
-32.24
-11.19
5.87
17.91
24.79
26.97
25.23
20.53
14.12
7.63
2.91
1.58
4.43
11.06
19.91
28.94
36.27
40.71
41.92
40.13
36.06
30.83
25.89
22.87
23.21
27.75
36.65
49.51
65.59
83.84
102.72
120.02
133.05
139.33
137.48
128.00
113.15
96.26
80.37
67.28
57.05
48.36
39.41
28.74
15.82
1.32
-13.26
-26.16
-35.94
-42.01
-44.69
-44.92
-43.77
-42.04
-40.08
-37.95
-35.73
-33.65
-32.09
-31.37
-31.58
-32.52
-33.87
-35.26
-36.41
-36.99
-36.58
-34.62
-30.77
-25.10
-18.32
-11.57
-5.96
-2.20
-0.35
0.16
0.08
0.04
0.37
0.98
1.70
2.43
3.21
4.18
5.33
6.34
6.78
6.37
5.36
4.57
5.08
7.51
11.48
15.59
17.99
17.38
13.68
8.10
2.48
-1.61
-3.57
-3.92
-3.84
-4.52
-6.56
-9.71
-13.05
-15.37
-15.66
-13.57
-9.43
-4.13
1.33
6.34
10.91
15.64
21.34
28.52
37.08
46.32
55.11
62.32
67.19
69.42
69.17
66.81
62.61
56.59
48.55
38.25
25.72
11.55
-3.16
-16.91
-28.06
-35.19
-37.43
-34.52
-27.04
-16.31
-4.16
7.51
17.12
23.82
27.52
28.62
27.61
24.90
20.69
15.23
9.00
2.83
-2.27
-5.44
-6.18
-4.49
-0.88
3.96
9.36
14.83
20.16
25.34
30.36
35.19
39.59
43.19
45.62
46.80
46.97
46.70
46.56
46.83
47.34
47.50
46.65
44.35
40.67
36.16
31.68
28.02
25.58
24.18
23.14
21.51
18.43
13.36
6.20
-2.75
-13.09
-24.47
-36.73
-49.72
-63.06
-76.19
-88.25
-98.31
-105.38
-108.54
-107.05
-100.57
-89.58
-75.61
-61.10
-48.75
-40.50
-36.83
-36.50
-37.21
-36.69
-33.68
-28.35
-21.82
-15.45
-10.05
-5.65
-1.76
2.06
5.80
8.83
10.47
10.41
9.27
8.43
9.46
13.59
20.99
30.86
41.90
53.16
64.59
76.96
91.23
107.95
126.91
147.36
168.38
189.19
208.99
226.61
240.52
249.17
251.81
248.90
241.85
232.01
219.55
202.94
179.53
146.91
104.38
53.64
-1.74
-57.23
-108.75
-153.26
-189.07
-215.53
-232.86
-242.08
-245.01
-244.01
-241.41
-238.91
-237.10
-235.62
-233.54
-230.13
-225.28
-219.50
-213.43
-207.34
-200.70
-192.44
-181.43
-167.17
-150.18
-131.98
-114.61
-100.04
-89.39
-82.71
-78.91
-76.10
-72.43
-66.34
-57.06
-44.54
-29.45
-12.88
3.78
19.25
32.56
43.21
51.29
57.16
61.27
63.79
64.78
64.21
62.45
60.29
58.72
58.47
59.54
61.09
61.85
60.68
57.21
51.98
46.17
40.96
37.09
34.64
33.34
32.85
33.09
34.14
36.03
38.50
41.13
43.61
45.95
48.65
52.36
57.47
63.85
70.77
77.18
82.25
85.75
88.32
91.34
96.33
104.28
114.92
126.80
137.67
145.57
149.67
150.68
150.40
150.77
152.82
156.19
159.31
160.22
157.30
149.81
137.77
121.57
101.52
77.74
50.37
19.79
-13.30
-48.25
-85.18
-125.34
-170.41
-221.01
-274.69
-325.29
-364.14
-382.89
-376.68
-345.85
-295.65
-234.04
-169.28
-108.23
-56.13
-16.76
7.65
16.94
13.72
2.95
-9.44
-18.50
-21.71
-19.11
-12.31
-3.21
6.79
17.22
28.09
39.50
51.40
63.62
75.96
88.26
100.40
112.05
122.77
132.06
139.46
144.82
148.37
150.69
152.63
155.05
158.42
162.84
167.86
172.94
177.86
183.02
189.50
198.57
210.84
225.36
239.36
248.86
250.17
241.51
223.71
199.80
173.46
147.48
122.98
99.70
77.18
55.56
35.84
19.08
5.42
-6.48
-19.08
-34.91
-55.27
-79.60
-105.89
-131.53
-154.71
-175.24
-194.64
-215.64
-241.40
-274.92
-318.20
-371.35
-431.54
-492.69
-546.32
-583.80
-599.25
-591.65
-565.04
-526.53
-483.36
-440.39
-399.49
-360.50
-323.10
-287.88
-256.05
-228.39
-204.06
-180.58
-154.90
-124.94
-90.60
-53.48
-16.21
19.21
52.37
84.66
118.60
157.10
202.46
255.67
315.90
380.17
443.43
499.44
542.05
566.84
572.20
559.43
531.89
493.89
449.52
402.28
354.96
309.78
268.07
229.89
193.78
157.12
116.97
71.25
19.71
-35.68
-91.00
-141.19
-181.35
-208.17
-221.09
-222.77
-218.33
-213.58
-212.59
-215.87
-219.90
-218.45
-205.37
-177.39
-136.06
-87.37
-39.49
0.42
28.84
46.73
58.30
68.62
81.22
96.94
114.28
130.59
143.56
151.96
155.64
154.92
150.02
140.83
127.35
110.18
90.79
71.26
53.67
39.40
28.73
20.92
14.75
9.02
2.92
-3.92
-11.69
-20.31
-29.49
-38.60
-46.79
-53.35
-58.15
-61.85
-65.57
-70.18
-75.56
-80.33
-82.40
-79.91
-72.28
-60.61
-47.38
-35.42
-26.74
-21.79
-19.49
-17.94
-15.51
-11.66
-7.22
-3.81
-2.97
-5.26
-9.93
-15.39
-19.97
-22.82
-24.21
-25.22
-26.86
-29.45
-32.34
-34.35
-34.55
-33.00
-30.79
-29.53
-30.51
-34.06
-39.45
-45.35
-50.56
-54.37
-56.58
-57.20
-56.14
-53.22
-48.33
-41.83
-34.63
-27.91
-22.67
-19.30
-17.39
-16.00
-14.12
-11.04
-6.67
-1.50
3.60
7.69
10.16
10.91
10.46
9.55
8.81
8.39
7.99
7.05
5.30
2.94
0.56
-1.19
-2.02
-2.18
-2.29
-2.95
-4.52
-6.97
-10.14
-13.92
-18.28
-23.11
-27.92
-31.90
-34.13
-34.21
-32.49
-30.12
-28.53
-28.67
-30.60
-33.37
-35.62
-36.18
-34.61
-31.18
-26.61
-21.67
-16.92
-12.73
-9.34
-6.83
-5.10
-3.74
-2.12
0.30
3.60
7.24
10.14
11.09
9.29
4.69
-1.99
-9.56
-16.75
-22.52
-26.26
-27.84
-27.52
-25.84
-23.58
-21.51
-20.28
-20.24
-21.32
-23.04
-24.71
-25.65
-25.36
-23.62
-20.47
-16.12
-10.86
-5.10
0.68
5.99
10.45
14.00
16.91
19.60
22.47
25.63
28.86
31.69
33.73
34.69
34.55
33.49
31.80
29.90
28.26
27.23
26.90
26.94
26.66
25.30
22.42
18.13
13.09
8.12
3.89
0.56
-2.13
-4.63
-7.28
-10.27
-13.55
-17.03
-20.52
-23.75
-26.24
-27.48
-27.05
-24.88
-21.22
-16.54
-11.32
-5.88
-0.36
5.22
10.75
15.98
20.62
24.35
26.95
28.25
28.30
27.28
25.56
23.65
22.08
21.17
21.03
21.47
22.13
22.71
23.02
23.06
22.83
22.28
21.24
19.53
17.18
14.47
11.93
9.99
8.74
7.81
6.48
4.04
0.19
-4.86
-10.47
-15.93
-20.76
-24.88
-28.51
-31.94
-35.33
-38.55
-41.16
-42.69
-42.69
-41.03
-38.04
-34.42
-31.04
-28.50
-26.89
-25.75
-24.39
-22.31
-19.63
-17.05
-15.43
-15.20
-15.96
-16.62
-15.79
-12.17
-5.56
2.95
11.72
19.13
24.24
26.98
27.87
27.80
27.83
28.42
29.44
30.62
31.66
32.29
32.32
31.32
29.31
27.53
27.35
30.04
36.69
47.47
60.97
74.12
82.06
80.89
70.81
53.62
32.27
10.85
-7.03
-19.57
-27.05
-33.08
-40.63
-47.46
-52.60
-56.41
-58.40
-57.84
-54.60
-49.51
-47.39
-51.83
-59.20
-69.28
-84.22
-103.69
-124.91
-144.08
-157.49
-166.61
-172.77
-170.37
-161.68
-154.25
-152.81
-157.98
-167.61
-151.18
-93.73
-37.09
3.08
30.91
42.62
36.36
13.37
-23.26
-69.46
-124.04
-182.55
-209.59
-184.93
-115.89
-28.63
50.69
108.44
143.71
159.54
161.78
160.81
157.64
148.36
132.23
112.89
95.67
84.42
78.10
73.91
72.13
68.74
59.54
44.62
27.75
13.63
5.35
2.66
3.87
8.36
12.77
14.39
13.06
10.71
9.69
11.34
15.17
19.79
24.10
26.02
23.91
17.98
9.65
0.74
-7.38
-14.12
-19.54
-24.13
-28.77
-34.07
-39.64
-44.64
-48.10
-49.28
-47.74
-43.20
-35.34
-23.24
-8.86
7.50
25.78
45.95
67.83
91.24
116.28
143.41
173.05
204.81
237.35
267.71
292.39
308.75
316.15
315.98
310.24
299.97
284.49
262.50
233.26
198.18
160.82
125.54
95.32
70.53
49.04
27.81
4.88
-19.92
-45.17
-68.85
-89.42
-106.12
-118.62
-126.40
-128.55
-124.11
-113.08
-97.30
-80.59
-67.88
-63.38
-68.75
-82.20
-99.04
-113.77
-122.43
-124.13
-120.93
-116.34
-113.30
-112.99
-114.81
-117.49
-120.27
-123.62
-128.87
-137.39
-149.40
-163.34
-176.11
-184.10
-184.57
-176.94
-163.16
-146.90
-132.04
-120.77
-112.68
-105.03
-94.40
-78.55
-57.71
-34.43
-12.22
6.21
20.29
31.48
42.28
54.65
68.91
83.51
95.86
103.71
106.34
105.06
102.55
101.48
103.01
105.96
107.29
103.62
93.22
77.23
59.41
44.50
36.01
34.64
38.08
42.44
44.19
41.78
35.97
29.05
23.41
20.32
19.49
19.36
17.93
13.57
5.73
-4.92
-16.80
-27.95
-36.72
-42.12
-43.94
-42.49
-38.36
-32.31
-25.32
-18.46
-12.78
-8.93
-6.89
-6.09
-5.71
-5.17
-4.44
-3.87
-3.96
-4.99
-6.90
-9.35
-11.78
-13.44
-13.25
-10.02
-2.74
8.78
23.58
39.48
53.66
63.45
67.20
64.58
56.55
44.88
31.50
17.98
5.36
-5.74
-14.75
-20.96
-23.58
-22.11
-16.63
-7.86
3.11
15.25
27.79
40.10
51.45
60.69
66.48
67.81
64.62
58.20
50.79
44.68
41.15
39.93
39.48
37.78
33.26
25.43
14.98
3.52
-6.95
-14.46
-17.47
-15.15
-7.67
3.70
16.74
28.74
37.33
41.23
40.72
37.45
33.70
31.42
31.44
33.29
35.60
36.81
35.86
32.52
27.11
20.04
11.55
1.84
-8.53
-18.39
-26.17
-30.68
-31.83
-30.83
-29.62
-29.78
-31.59
-33.87
-34.60
-32.05
-25.73
-16.74
-7.37
-0.08
3.56
3.54
1.28
-0.93
-1.15
1.33
5.66
10.01
12.70
13.35
13.06
13.81
17.09
22.83
29.21
33.66
34.24
30.73
24.68
18.52
14.28
12.67
12.93
13.38
12.29
8.63
2.24
-6.23
-15.61
-24.59
-31.98
-36.97
-39.39
-39.64
-38.59
-37.10
-35.68
-34.23
-32.16
-28.78
-23.57
-16.52
-8.18
0.53
8.53
14.85
18.88
20.47
19.95
18.01
15.56
13.48
12.46
12.83
14.59
17.58
21.64
26.91
33.72
42.33
52.48
63.10
72.40
78.42
79.75
75.98
67.80
56.73
44.75
34.00
26.40
22.96
23.11
24.38
23.06
15.63
0.55
-20.51
-42.98
-60.98
-69.52
-66.31
-52.56
-32.57
-12.59
0.95
3.20
-7.46
-28.78
-55.11
-79.29
-95.14
-99.63
-93.37
-79.54
-61.93
-43.27
-24.82
-7.06
9.15
22.02
29.31
29.64
23.53
13.62
3.67
-2.91
-4.51
-2.04
1.75
3.48
0.70
-7.11
-18.57
-31.21
-42.64
-51.68
-58.53
-64.49
-70.99
-78.70
-87.07
-94.38
-98.46
-97.65
-91.56
-81.27
-68.82
-56.44
-45.71
-37.20
-30.50
-24.66
-18.62
-11.55
-2.75
8.45
22.68
40.31
61.11
83.96
106.81
127.02
141.81
148.89
146.94
136.08
118.06
96.10
74.20
56.29
45.03
41.33
44.23
51.50
60.35
68.25
73.17
73.64
68.83
58.53
43.29
24.44
3.88
-16.40
-34.69
-49.77
-60.91
-67.60
-69.33
-65.99
-58.15
-47.59
-37.55
-31.84
-33.55
-43.45
-59.32
-76.70
-90.86
-99.22
-102.78
-105.73
-113.23
-128.65
-151.85
-179.17
-205.23
-225.22
-236.31
-237.78
-229.85
-212.41
-184.56
-145.38
-95.74
-39.80
15.13
60.44
89.27
99.28
93.74
79.82
65.87
58.52
61.13
73.88
94.66
119.75
144.21
162.46
169.80
164.62
149.71
131.55
117.33
111.37
113.23
118.96
124.45
128.52
133.71
144.05
161.82
185.44
210.12
230.82
245.24
254.88
263.68
275.12
289.55
303.50
311.21
307.27
289.32
259.04
221.59
183.42
149.97
123.88
104.82
90.47
78.24
66.65
55.80
46.85
41.00
38.68
39.24
41.22
42.98
43.29
41.88
39.33
36.90
35.90
37.13
40.40
44.37
46.82
45.30
38.00
24.33
5.18
-17.47
-41.35
-64.84
-87.51
-110.21
-134.53
-162.13
-194.35
-231.78
-273.80
-317.91
-359.23
-390.89
-405.88
-399.79
-373.25
-332.65
-288.14
-249.76
-223.42
-208.99
-201.34
-193.86
-182.13
-165.87
-148.26
-133.29
-123.13
-116.83
-111.23
-103.04
-90.79
-75.67
-60.80
-49.74
-44.92
-46.93
-54.60
-65.51
-76.60
-84.85
-87.69
-83.73
-73.19
-57.94
-41.02
-25.67
-14.29
-7.80
-5.61
-6.17
-7.57
-8.12
-6.73
-3.01
2.65
9.32
15.92
21.66
26.42
30.58
34.62
38.69
42.55
45.78
48.07
49.42
49.96
49.72
48.61
46.58
43.88
41.19
39.25
38.46
38.57
38.64
37.58
34.59
29.49
22.57
14.30
5.37
-3.18
-9.57
-11.47
-6.57
6.42
27.05
53.05
81.00
107.45
130.07
148.03
161.91
172.85
181.66
188.23
191.47
190.03
183.17
171.31
155.95
138.83
121.07
102.65
82.58
60.01
35.10
9.47
-14.30
-34.03
-49.21
-61.28
-73.11
-87.59
-106.45
-129.45
-154.38
-177.75
-196.10
-207.42
-212.33
-213.71
-215.17
-218.79
-223.42
-224.94
-218.38
-201.05
-174.58
-144.66
-118.39
-100.74
-92.41
-90.06
-88.74
-84.49
-76.04
-64.33
-51.33
-38.89
-28.23
-20.42
-16.41
-16.63
-20.31
-25.08
-27.77
-25.91
-19.30
-10.29
-2.84
-0.47
-4.37
-12.82
-22.07
-28.21
-29.24
-26.04
-21.95
-21.48
-28.54
-45.02
-70.20
-100.75
-131.53
-156.85
-171.78
-173.25
-160.68
-135.81
-102.13
-63.65
-23.97
14.25
49.22
79.44
103.51
120.34
129.98
134.16
136.01
138.92
144.63
152.09
157.84
157.67
149.04
132.70
112.43
93.42
79.83
73.13
71.75
72.13
70.30
63.47
50.97
34.30
16.44
0.50
-11.75
-20.80
-29.17
-40.16
-55.91
-75.79
-96.26
-112.15
-118.84
-114.16
-99.02
-76.72
-51.50
-27.00
-5.38
12.77
27.87
40.63
51.54
60.67
67.77
72.58
75.08
75.49
74.23
71.86
69.10
66.89
66.33
68.28
72.80
78.77
83.89
85.47
81.72
72.64
60.38
48.41
39.89
36.10
35.80
35.79
32.53
23.83
9.90
-6.94
-23.33
-36.45
-45.17
-50.36
-54.49
-60.40
-70.20
-84.26
-100.97
-117.12
-128.83
-132.79
-127.10
-111.67
-87.95
-58.46
-26.33
4.67
30.34
46.59
50.59
42.14
24.44
3.47
-13.86
-22.31
-20.13
-9.40
5.25
18.84
27.97
31.79
31.51
29.30
27.08
25.73
24.94
23.52
19.78
12.00
-0.75
-17.72
-35.88
-50.36
-56.24
-50.93
-35.95
-16.84
-0.93
5.88
1.79
-10.36
-24.63
-34.84
-37.05
-30.44
-16.74
1.15
20.50
39.13
55.33
67.59
74.73
76.19
72.39
64.82
55.76
47.80
42.98
42.11
44.54
48.31
50.92
50.30
45.73
38.11
29.60
22.66
19.07
19.30
22.27
25.80
27.39
24.90
17.50
6.14
-6.78
-18.35
-26.32
-30.31
-31.83
-33.61
-38.54
-48.01
-60.92
-73.89
-82.62
-83.66
-75.93
-60.82
-41.28
-21.01
-2.75
12.45
24.97
35.66
45.27
53.64
60.55
65.94
68.54
67.29
62.08
54.23
45.78
39.38
36.22
37.01
41.86
47.13
48.78
44.96
37.01
27.90
21.49
18.43
18.79
22.54
24.60
19.61
5.38
-16.07
-40.97
-64.45
-86.78
-108.91
-131.69
-162.35
-208.55
-273.90
-356.33
-450.49
-547.77
-643.44
-731.24
-766.41
-718.40
-590.92
-423.01
-260.65
-147.49
-74.08
-26.12
7.69
34.20
52.49
57.68
48.98
32.21
16.18
10.21
14.94
27.99
46.08
61.30
67.10
62.36
51.91
42.66
41.55
48.62
61.71
78.28
93.35
102.98
106.75
107.75
110.07
117.46
129.27
143.70
159.18
173.55
185.53
195.64
205.79
217.80
232.89
250.05
267.95
285.84
303.29
320.42
338.15
358.03
381.86
411.14
445.50
482.37
516.80
542.42
553.37
546.41
521.99
483.70
436.42
384.31
329.82
274.02
217.69
162.36
110.22
63.16
21.83
-14.95
-49.72
-85.41
-124.24
-166.80
-211.59
-255.12
-292.89
-320.77
-336.42
-339.95
-333.47
-319.95
-301.89
-280.70
-257.15
-232.25
-207.91
-186.62
-170.56
-160.36
-154.71
-150.81
-145.44
-136.10
-121.48
