1679988287.00
64.000000
-0.00
-0.00
-0.00
-0.00
-0.00
-0.00
-0.00
-0.00
-0.00
-0.00
0.00
0.01
0.01
-0.00
-0.03
-0.05
-0.05
0.00
0.13
0.36
0.66
1.01
1.37
1.72
2.06
2.40
2.79
3.24
3.80
4.42
5.06
5.66
6.20
6.68
7.15
7.68
8.31
9.14
10.09
11.04
11.88
12.56
13.14
13.76
14.65
15.96
17.91
20.32
22.90
25.38
27.58
29.57
31.68
34.32
37.81
42.54
48.15
54.10
59.83
64.97
69.58
74.14
79.34
85.71
93.76
103.00
112.62
121.73
129.77
136.75
143.30
150.75
157.77
166.64
177.95
191.79
206.97
220.57
228.25
225.36
208.53
176.87
132.76
80.05
23.07
-34.94
-92.44
-149.16
-205.23
-260.37
-313.74
-363.87
-409.83
-450.91
-486.50
-515.74
-537.23
-549.22
-549.96
-538.37
-514.21
-478.67
-433.88
-382.45
-327.02
-269.84
-212.63
-156.66
-102.95
-52.37
-5.90
35.58
71.43
101.35
125.50
144.38
158.69
169.15
176.37
180.75
182.57
182.07
179.51
175.23
169.65
163.18
156.15
148.81
141.30
133.69
126.02
118.33
110.69
103.16
95.80
88.68
81.83
75.25
68.95
62.95
57.25
51.86
46.78
42.03
37.59
33.45
29.61
26.07
22.81
19.83
17.11
14.67
12.48
10.54
8.83
7.35
6.07
4.97
4.05
3.27
2.62
2.09
1.65
1.30
1.01
0.79
0.61
0.48
0.37
0.29
0.24
0.20
0.18
0.17
0.18
0.19
0.22
0.24
0.28
0.31
0.36
0.40
0.44
0.49
0.54
0.59
0.64
0.69
0.75
0.82
0.88
0.96
1.04
1.13
1.24
1.35
1.48
1.62
1.78
1.96
2.17
2.40
2.67
2.96
3.26
3.55
3.83
4.12
4.43
4.78
5.22
5.74
6.33
6.96
7.60
8.24
8.88
9.55
10.29
11.12
12.05
13.06
14.11
15.14
16.11
17.04
17.98
18.98
20.04
21.11
21.99
22.43
22.17
21.02
18.92
16.00
12.48
8.60
4.45
0.05
-4.69
-9.88
-15.46
-21.14
-26.43
-30.79
-33.79
-35.37
-35.83
-35.80
-35.91
-36.57
-37.83
-39.31
-40.45
-40.83
-40.32
-39.16
-37.90
-37.11
-37.35
-39.02
-42.32
-46.96
-51.76
-54.73
-53.41
-46.02
-32.32
-14.17
5.03
21.54
32.84
38.30
39.09
37.21
34.41
31.59
28.84
25.97
23.05
20.39
18.37
17.11
16.32
15.47
14.14
12.20
9.92
7.72
5.95
4.70
3.74
2.70
1.24
-0.83
-3.50
-6.61
-9.99
-13.54
-17.21
-20.91
-24.37
-27.39
-29.80
-31.61
-32.94
-34.03
-35.16
-36.52
-38.24
-40.33
-42.67
-45.01
-46.88
-47.72
-47.10
-44.90
-41.50
-37.68
-34.33
-32.11
-31.10
-30.84
-30.59
-29.67
-27.79
-25.02
-21.61
-17.65
-12.99
-7.23
0.02
8.90
19.17
30.25
41.41
52.01
61.61
69.91
76.70
81.75
84.83
85.76
84.59
81.59
77.24
72.14
66.79
61.56
56.53
51.60
46.55
41.24
35.71
30.24
25.20
20.88
17.34
14.36
11.50
8.32
4.54
0.07
-4.98
-10.35
-15.64
-20.35
-23.91
-25.79
-25.74
-23.89
-20.72
-16.87
-12.89
-9.15
-5.74
-2.66
0.03
2.19
3.73
4.64
5.14
5.51
6.05
6.83
7.71
8.48
8.90
8.93
8.72
8.57
8.74
9.36
10.30
11.27
11.95
12.19
12.01
11.59
11.07
10.52
9.84
8.95
7.77
6.38
4.85
3.23
1.48
-0.45
-2.47
-4.36
-5.81
-6.67
-7.10
-7.58
-8.69
-10.87
-14.11
-17.86
-21.20
-23.11
-22.87
-20.27
-15.74
-10.11
-4.37
0.72
4.79
7.91
10.37
12.56
14.72
17.01
19.60
22.66
26.34
30.62
35.22
39.60
43.15
45.47
46.48
46.48
45.93
45.28
44.72
44.20
43.43
42.08
39.90
36.83
33.06
29.13
25.85
24.25
25.38
29.97
38.16
49.36
62.45
76.12
89.34
101.75
113.62
125.63
138.52
152.70
168.14
184.29
200.22
214.63
225.99
232.79
234.08
229.79
220.87
208.94
195.56
181.57
166.87
150.57
131.57
109.04
82.58
52.22
18.28
-18.58
-57.39
-96.70
-134.88
-170.67
-203.72
-235.16
-267.71
-305.09
-350.78
-406.04
-468.14
-529.79
-580.53
-610.04
-611.99
-586.56
-540.16
-482.60
-422.82
-365.81
-311.84
-258.25
-201.96
-141.36
-76.63
-9.12
59.21
125.85
187.65
240.97
282.67
311.25
327.15
332.31
329.04
319.06
303.59
284.24
264.18
248.36
242.54
251.14
275.25
311.58
353.12
391.31
418.67
430.95
428.04
413.12
390.83
365.35
339.25
313.56
288.61
265.01
243.94
226.71
213.92
204.82
197.52
189.67
179.47
166.32
151.00
135.07
120.19
107.33
96.45
86.54
76.08
63.64
48.33
30.12
9.75
-11.48
-32.20
-51.48
-69.09
-85.70
-102.67
-121.54
-143.57
-169.21
-197.98
-228.78
-260.36
-291.98
-323.75
-356.62
-392.08
-431.89
-477.90
-531.68
-593.81
-662.60
-733.22
-797.81
-847.15
-873.59
-873.73
-849.69
-807.98
-756.76
-702.79
-649.71
-598.29
-547.99
-498.60
-450.91
-406.14
-364.90
-326.43
-288.96
-250.66
-210.74
-169.95
-130.36
-94.39
-63.64
-38.19
-16.49
3.93
25.48
49.49
75.78
102.90
128.90
152.33
172.87
191.39
209.60
229.40
252.48
279.97
312.08
347.66
383.80
415.76
437.96
445.45
435.60
408.96
368.77
319.51
265.28
208.85
151.86
95.70
42.26
-6.05
-47.03
-79.63
-104.39
-122.92
-137.03
-147.89
-156.03
-161.66
-165.29
-167.76
-169.78
-171.22
-170.70
-165.92
-154.53
-135.26
-108.62
-76.91
-43.49
-11.61
16.54
40.35
60.80
79.94
100.04
123.48
152.26
188.09
231.91
282.87
337.18
387.96
426.75
446.51
444.47
422.99
387.95
345.32
298.30
246.94
190.16
128.92
68.01
15.10
-22.49
-41.42
-44.16
-38.14
-32.75
-35.96
-51.87
-79.94
-115.85
-153.36
-186.44
-211.08
-226.32
-233.67
-236.15
-236.80
-237.80
-240.41
-245.42
-253.49
-264.89
-278.71
-292.20
-300.85
-299.59
-284.50
-254.34
-211.02
-158.69
-102.05
-44.80
11.06
64.67
115.40
161.97
202.34
234.48
257.24
270.95
277.20
278.18
275.95
272.12
267.80
263.74
260.38
257.56
254.38
249.29
240.56
227.03
208.64
186.61
163.08
140.54
121.07
105.96
95.43
88.86
85.02
82.50
80.11
77.04
73.00
68.08
62.60
56.99
51.61
46.77
42.60
39.07
36.01
33.15
30.26
27.28
24.31
21.55
19.15
17.14
15.51
14.22
13.36
13.07
13.46
14.45
15.75
16.95
17.62
17.53
16.53
14.64
11.96
8.66
5.06
1.62
-1.22
-3.23
-4.45
-5.16
-5.73
-6.41
-7.31
-8.45
-9.80
-11.34
-12.91
-14.18
-14.71
-14.19
-12.63
-10.45
-8.27
-6.57
-5.45
-4.65
-3.74
-2.48
-0.93
0.54
1.51
1.75
1.30
0.48
-0.27
-0.62
-0.43
0.23
1.14
1.96
2.46
2.47
1.99
1.11
-0.03
-1.30
-2.57
-3.81
-4.98
-6.14
-7.32
-8.55
-9.79
-10.97
-11.98
-12.73
-13.16
-13.26
-13.06
-12.61
-12.00
-11.39
-11.04
-11.28
-12.40
-14.46
-17.17
-19.88
-21.75
-22.07
-20.57
-17.61
-13.97
-10.48
-7.63
-5.39
-3.37
-1.17
1.28
3.68
5.53
6.45
6.38
5.57
4.41
3.23
2.22
1.45
1.00
1.00
1.53
2.53
3.70
4.65
5.00
4.60
3.57
2.33
1.38
1.10
1.56
2.53
3.49
3.96
3.67
2.73
1.55
0.62
0.26
0.43
0.84
1.12
0.97
0.32
-0.87
-2.64
-5.10
-8.23
-11.77
-15.12
-17.54
-18.45
-17.74
-15.79
-13.27
-10.80
-8.69
-6.91
-5.32
-3.71
-2.07
-0.41
1.20
2.69
4.03
5.14
5.91
6.32
6.40
6.35
6.40
6.72
7.36
8.21
9.08
9.75
10.08
10.08
9.83
9.50
9.21
8.96
8.67
8.22
7.57
6.77
5.97
5.23
4.47
3.48
2.03
0.07
-2.29
-4.79
-7.18
-9.32
-11.21
-12.94
-14.63
-16.47
-18.66
-21.51
-25.25
-29.92
-35.19
-40.49
-45.20
-48.94
-51.77
-54.03
-56.15
-58.22
-59.96
-60.82
-60.31
-58.28
-54.90
-50.47
-45.18
-39.04
-32.11
-24.67
-17.39
-11.10
-6.43
-3.45
-1.59
0.11
2.57
6.26
11.15
16.72
22.26
26.94
29.95
30.55
28.26
23.00
15.32
6.28
-2.79
-10.61
-16.40
-19.93
-21.55
-21.90
-21.71
-21.59
-21.95
-22.89
-24.15
-25.09
-24.82
-22.44
-17.38
-9.72
-0.26
9.82
19.32
27.45
33.97
39.07
43.05
46.22
48.95
51.89
56.02
62.36
71.44
82.80
94.84
105.24
111.72
112.75
107.86
97.48
82.61
64.49
44.69
25.23
8.54
-2.98
-7.74
-5.71
1.44
10.84
19.48
25.30
27.74
27.65
26.64
26.20
27.10
29.26
32.03
34.57
36.33
37.12
37.07
36.49
35.72
35.12
35.06
36.02
38.46
42.71
48.86
56.63
65.37
74.24
82.37
89.10
94.19
97.93
101.05
104.48
108.97
114.78
121.65
129.03
136.61
144.59
153.72
165.02
179.29
196.84
217.41
240.37
264.69
288.89
310.80
327.54
336.06
334.00
320.61
297.16
266.53
232.19
197.08
162.96
130.45
99.58
70.49
43.77
20.30
0.83
-14.39
-25.76
-34.04
-40.02
-44.11
-46.38
-46.68
-45.09
-42.27
-39.55
-38.70
-41.46
-48.89
-60.98
-76.56
-93.71
-110.42
-125.35
-138.31
-150.24
-162.64
-176.93
-193.65
-212.34
-231.93
-251.30
-270.02
-288.61
-308.35
-330.90
-358.06
-391.68
-433.41
-483.72
-540.66
-598.91
-650.17
-685.23
-697.14
-683.86
-649.13
-600.87
-548.02
-497.48
-452.64
-413.68
-379.23
-347.88
-318.91
-291.98
-266.56
-241.68
-216.26
-189.45
-161.06
-131.55
-101.79
-72.62
-44.38
-16.35
13.45
47.49
87.15
130.78
173.10
206.52
224.75
226.18
215.68
203.13
199.35
211.84
242.59
288.96
346.33
410.26
476.56
539.84
592.38
625.04
630.46
606.57
558.14
494.99
427.93
364.66
307.89
256.09
206.31
156.82
108.10
62.13
20.68
-16.04
-49.57
-82.46
-117.00
-154.62
-195.45
-238.68
-282.75
-325.41
-363.78
-394.63
-414.86
-422.22
-415.62
-395.26
-362.35
-318.64
-266.10
-206.97
-143.95
-80.57
-21.37
28.42
63.91
81.96
82.63
69.71
50.00
31.11
18.67
14.37
15.90
18.88
19.69
17.37
13.62
10.69
8.74
4.49
-7.90
-33.73
-74.68
-127.54
-185.50
-241.30
-290.19
-330.85
-364.13
-390.58
-408.79
-415.74
-408.80
-387.94
-356.64
-320.82
-286.49
-257.60
-235.19
-218.05
-204.16
-191.88
-180.40
-169.47
-158.95
-148.49
-137.61
-125.85
-113.04
-99.26
-84.63
-69.06
-52.04
-32.75
-10.26
15.98
45.82
78.41
112.35
146.26
179.11
210.60
241.08
271.59
303.51
338.14
375.94
415.69
454.08
486.16
506.64
511.79
500.93
476.77
444.45
409.62
376.57
347.38
322.09
299.76
279.38
260.37
242.40
225.06
207.64
189.44
170.18
150.21
130.44
112.04
95.84
82.05
70.31
59.94
50.25
40.87
31.74
23.01
14.93
7.64
1.18
-4.57
-9.81
-14.76
-19.54
-24.15
-28.38
-32.00
-34.84
-36.93
-38.46
-39.63
-40.56
-41.17
-41.26
-40.78
-39.90
-39.05
-38.72
-39.24
-40.61
-42.49
-44.35
-45.62
-45.72
-44.05
-39.98
-32.98
-22.89
-10.15
4.08
18.16
30.43
39.75
45.86
49.29
51.04
52.14
53.23
54.43
55.49
56.08
55.99
55.33
54.47
53.88
54.04
55.23
57.52
60.79
64.84
69.55
74.94
81.22
88.64
97.24
106.78
116.65
126.16
134.80
142.57
149.90
157.49
165.84
175.03
184.78
194.84
205.35
216.81
229.73
243.90
258.10
270.27
278.17
280.15
275.61
264.88
248.81
228.41
204.77
179.19
153.36
129.32
109.00
93.81
84.33
80.41
81.44
86.62
95.09
105.89
117.90
129.82
140.40
148.60
153.71
155.39
153.53
148.11
139.13
126.58
110.63
91.69
70.62
48.60
26.93
6.58
-12.08
-29.45
-46.47
-64.17
-83.24
-103.56
-124.29
-144.21
-162.33
-178.49
-193.56
-209.22
-227.21
-248.56
-273.04
-299.23
-325.09
-348.78
-369.57
-388.08
-406.19
-426.53
-451.79
-483.83
-522.56
-564.97
-605.12
-635.39
-648.82
-641.76
-615.37
-575.61
-531.29
-491.38
-462.42
-447.01
-443.60
-447.44
-452.07
-450.91
-438.80
-412.91
-373.26
-322.41
-264.67
-204.98
-147.70
-96.20
-52.26
-15.86
14.70
42.61
71.95
106.85
150.28
202.48
259.64
313.64
353.67
369.84
357.24
318.54
263.35
204.42
152.47
112.54
83.83
62.64
46.32
35.59
33.62
43.02
63.02
88.79
113.33
130.74
138.46
137.74
132.39
126.81
124.75
129.04
141.25
161.47
187.61
214.93
236.70
245.89
237.25
208.78
162.06
101.53
33.33
-35.65
-98.59
-149.49
-184.08
-200.79
-200.98
-188.33
-167.54
-142.86
-117.29
-92.69
-70.20
-50.60
-34.29
-20.97
-9.55
1.58
13.84
27.89
43.41
59.31
74.04
85.93
93.40
95.19
90.60
79.98
64.97
48.45
33.91
24.58
22.50
27.81
38.86
52.55
65.42
74.38
77.51
74.31
65.71
53.73
40.81
29.09
19.75
12.80
7.45
2.85
-1.28
-4.41
-5.78
-5.14
-3.27
-1.83
-2.44
-5.74
-11.01
-16.51
-20.43
-21.79
-20.73
-18.27
-15.57
-13.31
-11.47
-9.42
-6.31
-1.60
4.66
11.59
17.67
21.09
20.37
15.02
5.71
-5.78
-17.22
-26.61
-32.95
-36.48
-38.35
-40.01
-42.44
-45.64
-48.89
-51.24
-52.33
-52.60
-53.02
-54.30
-56.32
-57.96
-57.62
-54.08
-46.90
-36.48
-23.67
-9.51
4.82
17.77
27.49
32.20
30.92
24.07
13.40
1.47
-9.23
-16.88
-20.51
-19.77
-14.83
-6.53
3.44
12.58
18.22
18.57
13.63
5.43
-2.70
-7.43
-6.90
-1.40
6.86
14.81
19.82
20.72
18.06
13.60
9.48
7.38
8.08
11.33
16.11
21.07
24.97
27.08
27.45
26.91
26.78
28.17
31.39
35.71
39.58
41.43
40.32
36.34
30.32
23.26
15.90
8.65
1.76
-4.43
-9.52
-13.34
-16.15
-18.51
-20.93
-23.42
-25.41
-26.05
-24.80
-21.74
-17.56
-13.02
-8.34
-2.98
4.13
13.84
26.00
39.24
51.33
60.01
63.93
63.11
58.81
52.83
46.92
42.22
39.18
37.71
37.40
37.71
38.10
38.13
37.67
36.83
35.94
35.25
34.72
33.99
32.59
30.20
26.88
23.00
19.08
15.62
12.95
11.21
10.32
9.93
9.43
8.00
4.77
-0.90
-9.19
-19.61
-30.94
-41.38
-48.92
-51.90
-49.61
-42.69
-33.11
-23.55
-16.47
-13.08
-12.94
-14.26
-14.84
-13.25
-9.48
-4.78
-0.85
1.16
1.26
0.61
0.76
2.77
6.68
11.58
16.23
19.77
22.07
23.63
25.02
26.47
27.69
28.12
27.34
25.37
22.70
19.98
17.74
16.18
15.20
14.54
13.95
13.19
12.04
10.40
8.40
6.45
5.17
4.95
5.70
6.70
6.98
5.91
3.80
1.89
1.82
4.82
10.93
19.01
27.18
33.73
37.71
39.09
38.35
36.03
32.52
28.17
23.64
19.93
18.03
18.22
19.54
19.94
17.04
9.30
-3.21
-18.71
-34.47
-47.85
-57.13
-61.59
-61.20
-56.18
-46.85
-33.89
-18.77
-3.79
8.31
15.27
16.09
11.46
3.40
-5.55
-13.24
-18.62
-21.77
-23.59
-25.30
-27.78
-31.41
-35.85
-40.26
-43.59
-44.79
-43.19
-38.52
-31.00
-21.09
-9.29
4.01
18.50
33.74
48.92
62.79
73.84
80.78
83.05
81.17
76.72
71.81
68.35
67.43
69.07
72.39
76.12
79.10
80.47
79.63
76.01
68.99
58.18
43.89
27.77
13.01
3.71
3.43
13.75
33.16
57.46
81.41
100.93
114.76
124.71
134.27
146.28
161.07
175.94
186.29
187.84
178.40
158.32
129.40
93.23
50.57
2.24
-49.18
-98.11
-136.87
-158.33
-159.07
-140.99
-110.14
-73.87
-37.85
-5.11
22.65
43.02
52.35
47.62
29.45
3.76
-19.91
-32.92
-32.22
-22.13
-11.89
-10.38
-21.28
-41.28
-62.51
-77.43
-83.16
-82.34
-80.66
-82.84
-89.77
-98.86
-107.30
-115.47
-128.46
-153.96
-197.89
-259.92
-331.72
-399.25
-447.78
-467.55
-456.99
-422.33
-374.00
-322.26
-273.61
-229.73
-188.71
-147.24
-102.63
-53.53
0.05
56.97
114.76
169.26
214.75
244.94
255.04
243.57
213.12
169.16
117.76
62.94
5.54
-56.01
-123.13
-194.43
-264.65
-325.73
-369.84
-392.53
-394.47
-380.93
-359.27
-336.00
-314.56
-295.38
-277.41
-259.98
-243.80
-230.49
-221.05
-214.72
-208.81
-199.88
-185.40
-164.93
-140.28
-114.74
-91.50
-72.27
-56.71
-42.76
-27.59
-9.00
13.69
39.48
66.30
92.04
115.49
136.78
157.23
178.69
202.91
231.09
263.68
300.16
338.76
376.39
408.92
432.16
443.02
440.72
427.01
405.50
380.38
355.02
331.33
309.83
290.36
272.69
256.77
242.59
229.91
218.10
206.38
194.21
181.53
168.74
156.59
145.72
136.43
128.59
121.60
114.66
106.99
98.12
88.12
77.69
67.98
60.16
54.94
52.16
50.84
49.54
47.05
42.89
37.52
32.05
27.70
25.31
25.11
26.80
29.68
32.75
34.68
33.89
28.82
18.48
3.07
-15.73
-35.05
-51.50
-62.24
-65.81
-62.42
-53.76
-42.26
-30.42
-20.25
-13.15
-9.82
-10.40
-14.40
-20.74
-27.94
-34.39
-38.89
-40.92
-40.75
-39.08
-36.62
-33.71
-30.37
-26.53
-22.40
-18.53
-15.59
-13.94
-13.46
-13.59
-13.67
-13.29
-12.47
-11.45
-10.46
-9.49
-8.30
-6.72
-4.79
-2.93
-1.71
-1.57
-2.55
-4.28
-6.19
-7.74
-8.72
-9.18
-9.32
-9.27
-8.97
-8.17
-6.68
-4.52
-1.97
0.51
2.52
3.80
4.23
3.78
2.43
0.13
-3.09
-7.03
-11.26
-15.16
-18.08
-19.43
-18.93
-16.68
-13.28
-9.63
-6.73
-5.23
-5.25
-6.29
-7.56
-8.39
-8.45
-7.87
-6.97
-6.11
-5.53
-5.35
-5.69
-6.68
-8.36
-10.54
-12.82
-14.65
-15.53
-15.21
-13.73
-11.36
-8.53
-5.68
-3.26
-1.61
-0.94
-1.22
-2.30
-3.84
-5.55
-7.11
-8.29
-8.93
-9.06
-8.88
-8.83
-9.31
-10.54
-12.39
-14.39
-15.98
-16.78
-16.68
-15.83
-14.44
-12.59
-10.30
-7.58
-4.72
-2.20
-0.62
-0.37
-1.43
-3.29
-5.06
-5.77
-4.77
-1.99
1.93
5.89
8.67
9.43
7.98
4.76
0.48
-4.22
-8.95
-13.54
-17.78
-21.22
-23.29
-23.59
-22.20
-19.77
-17.20
-15.14
-13.58
-11.84
-8.84
-3.80
3.36
11.88
20.41
27.52
32.19
33.94
32.85
29.42
24.27
18.14
11.78
5.92
1.09
-2.52
-5.05
-6.83
-8.23
-9.36
-10.05
-10.05
-9.30
-7.98
-6.57
-5.53
-5.09
-5.17
-5.43
-5.58
-5.52
-5.36
-5.31
-5.43
-5.60
-5.53
-4.93
-3.69
-1.91
0.09
1.91
3.23
3.84
3.63
2.64
1.01
-0.98
-3.02
-4.84
-6.27
-7.34
-8.18
-8.96
-9.79
-10.72
-11.74
-12.83
-13.99
-15.11
-16.01
-16.41
-16.07
-14.91
-13.07
-10.89
-8.66
-6.56
-4.60
-2.72
-0.89
0.82
2.25
3.24
3.70
3.57
2.90
1.79
0.47
-0.72
-1.44
-1.44
-0.73
0.46
1.74
2.81
3.55
4.05
4.46
4.93
5.46
5.94
6.23
6.23
5.89
5.24
4.40
3.56
2.91
2.57
2.52
2.59
2.48
1.94
0.83
-0.75
-2.54
-4.26
-5.72
-6.85
-7.69
-8.40
-9.18
-10.24
-11.74
-13.71
-15.94
-18.03
-19.49
-19.90
-19.17
-17.52
-15.43
-13.37
-11.58
-10.12
-8.86
-7.72
-6.71
-5.91
-5.39
-5.09
-4.92
-4.77
-4.61
-4.45
-4.25
-3.88
-3.14
-1.89
-0.22
1.55
2.98
3.75
3.80
3.40
2.93
2.67
2.68
2.81
2.84
2.73
2.62
2.78
3.44
4.60
6.06
7.47
8.52
9.07
9.15
8.86
8.30
7.48
6.44
5.23
4.02
2.97
2.19
1.56
0.81
-0.37
-2.18
-4.58
-7.27
-9.82
-11.81
-12.98
-13.26
-12.75
-11.65
-10.19
-8.61
-7.06
-5.63
-4.25
-2.79
-1.12
0.81
2.83
4.72
6.21
7.21
7.82
8.28
8.79
9.37
9.86
9.99
9.60
8.75
7.80
7.21
7.30
8.11
9.40
10.72
11.60
11.74
11.06
9.71
7.92
5.91
3.82
1.70
-0.40
-2.41
-4.17
-5.48
-6.30
-6.66
-6.78
-6.88
-7.14
-7.65
-8.43
-9.51
-10.94
-12.71
-14.71
-16.58
-17.86
-18.11
-17.17
-15.22
-12.75
-10.36
-8.43
-7.03
-5.95
-4.88
-3.64
-2.28
-1.04
-0.18
0.23
0.31
0.39
0.85
1.87
3.45
5.30
6.98
8.09
8.33
7.68
6.37
4.75
3.19
1.92
0.96
0.20
-0.47
-1.09
-1.63
-2.06
-2.40
-2.80
-3.37
-4.22
-5.35
-6.69
-8.14
-9.61
-10.94
-11.99
-12.60
-12.64
-12.12
-11.15
-9.97
-8.90
-8.22
-8.10
-8.57
-9.47
-10.54
-11.48
-12.09
-12.39
-12.54
-12.72
-12.99
-13.13
-12.73
-11.34
-8.82
-5.39
-1.71
1.40
3.21
3.41
2.17
0.12
-1.95
-3.36
-3.78
-3.26
-2.17
-0.95
0.05
0.64
0.86
0.80
0.62
0.43
0.33
0.35
0.46
0.63
0.76
0.82
0.85
1.10
1.97
3.94
7.27
11.87
17.17
22.33
26.52
29.21
30.33
30.14
29.06
27.39
25.35
23.05
20.62
18.25
16.15
14.47
13.33
12.81
13.05
14.16
16.14
18.80
21.76
24.64
27.19
29.48
31.88
34.92
39.00
44.08
49.42
53.54
54.42
50.06
39.06
21.21
-2.38
-29.43
-57.04
-82.35
-103.02
-117.62
-125.66
-127.59
-124.53
-118.02
-109.68
-100.84
-92.42
-84.83
-78.01
-71.62
-65.19
-58.18
-50.20
-40.97
-30.61
-19.49
-8.28
2.22
11.30
18.52
23.75
27.18
29.16
30.09
30.26
29.85
28.98
27.74
26.23
24.57
22.79
20.86
18.81
16.74
14.87
13.42
12.38
11.52
10.36
8.50
5.81
2.49
-0.97
-4.17
-6.91
-9.34
-11.83
-14.77
-18.40
-22.70
-27.42
-32.10
-36.17
-39.09
-40.55
-40.62
-39.90
-39.38
-40.04
-42.36
-46.01
-49.88
-52.64
-53.58
-53.08
-52.25
-51.95
-51.45
-47.76
-36.02
-10.97
31.40
92.72
171.74
264.29
363.34
459.33
541.25
598.74
624.82
618.03
582.88
527.92
462.49
393.57
324.46
255.57
186.58
118.24
52.79
-7.16
-59.97
-106.05
-147.59
-187.40
-227.87
-270.51
-315.81
-363.54
-412.43
-459.76
-501.27
-532.05
-548.17
-548.30
-534.36
-510.48
-481.02
-448.51
-412.91
-372.44
-325.32
-271.42
-212.85
-153.42
-97.42
-48.42
-8.56
21.68
43.29
58.38
69.47
78.64
87.06
94.81
101.41
106.33
109.54
111.39
112.23
111.93
109.88
105.47
98.75
90.79
83.45
78.61
77.20
78.67
81.17
82.32
80.34
74.76
66.54
57.57
49.76
44.25
41.13
39.61
38.58
37.19
35.18
32.85
30.75
29.33
28.64
28.34
27.91
26.85
24.95
22.29
19.13
15.79
12.56
9.61
7.07
5.03
3.54
2.66
2.36
2.55
3.08
3.76
4.41
4.93
5.30
5.60
5.99
6.61
7.51
8.62
9.73
10.58
11.00
10.95
10.56
10.06
9.60
9.18
8.62
7.73
6.45
4.93
3.52
2.52
2.02
1.81
1.51
0.79
-0.47
-2.16
-4.12
-6.25
-8.57
-11.07
-13.47
-15.27
-15.88
-14.92
-12.49
-9.14
-5.70
-2.85
-0.89
0.25
0.84
1.20
1.50
1.76
1.88
1.80
1.55
1.28
1.24
1.68
2.75
4.41
6.38
8.19
9.43
9.87
9.59
8.93
8.31
8.04
8.19
8.59
8.94
8.94
8.39
7.24
5.64
3.82
2.03
0.36
-1.21
-2.87
-4.79
-7.01
-9.32
-11.32
-12.57
-12.90
-12.46
-11.78
-11.54
-12.30
-14.23
-17.07
-20.21
-22.90
-24.60
-25.10
-24.57
-23.42
-22.09
-20.86
-19.77
-18.71
-17.51
-16.12
-14.66
-13.40
-12.59
-12.42
-12.90
-13.91
-15.21
-16.47
-17.21
-16.82
-14.57
-9.84
-2.41
7.35
18.55
30.10
41.18
51.62
61.79
72.17
82.67
92.21
98.85
100.39
95.32
83.57
66.66
47.30
28.65
13.30
2.81
-2.58
-3.76
-2.26
0.26
2.42
3.45
3.13
1.69
-0.45
-3.00
-5.83
-9.01
-12.53
-16.17
-19.43
-21.66
-22.39
-21.61
-19.83
-17.86
-16.39
-15.61
-15.15
-14.31
-12.56
-9.92
-7.01
-4.68
-3.55
-3.63
-4.37
-4.99
-4.94
-4.17
-3.01
-1.89
-1.07
-0.47
0.22
1.27
2.79
4.58
6.33
7.73
8.56
8.80
8.51
7.87
7.05
6.24
5.56
5.05
4.65
4.16
3.40
2.17
0.46
-1.59
-3.67
-5.39
-6.48
-6.88
-6.79
-6.64
-6.93
-8.02
-10.08
-12.98
-16.32
-19.57
-22.19
-23.78
-24.17
-23.40
-21.70
-19.38
-16.75
-14.04
-11.39
-8.91
-6.57
-4.29
-1.94
0.57
3.25
5.93
8.39
10.39
11.83
12.75
13.28
13.53
13.57
13.37
12.97
12.46
11.97
11.60
11.33
11.06
10.76
10.51
10.51
10.86
11.48
12.01
12.00
11.19
9.68
7.91
6.45
5.56
5.09
4.57
3.49
1.69
-0.58
-2.74
-4.29
-5.10
-5.45
-5.97
-7.26
-9.68
-13.17
-17.31
-21.48
-25.05
-27.48
-28.40
-27.69
-25.51
-22.19
-18.27
-14.23
-10.43
-7.01
-3.93
-1.07
1.67
4.24
6.50
8.27
9.43
10.00
10.13
10.03
9.93
10.04
10.43
11.06
11.78
12.34
12.58
12.42
11.94
11.22
10.32
9.13
7.47
5.18
2.30
-0.92
-4.15
-7.06
-9.65
-12.09
-14.66
-17.43
-20.18
-22.37
-23.40
-22.78
-20.46
-16.79
-12.40
-7.94
-3.87
-0.44
2.25
4.04
4.69
4.02
2.07
-0.68
-3.49
-5.64
-6.72
-6.85
-6.50
-6.22
-6.27
-6.57
-6.79
-6.60
-5.83
-4.45
-2.47
0.20
3.65
7.84
12.49
17.11
21.16
24.26
26.37
27.69
28.50
28.95
29.02
28.52
27.30
25.33
22.72
19.72
16.60
13.56
10.69
8.05
5.67
3.55
1.72
0.21
-1.03
-2.01
-2.77
-3.35
-3.77
-4.00
-4.10
-4.06
-3.98
-4.00
-4.35
-5.26
-6.89
-9.25
-12.11
-15.13
-17.90
-20.05
-21.32
-21.53
-20.63
-18.66
-15.88
-12.68
-9.53
-6.82
-4.70
-3.04
-1.52
0.10
1.88
3.58
4.89
5.60
5.79
5.76
5.94
6.62
7.85
9.39
10.88
11.93
12.30
12.02
11.37
10.80
10.73
11.38
12.65
14.23
15.71
16.71
17.09
16.85
16.10
14.89
13.26
11.19
8.83
6.45
4.30
2.53
0.94
-0.86
-3.25
-6.29
-9.53
-12.19
-13.45
-12.84
-10.49
-7.01
-3.28
-0.02
2.38
3.92
4.77
5.18
5.28
5.15
4.83
4.37
3.84
3.36
3.04
2.96
3.15
3.53
4.00
4.41
4.67
4.79
4.87
5.08
5.60
6.46
7.49
8.34
8.54
7.73
5.80
3.00
-0.08
-2.78
-4.64
-5.58
-5.94
-6.28
-7.06
-8.50
-10.46
-12.65
-14.80
-16.76
-18.53
-20.10
-21.28
-21.72
-21.03
-18.99
-15.68
-11.60
-7.42
-3.80
-1.14
0.51
1.46
2.19
3.08
4.23
5.43
6.26
6.36
5.65
4.45
3.38
3.00
3.55
4.83
6.28
7.30
7.54
7.04
6.08
5.05
4.19
3.52
2.96
2.43
1.91
1.47
1.15
0.96
0.74
0.32
-0.47
-1.70
-3.30
-5.04
-6.70
-8.16
-9.47
-10.79
-12.28
-13.87
-15.27
-15.96
-15.45
-13.49
-10.27
-6.38
-2.65
0.16
1.62
1.78
1.09
0.23
-0.21
0.03
0.81
1.77
2.54
2.98
3.26
3.63
4.31
5.26
6.28
7.15
7.76
8.17
8.54
9.00
9.50
9.90
9.98
9.59
8.66
7.27
5.59
3.87
2.40
1.39
0.90
0.78
0.73
0.48
-0.13
-1.11
-2.33
-3.65
-5.03
-6.46
-7.90
-9.17
-10.02
-10.14
-9.38
-7.77
-5.58
-3.23
-1.13
0.39
1.25
1.58
1.66
1.80
2.23
3.01
3.95
4.83
5.45
5.73
5.81
5.88
6.14
6.62
7.25
7.82
8.13
8.03
7.51
6.63
5.51
4.22
2.88
1.53
0.27
-0.81
-1.61
-2.09
-2.28
-2.32
-2.40
-2.65
-3.18
-4.01
-5.18
-6.74
-8.81
-11.37
-14.23
-16.92
-18.84
-19.48
-18.62
-16.46
-13.51
-10.39
-7.59
-5.32
-3.62
-2.45
-1.75
-1.52
-1.65
-1.94
-2.11
-1.96
-1.44
-0.73
-0.08
0.37
0.65
0.96
1.55
2.48
3.64
4.76
5.51
5.74
5.53
5.09
4.70
4.52
4.52
4.48
4.08
3.12
1.58
-0.26
-2.01
-3.37
-4.18
-4.62
-4.98
-5.60
-6.67
-8.23
-10.16
-12.23
-14.11
-15.43
-15.90
-15.34
-13.83
-11.68
-9.26
-6.91
-4.84
-3.10
-1.72
-0.65
0.16
0.85
1.57
2.48
3.61
4.88
6.11
7.13
7.89
8.48
9.02
9.60
10.25
10.86
11.31
11.48
11.30
10.79
10.10
9.43
8.95
8.76
8.76
8.72
8.36
7.48
6.10
4.37
2.59
0.97
-0.38
-1.54
-2.71
-4.10
-5.92
-8.30
-11.17
-14.30
-17.26
-19.47
-20.49
-20.07
-18.26
-15.45
-12.13
-8.81
-5.84
-3.36
-1.30
0.48
2.10
3.64
5.03
6.16
6.96
7.43
7.69
7.92
8.28
8.85
9.58
10.33
10.96
11.36
11.52
11.53
11.49
11.49
11.53
11.49
11.18
10.44
9.21
7.54
5.60
3.55
1.50
-0.51
-2.41
-4.09
-5.35
-5.98
-5.88
-5.17
-4.28
-3.87
-4.52
-6.56
-9.81
-13.55
-16.79
-18.65
-18.62
-16.80
-13.78
-10.38
-7.28
-4.88
-3.23
-2.17
-1.46
-0.94
-0.57
-0.34
-0.23
-0.08
0.38
1.51
3.60
6.71
10.55
14.55
18.07
20.61
22.05
22.69
23.04
23.63
24.79
26.59
28.96
31.77
34.92
38.31
41.71
44.68
46.65
47.11
45.84
43.10
39.61
36.28
33.82
32.50
31.92
31.29
29.66
26.30
20.87
13.52
4.81
-4.38
-13.03
-20.15
-24.98
-27.23
-27.14
-25.45
-23.11
-21.07
-19.98
-20.08
-21.19
-22.86
-24.52
-25.57
-25.62
-24.49
-22.32
-19.44
-16.23
-12.95
-9.72
-6.53
-3.38
-0.34
2.47
4.92
6.96
8.55
9.67
10.26
10.21
9.49
8.21
6.60
4.88
3.17
1.41
-0.55
-2.86
-5.56
-8.59
-11.87
-15.34
-18.96
-22.58
-25.93
-28.63
-30.34
-31.01
-30.94
-30.72
-30.97
-32.06
-33.91
-35.98
-37.47
-37.63
-36.06
-32.85
-28.52
-23.79
-19.34
-15.52
-12.35
-9.60
-6.98
-4.28
-1.55
0.98
3.03
4.44
5.24
5.73
6.28
7.20
8.55
10.12
11.50
12.31
12.39
11.92
11.31
10.94
10.95
11.18
11.26
10.93
10.19
9.31
8.67
8.42
8.42
8.21
7.27
5.32
2.49
-0.86
-4.22
-7.21
-9.66
-11.56
-13.03
-14.23
-15.37
-16.69
-18.43
-20.69
-23.37
-26.10
-28.24
-29.19
-28.49
-26.06
-22.24
-17.67
-13.09
-9.10
-5.94
-3.47
-1.32
0.86
3.16
5.27
6.62
6.78
5.76
4.20
3.08
3.33
5.25
8.36
11.61
13.90
14.67
14.15
13.22
12.98
14.06
16.38
19.15
21.19
21.45
19.38
15.02
8.93
2.09
-4.10
-7.73
-6.57
1.30
16.52
37.70
61.37
83.18
99.62
109.52
114.30
116.64
118.55
119.90
118.50
111.67
98.27
79.95
60.77
45.56
37.84
38.49
45.69
55.65
63.87
66.22
59.45
41.56
12.05
-27.76
-74.68
-123.87
-169.71
-206.88
-231.58
-242.17
-239.35
-225.54
-203.96
-177.74
-149.35
-120.52
-92.38
-65.61
-40.53
-17.11
4.85
25.26
43.34
57.40
65.25
65.04
56.26
40.24
20.02
-0.53
-17.98
-30.23
-36.92
-39.01
-38.14
-35.86
-33.27
-31.01
-29.46
-28.90
-29.51
-31.20
-33.47
-35.46
-36.19
-35.06
-32.02
-27.69
-22.97
-18.55
-14.58
-10.58
-5.81
0.28
7.68
15.73
23.41
29.75
34.20
36.67
37.47
37.03
35.79
34.15
32.50
31.19
30.47
30.33
30.48
30.41
29.65
27.98
25.55
22.69
19.74
16.84
13.93
10.90
7.72
4.57
1.76
-0.44
-1.88
-2.55
-2.60
-2.19
-1.59
-1.09
-1.09
-1.99
-4.02
-7.08
-10.66
-13.95
-16.11
-16.59
-15.30
-12.64
-9.36
-6.17
-3.62
-1.86
-0.77
-0.08
0.46
0.95
1.44
1.88
2.32
2.79
3.34
3.98
4.65
5.26
5.78
6.24
6.77
7.48
8.39
9.37
10.18
10.58
10.47
9.89
9.02
8.09
7.22
6.42
5.63
4.74
3.71
2.50
1.09
-0.51
-2.29
-4.20
-6.20
-8.22
-10.22
-12.21
-14.15
-15.95
-17.40
-18.16
-17.87
-16.34
-13.66
-10.30
-6.94
-4.26
-2.65
-2.02
-1.91
-1.69
-0.89
0.59
2.50
4.43
6.05
7.27
8.19
8.96
9.63
10.14
10.41
10.37
10.09
9.73
9.49
9.44
9.57
9.81
9.99
9.99
9.69
9.02
8.03
6.77
5.41
4.03
2.68
1.33
-0.15
-1.88
-3.94
-6.36
-9.08
-11.99
-14.87
-17.44
-19.40
-20.46
-20.43
-19.32
-17.27
-14.55
-11.48
-8.33
-5.33
-2.63
-0.32
1.60
3.15
4.37
5.38
6.30
7.28
8.39
9.65
10.99
12.24
13.28
14.07
14.67
15.17
15.68
16.15
16.47
16.54
16.28
15.81
15.29
14.87
14.57
14.29
13.79
12.91
11.65
10.16
8.76
7.74
7.26
7.28
7.58
7.82
7.72
7.13
6.09
4.77
3.36
2.04
0.92
0.01
-0.77
-1.57
-2.66
-4.27
-6.62
-9.75
-13.38
-16.99
-19.91
-21.53
-21.56
-20.06
-17.46
-14.23
-10.81
-7.41
-4.06
-0.79
2.32
5.02
7.01
8.05
8.12
7.43
6.41
5.61
5.50
6.33
8.06
10.37
12.76
14.76
15.97
16.27
15.72
14.61
13.29
12.13
11.42
11.21
11.38
11.63
11.58
11.03
9.94
8.51
7.02
5.70
4.64
3.81
3.09
2.33
1.35
-0.05
-2.10
-4.92
-8.42
-12.20
-15.60
-17.94
-18.70
-17.78
-15.44
-12.26
-8.83
-5.63
-2.88
-0.58
1.42
3.30
5.14
6.94
8.51
9.69
10.40
10.70
10.86
11.21
11.93
13.01
14.23
15.30
16.05
16.43
16.54
16.43
16.14
15.66
15.01
14.26
13.53
12.81
11.97
10.80
9.11
6.90
4.38
1.91
-0.26
-2.02
-3.48
-4.82
-6.23
-7.83
-9.71
-12.00
-14.78
-18.02
-21.46
-24.59
-26.81
-27.63
-26.88
-24.79
-21.84
-18.59
-15.42
-12.48
-9.67
-6.87
-3.99
-1.16
1.39
3.37
4.55
4.95
4.82
4.59
4.71
5.46
6.84
8.61
10.39
11.89
12.95
13.58
13.82
13.72
13.30
12.57
11.61
10.50
9.35
8.16
6.92
5.62
4.38
3.44
3.04
3.25
3.89
4.64
5.14
5.20
4.77
3.90
2.60
0.88
-1.18
-3.30
-4.95
-5.56
-4.77
-2.62
0.38
3.52
6.13
7.86
8.69
8.82
8.47
7.77
6.77
5.54
4.27
3.25
2.86
3.40
5.06
7.86
11.54
15.63
19.47
22.42
24.17
24.81
24.82
24.67
24.52
23.98
22.41
19.32
14.91
10.12
6.28
4.50
5.13
7.60
10.78
13.43
14.67
14.11
11.71
7.65
2.21
-4.10
-10.48
-15.88
-19.27
-20.09
-18.60
-15.91
-13.62
-13.15
-15.08
-18.94
-23.41
-26.92
-28.41
-27.73
-25.57
-23.02
-20.98
-19.66
-18.53
-16.73
-13.59
-9.19
-4.48
-0.88
0.40
-0.96
-4.11
-7.41
-9.20
-8.67
-6.30
-3.56
-2.22
-3.45
-7.33
-12.98
-19.18
-24.95
-30.02
-34.65
-39.26
-43.94
-48.20
-51.11
-51.76
-49.68
-45.09
-38.87
-32.19
-26.04
-20.88
-16.51
-12.39
-7.84
-2.56
3.32
9.30
14.75
19.28
22.75
25.17
26.52
26.62
25.21
22.25
18.19
13.95
10.74
9.44
10.30
12.74
15.63
17.79
18.44
17.43
15.16
12.24
9.20
6.32
3.65
1.16
-1.27
-3.77
-6.53
-9.81
-13.76
-18.22
-22.61
-26.00
-27.42
-26.31
-22.82
-17.87
-12.76
-8.63
-6.02
-4.62
-3.43
-1.36
2.23
7.15
12.35
16.42
18.23
17.51
14.98
11.98
9.83
9.18
9.74
10.56
10.74
9.99
8.80
8.10
8.54
10.04
11.78
12.71
12.24
10.48
8.11
5.86
3.89
1.73
-1.45
-6.17
-12.15
-18.34
-23.18
-25.29
-23.93
-19.24
-12.13
-4.00
3.62
9.52
13.07
14.43
14.34
13.86
13.81
14.52
15.68
16.72
17.19
16.97
16.30
15.37
14.18
12.50
10.15
7.32
4.67
3.03
2.90
4.15
5.95
7.21
7.12
5.53
2.94
0.13
-2.32
-4.30
-6.16
-8.39
-11.27
-14.61
-17.81
-20.10
-20.87
-19.89
-17.35
-13.72
-9.58
-5.41
-1.48
2.12
5.37
8.29
10.81
12.82
14.23
14.96
15.06
14.61
13.72
12.51
11.06
9.44
7.76
6.20
4.94
4.12
3.69
3.49
3.28
2.92
2.38
1.89
1.70
1.97
2.61
3.24
3.32
2.41
0.40
-2.40
-5.30
-7.49
-8.35
-7.69
-5.74
-3.03
-0.16
2.40
4.42
5.86
6.85
7.53
8.00
8.30
8.42
8.32
7.99
7.52
7.10
6.94
7.23
7.93
8.86
9.67
10.10
9.96
9.27
8.16
6.79
5.25
3.61
1.92
0.26
-1.25
-2.44
-3.23
-3.65
-3.89
-4.21
-4.87
-5.91
-7.13
-8.13
-8.40
-7.62
-5.79
-3.26
-0.64
1.49
2.83
3.46
3.78
4.21
5.00
6.01
6.83
7.09
6.64
5.70
4.72
4.12
4.10
4.48
4.88
4.92
4.44
3.54
2.52
1.68
1.17
0.96
0.89
0.70
0.20
-0.74
-2.11
-3.74
-5.38
-6.77
-7.68
-8.10
-8.15
-8.10
-8.19
-8.54
-8.99
-9.13
-8.46
-6.64
-3.71
-0.15
3.30
5.87
7.10
7.05
6.10
4.81
3.59
2.55
1.55
0.41
-0.90
-2.24
-3.35
-3.98
-4.05
-3.64
-2.95
-2.17
-1.45
-0.84
-0.32
0.12
0.57
1.07
1.67
2.34
2.92
3.23
3.05
2.28
1.04
-0.44
-1.86
-2.97
-3.69
-4.10
-4.39
-4.81
-5.55
-6.65
-8.01
-9.29
-10.05
-9.86
-8.57
-6.33
-3.65
-1.23
0.34
0.77
0.15
-1.14
-2.63
-3.95
-4.91
-5.53
-5.93
-6.26
-6.60
-6.89
-6.99
-6.69
-5.82
-4.28
-2.23
0.03
2.04
3.36
3.74
3.22
2.10
0.86
-0.14
-0.69
-0.86
-0.91
-1.11
-1.62
-2.45
-3.37
-4.12
-4.51
-4.51
-4.24
-3.97
-3.90
-4.17
-4.78
-5.58
-6.43
-7.17
-7.67
-7.82
-7.47
-6.42
-4.55
-1.89
1.27
4.41
6.97
8.54
9.08
8.86
8.34
7.84
7.43
6.92
6.11
4.94
3.74
3.01
3.17
4.26
5.85
7.27
7.97
7.76
6.91
5.96
5.40
5.44
5.92
6.38
6.31
5.33
3.33
0.46
-2.95
-6.66
-10.46
-14.25
-17.91
-21.23
-23.95
-25.90
-27.11
-27.88
-28.63
-29.70
-31.11
-32.59
-33.60
-33.60
-32.14
-28.99
-24.07
-17.56
-9.91
-1.80
5.90
12.37
17.03
19.68
20.50
19.84
18.10
15.58
12.54
9.19
5.81
2.74
0.25
-1.49
-2.46
-2.78
-2.63
-2.22
-1.72
-1.28
-0.96
-0.74
-0.52
-0.22
0.11
0.24
-0.09
-1.00
-2.30
-3.48
-3.93
-3.30
-1.69
0.36
2.15
3.15
3.25
2.72
1.95
1.21
0.54
-0.18
-1.07
-2.17
-3.47
-4.98
-6.71
-8.60
-10.35
-11.38
-11.05
-9.01
-5.52
-1.39
2.32
4.78
5.77
5.69
5.15
4.64
4.24
3.70
2.73
1.34
-0.16
-1.25
-1.51
-0.89
0.34
1.67
2.68
3.13
3.04
2.58
1.98
1.36
0.81
0.33
-0.07
-0.39
-0.64
-0.82
-0.98
-1.10
-1.16
-1.17
-1.18
-1.37
-1.98
-3.11
-4.68
-6.40
-7.90
-8.95
-9.59
-10.09
-10.74
-11.62
-12.42
-12.61
-11.64
-9.35
-5.99
-2.17
1.39
4.15
5.91
6.76
6.86
6.38
5.45
4.12
2.55
1.00
-0.26
-1.00
-1.14
-0.71
0.16
1.38
2.90
4.62
6.35
7.78
8.60
8.63
8.00
7.10
6.42
6.31
6.80
7.59
8.17
8.11
7.24
5.76
4.05
2.62
1.91
2.17
3.45
5.57
8.07
10.17
10.92
9.53
5.70
-0.04
-6.44
-11.95
-15.33
-16.17
-14.96
-12.80
-10.82
-9.68
-9.50
-9.94
-10.58
-11.06
-11.18
-10.87
-10.11
-9.07
-8.04
-7.41
-7.44
-8.15
-9.23
-10.21
-10.60
-10.17
-8.91
-7.07
-4.92
-2.86
-1.24
-0.36
-0.45
-1.57
-3.61
-6.30
-9.28
-12.17
-14.63
-16.46
-17.54
-17.92
-17.71
-17.11
-16.35
-15.64
-15.24
-15.41
-16.35
-18.12
-20.43
-22.68
-23.99
-23.59
-21.10
-16.67
-11.02
-5.15
-0.00
3.82
6.26
7.67
8.65
9.72
11.06
12.45
13.37
13.37
12.34
10.70
9.27
8.83
9.81
11.94
14.45
16.41
17.19
16.74
15.54
14.35
13.77
13.94
14.49
14.70
13.83
11.51
7.89
3.62
-0.42
-3.53
-5.49
-6.69
-7.86
-9.77
-12.75
-16.60
-20.67
-24.20
-26.75
-28.26
-29.03
-29.36
-29.34
-28.74
-27.20
-24.56
-21.02
-17.21
-13.84
-11.59
-10.85
-11.88
-14.80
-19.54
-25.41
-30.46
-31.35
-23.93
-4.80
27.04
69.11
115.64
159.22
193.00
212.44
215.97
204.47
180.28
146.30
105.85
62.79
21.58
-13.41
-39.12
-54.75
-61.87
-63.44
-62.47
-60.97
-59.55
-57.92
-55.68
-52.84
-49.83
-47.05
-44.23
-40.77
-36.07
-30.04
-23.06
-15.82
-8.80
-2.31
3.72
9.80
16.04
21.96
26.90
30.51
33.05
35.18
37.47
40.14
44.12
49.55
55.80
61.87
67.18
71.78
76.11
80.29
84.19
89.10
95.58
103.16
110.74
117.71
124.24
131.11
138.54
146.60
157.25
171.04
186.30
199.56
207.30
207.37
199.71
185.17
153.90
105.96
50.82
1.68
-33.35
-53.87
-63.84
-67.88
-70.92
-77.05
-86.29
-98.06
-112.55
-131.18
-156.14
-190.39
-226.95
-259.26
-282.23
-293.02
-293.35
-287.18
-277.57
-264.13
-242.97
-209.34
-162.24
-105.29
-45.40
8.89
51.16
79.85
98.31
112.01
124.26
133.26
134.12
122.84
99.26
68.29
38.24
17.50
11.36
20.01
39.21
63.10
86.29
105.12
117.76
123.22
120.44
108.72
88.49
63.57
41.15
28.45
30.61
47.83
74.38
100.46
119.93
127.17
122.05
109.90
95.56
82.08
69.45
54.93
34.56
4.76
-36.96
-90.03
-150.55
-214.74
-274.99
-320.72
-342.70
-338.16
-313.07
-280.62
-254.49
-244.05
-256.36
-291.88
-346.04
-412.19
-483.70
-553.21
-612.64
-653.26
-642.24
-565.23
-434.47
-284.42
-150.96
-52.94
11.29
53.95
85.48
114.19
138.66
155.20
163.13
165.35
167.13
175.83
196.42
232.07
281.10
338.11
397.39
453.42
499.47
516.69
490.92
420.05
334.79
250.58
172.39
96.28
24.13
-39.50
-88.89
-117.77
-123.25
-107.48
-79.42
-47.29
-14.85
18.58
53.79
88.80
119.03
137.16
135.73
107.99
54.22
-17.93
-96.33
-168.89
-226.13
-262.45
-276.87
-272.99
-258.84
-242.48
-227.50
-214.46
-202.43
-189.85
-175.46
-157.76
-135.89
-110.76
-83.48
-53.84
-22.82
7.31
34.09
55.18
71.86
87.16
104.11
125.54
155.74
195.84
243.17
292.27
335.65
371.01
400.20
427.42
456.93
493.12
533.78
570.79
593.81
593.36
569.85
530.78
486.23
422.30
334.09
225.20
107.70
9.87
-69.39
-136.39
-195.47
-250.37
-297.66
-327.67
-333.18
-311.53
-266.17
-208.06
-149.01
-101.06
-74.75
-76.31
-104.65
-155.71
-221.74
-292.30
-356.97
-404.93
-428.81
-427.11
-403.82
-358.87
-300.03
-239.10
-190.45
-155.69
-129.65
-105.24
-77.00
-40.36
7.81
66.34
130.30
191.39
239.97
267.41
269.09
245.46
201.27
143.52
78.67
13.53
-44.27
-86.19
-105.09
-97.04
-63.52
-11.89
45.54
94.42
123.28
126.43
104.59
62.24
5.39
-60.14
-128.95
-195.53
-253.73
-296.83
-319.27
-319.01
-299.47
-268.24
-234.11
-203.57
-178.87
-158.47
-139.01
-117.38
-92.10
-63.40
-31.97
1.98
38.98
79.39
122.34
165.11
203.30
232.25
248.74
252.13
244.38
229.06
209.81
189.30
169.00
149.68
132.02
117.04
105.73
98.62
95.27
94.33
93.92
92.25
88.06
80.95
71.50
61.03
51.15
43.24
37.98
35.22
34.17
33.81
33.24
32.03
30.17
27.89
25.39
22.75
19.97
17.31
15.00
13.24
12.17
11.88
12.31
13.20
14.19
14.86
15.26
15.37
15.03
14.26
13.44
13.05
13.45
14.90
17.36
21.33
26.83
33.04
38.76
42.95
44.88
44.73
44.45
47.20
56.91
75.09
98.76
121.43
135.99
137.03
123.34
98.95
65.37
28.73
-3.32
-26.27
-40.19
-48.32
-54.82
-65.01
-82.29
-108.17
-141.69
-180.65
-221.20
-257.81
-278.87
-274.89
-244.07
-194.05
-137.57
-87.91
-44.68
-3.69
38.30
81.14
118.87
142.07
142.46
116.56
67.64
4.30
-64.24
-129.82
-186.56
-232.24
-267.34
-293.61
-313.07
-327.09
-335.99
-339.94
-338.00
-328.18
-308.79
-279.31
-240.36
-193.36
-139.88
-81.12
-18.73
45.69
110.65
174.77
237.23
298.48
360.13
423.84
489.45
552.99
606.73
641.06
647.71
623.13
570.16
497.07
414.50
331.89
254.93
185.38
122.48
64.98
12.16
-36.07
-79.98
-120.85
-161.11
-203.56
-250.04
-300.17
-350.71
-396.29
-431.15
-451.19
-455.27
-445.32
-425.02
-398.16
-367.42
-334.17
-299.11
-263.04
-226.95
-191.62
-157.01
-122.14
-85.64
-46.77
-6.14
34.33
72.07
104.73
130.89
150.36
164.04
173.58
181.03
188.44
197.28
207.95
219.28
228.71
233.03
229.40
216.42
194.60
166.09
133.87
100.71
68.63
38.73
11.46
-13.04
-34.80
-53.97
-70.90
-85.96
-99.38
-110.98
-120.17
-126.05
-127.64
-124.04
-114.79
-100.04
-80.90
-59.32
-37.88
-19.05
-4.61
4.95
10.35
13.00
14.30
15.10
15.53
15.27
13.97
11.67
8.98
6.94
6.60
8.63
12.97
18.79
24.82
29.87
33.31
35.32
36.68
38.32
40.78
43.85
46.62
47.84
46.51
42.28
35.70
28.07
20.98
15.72
12.90
12.28
13.06
14.20
14.90
14.80
14.09
13.40
13.48
14.95
18.00
22.27
26.96
31.07
33.90
35.20
35.27
34.69
34.01
33.44
32.70
31.12
27.93
22.50
14.72
5.07
-5.44
-15.52
-24.03
-30.24
-33.95
-35.39
-35.01
-33.33
-30.88
-28.14
-25.45
-22.86
-20.03
-16.31
-11.01
-3.72
5.40
15.48
25.12
32.60
36.28
34.95
28.18
16.50
1.43
-14.82
-29.93
-41.99
-49.92
-53.62
-53.71
-51.20
-47.14
-42.42
-37.73
-33.56
-30.23
-27.87
-26.36
-25.37
-24.43
-23.09
-21.07
-18.44
-15.54
-12.88
-10.89
-9.72
-9.22
-9.04
-8.80
-8.33
-7.72
-7.30
-7.51
-8.74
-11.18
-14.72
-18.89
-22.89
-25.89
-27.30
-27.10
-26.01
-25.15
-25.56
-27.56
-30.36
-32.28
-31.38
-26.38
-17.42
-6.15
4.61
11.84
13.48
9.26
1.14
-6.92
-9.81
-2.51
18.63
54.94
104.94
164.26
226.15
282.62
325.88
350.11
352.65
334.29
298.28
248.83
189.92
125.39
59.98
0.33
-45.47
-70.16
-70.48
-49.26
-14.96
21.42
50.40
67.02
71.42
67.17
58.85
49.89
41.82
34.48
26.79
17.48
5.59
-9.00
-25.67
-43.06
-60.07
-76.49
-93.32
-112.60
-136.82
-168.38
-209.10
-259.60
-318.40
-381.19
-440.95
-489.35
-519.32
-527.39
-514.78
-486.46
-448.81
-407.23
-364.78
-322.49
-280.41
-238.65
-197.53
-156.98
-115.89
-72.13
-23.51
30.66
88.38
144.91
193.79
229.15
247.89
250.80
242.11
227.68
212.72
200.16
190.34
181.91
173.31
163.76
153.53
143.39
133.93
125.10
116.33
106.97
96.81
86.26
76.31
67.98
61.81
57.56
54.30
50.80
46.12
40.04
33.10
26.46
21.27
18.37
17.99
19.69
22.65
25.90
28.60
30.26
30.76
30.21
28.87
26.89
24.45
21.79
19.34
17.62
17.04
17.63
18.92
20.12
20.41
19.38
17.20
14.46
11.94
10.20
9.35
9.12
8.97
8.46
7.30
5.47
3.14
0.49
-2.27
-5.03
-7.67
-10.10
-12.20
-13.93
-15.39
-16.82
-18.50
-20.66
-23.32
-26.26
-29.07
-31.23
-32.25
-31.75
-29.58
-25.89
-21.13
-16.03
-11.36
-7.65
-5.06
-3.32
-1.95
-0.63
0.69
1.72
2.13
1.82
1.08
0.47
0.57
1.58
3.24
4.92
5.97
6.03
5.23
4.04
3.05
2.62
2.74
3.05
3.13
2.72
1.89
0.94
0.15
-0.44
-1.04
-2.02
-3.57
-5.56
-7.55
-9.01
-9.61
-9.40
-8.79
-8.35
-8.59
-9.80
-11.95
-14.75
-17.67
-20.12
-21.53
-21.51
-19.96
-17.07
-13.25
-9.04
-4.95
-1.33
1.64
3.89
5.38
6.07
5.88
4.89
3.38
1.91
1.13
1.50
3.15
5.72
8.57
11.02
12.65
13.38
13.38
12.91
12.15
11.17
10.03
8.81
7.69
6.81
6.23
5.87
5.54
5.11
4.52
3.78
2.92
1.94
0.74
-0.81
-2.79
-5.14
-7.70
-10.28
-12.75
-15.06
-17.19
-18.98
-20.15
-20.28
-19.05
-16.41
-12.70
-8.62
-4.95
-2.34
-1.00
-0.70
-0.94
-1.18
-1.05
-0.50
0.32
1.18
1.95
2.57
3.12
3.68
4.20
4.60
4.74
4.54
4.10
3.66
3.54
3.97
4.99
6.33
7.60
8.40
8.53
8.07
7.31
6.66
6.45
6.75
7.40
8.07
8.48
8.65
8.88
9.66
11.27
13.52
15.65
16.57
15.41
11.98
6.96
1.63
-2.73
-5.34
-6.22
-5.98
-5.47
-5.32
-5.74
-6.51
-7.25
-7.67
-7.71
-7.63
-7.79
-8.45
-9.62
-11.00
-12.21
-13.03
-13.54
-14.09
-15.02
-16.40
-17.98
-19.28
-19.85
-19.51
-18.33
-16.53
-14.23
-11.49
-8.29
-4.78
-1.33
1.60
3.60
4.58
4.76
4.66
4.77
5.41
6.58
8.02
9.33
10.11
10.12
9.33
7.88
6.15
4.67
4.05
4.76
6.86
9.82
12.52
13.54
11.62
6.18
-2.41
-12.93
-23.77
-33.43
-41.04
-46.47
-50.10
-52.53
-54.23
-55.43
-56.18
-56.54
-56.66
-56.74
-56.86
-56.85
-56.26
-54.56
-51.46
-47.12
-42.10
-37.08
-32.55
-28.45
-24.33
-19.58
-13.88
-7.36
-0.63
5.63
10.98
15.45
19.48
23.71
28.69
34.76
42.09
50.64
60.16
70.10
79.52
87.26
92.29
94.12
93.00
89.90
86.12
82.79
80.48
79.11
78.09
76.60
73.92
69.57
63.39
55.54
46.52
36.99
27.66
19.06
11.38
4.46
-2.20
-9.19
-16.90
-25.31
-33.93
-41.93
-48.57
-53.64
-57.71
-62.05
-68.20
-77.30
-89.53
-103.94
-118.82
-132.42
-143.72
-152.69
-160.14
-167.00
-173.56
-179.00
-181.39
-178.18
-166.87
-145.63
-113.79
-72.16
-23.03
30.05
82.78
131.12
172.18
204.95
230.22
249.97
266.29
280.59
293.26
304.11
312.91
319.81
325.23
329.23
330.95
328.31
318.51
298.97
268.34
227.07
177.38
122.68
66.76
13.13
-35.29
-76.29
-108.39
-131.02
-144.62
-150.75
-151.74
-150.08
-147.69
-145.52
-143.61
-141.55
-139.14
-136.73
-135.18
-135.40
-137.78
-141.74
-145.81
-148.07
-146.82
-141.20
-131.39
-118.50
-104.00
-89.30
-75.33
-62.56
-51.10
-40.91
-32.03
-24.49
-18.27
-13.20
-9.04
-5.60
-2.89
-1.03
-0.16
-0.14
-0.44
-0.23
1.22
4.19
8.24
12.47
15.88
17.90
18.65
18.69
18.66
18.87
19.18
19.13
18.41
16.99
15.10
12.99
10.74
8.29
5.66
3.16
1.40
0.99
2.18
4.62
7.38
9.41
9.93
8.80
6.44
3.61
1.03
-0.83
-1.83
-1.99
-1.44
-0.30
1.33
3.40
6.13
10.10
16.19
25.27
37.53
51.95
66.32
77.87
84.32
84.91
80.70
73.95
67.02
61.20
56.41
51.55
45.55
38.02
29.55
21.15
13.67
7.38
2.05
-2.58
-6.52
-9.39
-10.75
-10.50
-8.95
-6.66
-4.01
-0.88
3.34
9.28
17.06
25.97
34.62
41.54
45.82
47.60
47.94
48.37
50.26
54.27
60.25
67.32
74.32
80.20
84.41
87.08
88.92
90.79
93.10
95.52
96.94
95.96
91.51
83.13
70.85
54.88
35.35
12.23
-14.42
-44.41
-77.44
-113.30
-151.66
-191.38
-229.76
-262.25
-283.41
-288.95
-277.74
-252.85
-220.52
-187.79
-159.68
-137.52
-119.11
-100.51
-78.32
-51.30
-20.77
10.26
38.54
61.70
78.83
90.15
96.51
98.79
97.77
94.11
88.67
82.55
76.91
72.70
70.36
69.71
70.07
70.52
70.10
68.08
64.03
57.87
49.64
39.29
26.57
11.12
-7.11
-27.46
-48.30
-67.29
-82.10
-91.19
-94.23
-92.03
-86.06
-77.91
-68.94
-60.32
-53.12
-48.28
-46.35
-47.31
-50.45
-54.68
-58.92
-62.36
-64.51
-65.14
-64.13
-61.44
-57.22
-51.86
-46.05
-40.65
-36.62
-34.89
-36.11
-40.41
-47.25
-55.56
-64.25
-73.05
-82.92
-95.67
-112.73
-133.69
-155.74
-174.39
-185.43
-186.89
-179.81
-167.58
-153.72
-140.03
-125.65
-107.91
-84.06
-52.73
-14.20
30.57
81.06
137.36
198.92
262.97
323.50
372.19
400.86
404.51
383.28
342.25
289.32
232.19
176.17
123.65
75.06
30.55
-8.89
-41.32
-64.67
-77.75
-81.05
-76.77
-68.38
-59.86
-54.59
-54.70
-60.46
-70.27
-81.08
-89.37
-92.15
-87.80
-76.42
-59.53
-39.46
-18.72
0.55
16.71
28.79
36.50
40.31
41.50
41.83
43.10
46.56
52.47
59.94
67.20
72.14
73.05
69.20
61.17
50.58
39.52
29.81
22.25
16.51
11.40
5.59
-1.63
-9.89
-17.76
-23.30
-24.88
-21.98
-15.57
-7.99
-2.22
-0.85
-5.07
-14.16
-25.77
-36.87
-45.01
-49.18
-49.98
-49.01
-47.86
-47.31
-47.13
-46.36
-44.04
-39.65
-33.30
-25.65
-17.58
-10.05
-3.96
-0.03
1.31
0.00
-3.55
-8.59
-14.19
-19.32
-23.10
-24.79
-24.04
-21.01
-16.43
-11.35
-6.74
-2.97
0.39
4.29
9.64
16.49
23.86
29.97
33.07
32.20
27.65
20.70
13.06
6.21
0.99
-2.41
-4.20
-4.82
-4.85
-4.93
-5.64
-7.25
-9.46
-11.40
-11.94
-10.29
-6.45
-1.34
3.60
7.01
8.26
7.69
6.45
5.92
7.14
10.36
15.04
20.02
24.02
26.05
25.77
23.46
19.91
15.98
12.30
9.13
6.46
4.20
2.38
1.12
0.46
0.17
-0.10
-0.66
-1.50
-2.18
-2.03
-0.61
2.06
5.40
8.51
10.53
10.89
9.39
6.09
1.24
-4.80
-11.38
-17.63
-22.52
-25.15
-25.06
-22.40
-17.87
-12.41
-6.90
-1.91
2.38
5.96
8.86
11.02
12.29
12.54
11.82
10.33
8.45
6.51
4.81
3.55
2.84
2.77
3.34
4.41
5.67
6.71
7.18
6.94
6.13
5.08
4.07
3.27
2.66
2.13
1.66
1.32
1.20
1.27
1.24
0.69
-0.69
-2.93
-5.57
-7.82
-8.88
-8.21
-5.79
-2.05
2.27
6.39
9.71
11.96
13.17
13.57
13.49
13.17
12.67
11.95
10.87
9.39
7.63
5.86
4.37
3.41
3.02
3.13
3.59
4.27
5.10
6.07
7.18
8.43
9.72
10.87
11.57
11.51
10.48
8.46
5.72
2.64
-0.39
-3.13
-5.54
-7.76
-9.96
-12.25
-14.61
-16.78
-18.42
-19.08
-18.46
-16.45
-13.19
-9.07
-4.52
0.06
4.40
8.28
11.43
13.57
14.47
14.10
12.77
10.97
9.22
7.87
7.04
6.73
6.89
7.45
8.28
9.15
9.68
9.52
8.50
6.72
4.46
2.12
-0.01
-1.77
-3.09
-3.93
-4.26
-4.09
-3.54
-2.90
-2.55
-2.93
-4.28
-6.61
-9.55
-12.43
-14.47
-15.06
-13.96
-11.45
-8.17
-4.88
-2.14
-0.16
1.19
2.17
2.99
3.68
4.11
4.09
3.56
2.58
1.43
0.45
-0.03
0.13
0.91
2.03
3.13
3.90
4.20
4.15
4.00
4.01
4.24
4.52
4.52
3.92
2.55
0.49
-1.95
-4.41
-6.58
-8.36
-9.80
-11.05
-12.27
-13.59
-15.01
-16.47
-17.83
-18.87
-19.29
-18.77
-17.08
-14.19
-10.36
-6.09
-1.98
1.49
4.17
6.27
8.09
9.83
11.45
12.66
13.13
12.76
11.78
10.68
9.94
9.83
10.30
10.98
11.45
11.41
10.79
9.74
8.56
7.47
6.53
5.63
4.59
3.29
1.80
0.31
-0.92
-1.75
-2.26
-2.66
-3.23
-4.10
-5.27
-6.69
-8.32
-10.16
-12.22
-14.34
-16.18
-17.29
-17.24
-15.84
-13.19
-9.66
-5.77
-2.05
1.08
3.40
4.93
5.85
6.42
6.85
7.17
7.26
6.98
6.34
5.54
4.91
4.77
5.19
5.97
6.71
6.98
6.52
5.38
3.89
2.56
1.79
1.76
2.27
2.87
3.08
2.57
1.38
-0.15
-1.51
-2.35
-2.58
-2.42
-2.26
-2.45
-3.22
-4.65
-6.73
-9.34
-12.21
-14.88
-16.73
-17.11
-15.63
-12.34
-7.78
-2.83
1.64
5.06
7.22
8.32
8.64
8.48
8.00
7.31
6.48
5.60
4.80
4.18
3.80
3.68
3.79
4.05
4.34
4.50
4.46
4.31
4.26
4.59
5.44
6.63
7.76
8.31
7.91
6.56
4.62
2.64
1.06
0.01
-0.70
-1.42
-2.49
-4.02
-5.92
-8.03
-10.24
-12.60
-15.12
-17.67
-19.87
-21.16
-20.97
-19.10
-15.81
-11.80
-7.96
-5.04
-3.39
-2.85
-2.87
-2.77
-2.05
-0.54
1.47
3.50
5.02
5.76
5.81
5.55
5.47
5.95
7.11
8.78
10.75
12.78
14.73
16.54
18.11
19.33
20.06
20.29
20.24
20.26
20.76
22.00
23.97
26.56
29.79
33.91
39.49
47.12
57.08
69.10
82.23
94.90
105.06
110.59
109.61
101.01
84.73
61.88
34.56
5.40
-22.98
-48.37
-69.21
-84.62
-94.39
-98.91
-99.15
-96.40
-92.01
-87.02
-82.00
-77.02
-71.93
-66.54
-60.82
-54.88
-48.87
-42.97
-37.33
-32.05
-27.26
-23.01
-19.32
-16.04
-12.95
-9.78
-6.33
-2.57
1.31
4.96
8.01
10.18
11.45
11.96
12.04
11.98
11.94
11.91
11.79
11.45
10.83
9.91
8.67
7.00
4.83
2.23
-0.53
-2.91
-4.29
-4.28
-2.91
-0.61
1.88
3.88
4.97
5.11
4.53
3.55
2.35
0.98
-0.65
-2.67
-5.05
-7.59
-9.94
-11.70
-12.62
-12.70
-12.15
-11.31
-10.47
-9.75
-9.08
-8.28
-7.13
-5.57
-3.69
-1.75
-0.07
1.04
1.48
1.36
0.95
0.62
0.60
0.87
1.20
1.28
0.90
0.11
-0.86
-1.76
-2.45
-3.10
-3.98
-5.29
-6.98
-8.67
-9.86
-10.17
-9.44
-7.82
-5.55
-2.90
-0.04
2.86
5.61
7.95
9.68
10.68
11.02
10.90
10.53
10.11
9.79
9.69
9.87
10.34
10.96
11.50
11.74
11.61
11.23
10.79
10.49
10.32
10.19
9.93
9.47
8.89
8.34
7.91
7.58
7.18
6.50
5.42
3.94
2.22
0.46
-1.18
-2.59
-3.76
-4.75
-5.69
-6.79
-8.28
-10.34
-12.91
-15.61
-17.79
-18.77
-18.08
-15.77
-12.30
-8.47
-5.04
-2.44
-0.71
0.41
1.27
2.09
2.88
3.52
3.83
3.73
3.29
2.71
2.17
1.80
1.60
1.49
1.38
1.29
1.29
1.49
1.90
2.40
2.80
2.96
2.89
2.76
2.82
3.23
3.91
4.58
4.82
4.31
2.96
0.97
-1.24
-3.24
-4.69
-5.46
-5.59
-5.27
-4.81
-4.58
-4.95
-6.15
-8.15
-10.58
-12.81
-14.16
-14.19
-12.81
-10.39
-7.51
-4.75
-2.55
-1.04
-0.18
0.17
0.12
-0.21
-0.55
-0.40
1.01
4.41
10.18
17.95
26.60
34.56
40.33
43.02
42.61
39.84
35.78
31.42
27.38
23.82
20.66
17.68
14.78
12.02
9.54
7.49
5.86
4.42
2.85
0.87
-1.53
-4.07
-6.37
-8.17
-9.49
-10.60
-11.87
-13.48
-15.44
-17.59
-19.78
-21.91
-23.93
-25.62
-26.65
-26.60
-25.22
-22.57
-19.05
-15.19
-11.46
-8.10
-5.11
-2.43
-0.01
2.13
3.90
5.28
6.35
7.28
8.25
9.33
10.44
11.36
11.86
11.75
11.05
9.99
8.89
8.09
7.78
7.89
8.21
8.47
8.44
8.03
7.32
6.44
5.56
4.76
4.07
3.38
2.56
1.47
0.14
-1.32
-2.69
-3.76
-4.51
-5.11
-5.84
-6.96
-8.55
-10.45
-12.31
-13.77
-14.55
-14.49
-13.60
-11.95
-9.70
-7.07
-4.34
-1.82
0.27
1.92
3.30
4.68
6.23
7.94
9.57
10.81
11.40
11.25
10.54
9.57
8.69
8.14
7.98
8.11
8.35
8.52
8.56
8.54
8.54
8.62
8.74
8.78
8.66
8.33
7.85
7.29
6.68
6.02
5.28
4.45
3.55
2.58
1.48
0.16
-1.42
-3.17
-4.86
-6.22
-7.15
-7.70
-8.14
-8.78
-9.85
-11.43
-13.43
-15.63
-17.66
-19.15
-19.69
-19.05
-17.21
-14.43
-11.16
-7.87
-4.89
-2.31
0.04
2.41
5.01
7.83
10.60
12.89
14.27
14.55
13.95
12.97
12.26
12.24
12.91
13.92
14.78
15.25
15.41
15.61
16.18
17.18
18.27
18.96
18.80
17.65
15.72
13.40
11.14
9.21
7.67
6.36
5.05
3.52
1.69
-0.34
-2.40
-4.34
-6.18
-8.14
-10.50
-13.40
-16.70
-20.00
-22.82
-24.92
-26.42
-27.65
-28.91
-30.17
-31.04
-30.97
-29.62
-27.09
-23.82
-20.32
-16.97
-13.81
-10.76
-7.75
-4.90
-2.49
-0.71
0.40
1.09
1.69
2.53
3.78
5.41
7.27
9.15
10.78
11.97
12.57
12.58
12.14
11.45
10.70
10.03
9.44
8.92
8.41
7.88
7.37
6.90
6.53
6.31
6.26
6.38
6.61
6.76
6.59
5.87
4.47
2.49
0.23
-1.88
-3.49
-4.44
-4.86
-5.12
-5.67
-6.82
-8.61
-10.67
-12.40
-13.20
-12.77
-11.19
-8.96
-6.66
-4.73
-3.30
-2.12
-0.87
0.73
2.66
4.71
6.50
7.69
8.06
7.58
6.42
4.87
3.27
1.97
1.21
1.09
1.57
2.51
3.73
5.05
6.31
7.37
8.11
8.40
8.15
7.34
6.07
4.55
3.09
1.95
1.26
0.90
0.62
0.15
-0.62
-1.58
-2.46
-3.06
-3.34
-3.50
-3.79
-4.43
-5.49
-6.92
-8.68
-10.76
-13.11
-15.52
-17.58
-18.76
-18.65
-17.14
-14.54
-11.34
-8.10
-5.13
-2.54
-0.25
1.78
3.52
4.84
5.62
5.83
5.54
4.94
4.26
3.72
3.52
3.70
4.16
4.64
4.88
4.74
4.29
3.81
3.64
3.93
4.59
5.26
5.57
5.32
4.54
3.53
2.57
1.85
1.36
0.97
0.52
-0.08
-0.82
-1.62
-2.43
-3.25
-4.13
-5.11
-6.23
-7.50
-8.98
-10.77
-12.98
-15.63
-18.51
-21.18
-23.10
-23.80
-23.06
-20.99
-17.94
-14.37
-10.66
-7.10
-3.89
-1.18
0.95
2.48
3.56
4.35
4.97
5.42
5.66
5.66
5.56
5.59
5.95
6.67
7.53
8.24
8.56
8.50
8.23
7.93
7.67
7.33
6.78
5.96
5.03
4.26
3.86
3.81
3.88
3.70
2.99
1.70
0.01
-1.73
-3.16
-4.07
-4.41
-4.35
-4.14
-4.07
-4.37
-5.14
-6.42
-8.16
-10.24
-12.48
-14.62
-16.24
-16.94
-16.44
-14.75
-12.17
-9.22
-6.33
-3.75
-1.43
0.75
2.89
4.96
6.74
8.00
8.58
8.48
7.85
7.01
6.31
6.07
6.41
7.21
8.16
8.85
9.04
8.71
8.12
7.54
7.14
6.81
6.38
5.68
4.80
3.98
3.49
3.45
3.73
4.05
4.12
3.78
3.01
1.90
0.59
-0.81
-2.17
-3.35
-4.18
-4.57
-4.50
-4.14
-3.77
-3.71
-4.20
-5.24
-6.62
-7.88
-8.58
-8.42
-7.40
-5.80
-4.00
-2.40
-1.16
-0.25
0.52
1.33
2.32
3.52
4.78
5.89
6.66
6.97
6.89
6.64
6.46
6.55
6.95
7.53
8.14
8.67
9.11
9.59
10.17
10.85
11.43
11.62
11.18
10.00
8.22
6.24
4.57
3.60
3.44
3.84
4.30
4.36
3.84
2.87
1.82
0.95
0.28
-0.40
-1.42
-2.99
-5.16
-7.73
-10.38
-12.71
-14.37
-15.02
-14.46
-12.73
-10.12
-7.18
-4.47
-2.37
-0.96
0.04
1.02
2.37
4.16
6.24
8.24
9.78
10.59
10.65
10.15
9.36
8.53
7.79
7.14
6.52
5.93
5.40
5.06
5.03
5.39
6.10
6.94
7.66
8.03
7.99
7.69
7.41
7.41
7.75
8.20
8.33
7.80
6.47
4.62
2.69
1.13
0.11
-0.53
-1.13
-2.03
-3.38
-5.18
-7.30
-9.55
-11.73
-13.61
-14.92
-15.43
-15.05
-13.82
-11.93
-9.66
-7.21
-4.75
-2.42
-0.35
1.35
2.62
3.50
4.07
4.45
4.68
4.79
4.82
4.91
5.26
5.94
6.88
7.76
8.17
7.80
6.65
5.05
3.46
2.28
1.66
1.52
1.62
1.80
1.99
2.21
2.45
2.57
2.39
1.69
0.42
-1.30
-3.17
-4.82
-5.90
-6.18
-5.64
-4.50
-3.22
-2.40
-2.61
-4.13
-6.78
-9.93
-12.66
-14.17
-14.05
-12.40
-9.68
-6.51
-3.36
-0.52
1.87
3.70
4.90
5.41
5.34
4.92
4.45
4.11
3.98
3.96
3.93
3.80
3.61
3.42
3.30
3.34
3.61
4.16
4.98
5.94
6.78
7.17
6.88
5.86
4.36
2.72
1.32
0.39
-0.06
-0.21
-0.37
-0.79
-1.64
-2.90
-4.41
-5.88
-7.05
-7.80
-8.19
-8.46
-8.95
-9.91
-11.48
-13.57
-15.87
-17.94
-19.29
-19.58
-18.64
-16.63
-13.95
-11.09
-8.49
-6.37
-4.72
-3.37
-2.12
-0.91
0.21
1.06
1.46
1.33
0.74
-0.11
-0.95
-1.52
-1.62
-1.23
-0.52
0.25
0.80
0.97
0.77
0.29
-0.38
-1.23
-2.24
-3.23
-3.72
-2.98
-0.34
4.47
10.96
17.93
23.90
27.70
28.86
27.71
25.05
21.75
18.39
15.16
12.04
8.95
5.84
2.68
-0.62
-4.16
-7.95
-11.75
-15.07
-17.36
-18.24
-17.73
-16.20
-14.23
-12.29
-10.66
-9.39
-8.37
-7.42
-6.36
-5.09
-3.57
-1.91
-0.38
0.69
1.09
0.88
0.45
0.31
0.79
1.89
3.19
4.18
4.52
4.27
3.74
3.33
3.22
3.30
3.31
3.07
2.66
2.35
2.46
3.07
3.99
4.79
5.04
4.55
3.54
2.51
2.07
2.61
4.10
6.04
7.69
8.32
7.54
5.39
2.22
-1.41
-5.02
-8.22
-10.69
-12.17
-12.47
-11.55
-9.64
-7.17
-4.72
-2.79
-1.63
-1.22
-1.31
-1.59
-1.80
-1.86
-1.83
-1.79
-1.80
-1.78
-1.62
-1.18
-0.45
0.49
1.47
2.31
2.95
3.42
3.85
4.34
4.95
5.60
6.15
6.40
6.21
5.55
4.56
3.50
2.68
2.28
2.33
2.63
2.88
2.82
2.35
1.51
0.49
-0.54
-1.46
-2.29
-3.13
-4.13
-5.48
-7.30
-9.60
-12.18
-14.69
-16.62
-17.53
-17.18
-15.68
-13.40
-10.83
-8.33
-6.02
-3.85
-1.67
0.57
2.74
4.58
5.80
6.24
5.96
5.18
4.25
3.50
3.15
3.23
3.68
4.35
5.04
5.60
5.94
6.03
5.91
5.60
5.21
4.80
4.40
4.03
3.66
3.25
2.77
2.23
1.70
1.23
0.82
0.38
-0.24
-1.14
-2.32
-3.66
-4.95
-5.98
-6.67
-7.09
-7.46
-8.05
-9.09
-10.65
-12.52
-14.35
-15.67
-16.10
-15.52
-14.10
-12.17
-10.14
-8.30
-6.73
-5.39
-4.18
-3.01
-1.90
-0.87
0.03
0.78
1.39
1.95
2.57
3.40
4.52
5.93
7.48
8.97
10.16
10.88
11.08
10.82
10.27
9.63
9.04
8.56
8.14
7.68
7.15
6.56
6.02
5.61
5.31
4.95
4.26
3.06
1.33
-0.69
-2.61
-4.06
-4.86
-5.10
-5.06
-5.16
-5.82
-7.32
-9.69
-12.71
-15.82
-18.33
-19.62
-19.35
-17.61
-14.89
-11.84
-9.02
-6.77
-5.09
-3.81
-2.72
-1.70
-0.74
0.16
0.99
1.81
2.66
3.54
4.36
5.02
5.40
5.48
5.34
5.16
5.16
5.53
6.31
7.39
8.47
9.24
9.46
9.08
8.26
7.27
6.36
5.72
5.34
5.11
4.87
4.47
3.84
3.00
2.05
1.09
0.24
-0.50
-1.19
-2.00
-3.07
-4.55
-6.46
-8.76
-11.26
-13.73
-15.82
-17.24
-17.71
-17.10
-15.41
-12.83
-9.70
-6.45
-3.49
-1.11
0.62
1.80
2.66
3.42
4.17
4.87
5.44
5.85
6.18
6.58
7.12
7.71
8.10
8.09
7.69
7.17
6.95
7.33
8.36
9.69
10.87
11.48
11.38
10.69
9.71
8.73
7.89
7.23
6.65
5.98
5.08
3.83
2.24
0.44
-1.29
-2.68
-3.58
-4.08
-4.50
-5.21
-6.52
-8.49
-10.88
-13.26
-15.15
-16.17
-16.15
-15.15
-13.41
-11.27
-9.06
-7.02
-5.30
-3.88
-2.69
-1.62
-0.55
0.57
1.73
2.83
3.74
4.33
4.62
4.70
4.77
5.01
5.48
6.11
6.81
7.54
8.40
9.56
11.12
12.94
14.63
15.63
15.50
14.15
11.94
9.48
7.42
6.10
5.44
4.99
4.23
2.90
1.06
-0.92
-2.65
-3.93
-4.91
-5.91
-7.29
-9.18
-11.45
-13.75
-15.66
-16.79
-16.87
-15.78
-13.58
-10.44
-6.68
-2.69
1.10
4.33
6.76
8.31
9.02
9.10
8.80
8.41
8.17
8.19
8.40
8.64
8.70
8.48
7.99
7.39
6.87
6.58
6.56
6.71
6.84
6.74
6.28
5.48
4.45
3.34
2.27
1.25
0.23
-0.88
-2.16
-3.60
-5.16
-6.71
-8.12
-9.24
-10.00
-10.36
-10.48
-10.61
-11.09
-12.16
-13.82
-15.73
-17.30
-17.90
-17.06
-14.74
-11.27
-7.28
-3.41
-0.09
2.52
4.56
6.33
8.09
9.99
11.99
13.92
15.55
16.80
17.73
18.60
19.74
21.40
23.62
26.16
28.61
30.49
31.57
31.95
32.07
32.54
33.81
35.97
38.65
41.16
42.84
43.34
42.74
41.44
39.99
38.92
38.70
39.71
42.06
45.25
47.83
47.50
41.79
29.13
9.82
-13.71
-37.62
-57.98
-72.10
-79.21
-80.10
-76.30
-69.18
-59.70
-48.63
-37.02
-26.29
-17.91
-12.70
-10.38
-9.70
-8.99
-6.83
-2.57
3.57
10.75
17.83
23.62
27.05
27.32
24.12
17.76
9.11
-0.60
-10.25
-19.05
-26.60
-32.63
-36.78
-38.52
-37.29
-32.76
-25.10
-14.94
-3.32
8.56
19.45
28.28
34.32
37.42
38.06
37.37
36.67
37.04
38.78
41.26
43.06
42.42
37.84
28.55
14.85
-1.85
-19.29
-34.82
-46.15
-51.91
-52.11
-48.16
-42.46
-37.62
-35.64
-37.22
-41.58
-46.87
-50.85
-51.78
-48.99
-43.09
-35.55
-28.08
-21.95
-17.60
-14.68
-12.47
-10.29
-7.76
-4.84
-1.69
1.51
4.54
7.05
8.58
8.60
6.80
3.31
-1.24
-5.87
-9.64
-11.94
-12.64
-12.01
-10.46
-8.49
-6.51
-4.87
-3.79
-3.29
-3.04
-2.55
-1.39
0.54
2.86
4.91
6.10
6.23
5.60
4.80
4.35
4.45
4.86
5.13
4.90
4.14
3.20
2.59
2.68
3.57
4.99
6.52
7.83
8.85
9.75
10.78
12.06
13.49
14.77
15.55
15.65
15.10
14.12
13.04
12.10
11.48
11.21
11.25
11.49
11.70
11.60
10.89
9.40
7.13
4.25
1.10
-1.97
-4.56
-6.33
-7.01
-6.42
-4.58
-1.62
2.14
6.37
10.69
14.81
18.45
21.46
23.82
25.67
27.36
29.26
31.62
34.40
37.26
39.76
41.67
43.17
44.77
47.12
50.60
55.01
59.60
63.32
65.24
65.01
63.10
60.63
59.07
59.70
63.25
69.63
77.72
85.35
89.42
86.30
72.38
45.07
3.82
-49.30
-109.62
-171.01
-227.62
-275.38
-312.66
-339.56
-356.65
-363.48
-358.45
-339.61
-306.03
-258.80
-200.88
-135.60
-65.03
10.73
92.26
178.26
263.27
337.61
389.88
411.10
398.52
356.65
295.12
224.40
151.83
80.15
8.94
-62.35
-131.82
-194.82
-245.84
-281.16
-300.63
-307.36
-305.68
-298.85
-287.66
-270.57
-245.11
-209.69
-164.51
-111.50
-53.36
7.29
68.04
126.18
178.06
219.17
245.26
254.25
247.58
229.99
207.69
185.51
164.86
143.77
118.91
88.44
54.15
21.12
-4.47
-18.40
-20.32
-13.72
-3.94
4.48
9.69
12.81
16.71
24.13
35.99
50.69
64.43
72.54
71.08
58.46
36.10
8.02
-20.50
-44.73
-61.75
-70.82
-72.71
-68.69
-59.75
-46.60
-30.15
-12.04
5.55
20.47
31.46
38.64
43.23
46.69
49.88
52.64
53.95
52.61
48.05
40.75
32.22
24.33
18.55
15.26
13.77
12.76
11.07
8.26
4.75
1.47
-0.63
-0.99
0.43
3.29
6.83
10.02
11.57
10.29
5.42
-2.93
-13.77
-25.60
-36.97
-47.02
-55.56
-62.84
-69.08
-74.13
-77.56
-78.92
-78.15
-75.75
-72.69
-70.03
-68.55
-68.59
-69.89
-71.66
-72.80
-72.07
-68.40
-61.25
-50.89
-38.45
-25.73
-14.60
-6.45
-1.79
-0.16
-0.55
-1.92
-3.62
-5.58
-7.94
-10.78
-13.78
-16.23
-17.31
-16.41
-13.34
-8.31
-1.74
5.93
14.31
22.90
30.94
37.46
41.46
42.40
40.56
37.04
33.37
30.82
29.92
30.32
31.06
31.09
29.69
26.65
22.18
16.76
11.08
6.01
2.62
1.95
4.62
10.55
18.79
27.73
35.65
41.18
43.72
43.39
40.80
36.68
31.66
26.09
20.22
14.32
8.92
4.72
2.53
2.94
6.03
11.25
17.47
23.36
27.79
30.19
30.59
29.49
27.51
25.15
22.68
20.29
18.17
16.57
15.65
15.33
15.24
14.83
13.65
11.58
8.83
5.85
3.08
0.76
-1.14
-2.78
-4.33
-5.88
-7.38
-8.76
-9.98
-10.99
-11.69
-11.87
-11.31
-9.84
-7.55
-4.87
-2.40
-0.78
-0.38
-1.15
-2.74
-4.60
-6.29
-7.53
-8.20
-8.19
-7.34
-5.54
-2.90
0.11
2.78
4.30
4.14
2.21
-1.11
-5.12
-9.07
-12.36
-14.73
-16.31
-17.55
-19.00
-21.04
-23.66
-26.36
-28.43
-29.20
-28.50
-26.71
-24.55
-22.73
-21.54
-20.87
-20.25
-19.24
-17.59
-15.33
-12.68
-9.89
-7.22
-4.88
-3.07
-1.86
-1.23
-1.07
-1.23
-1.65
-2.17
-2.46
-1.96
0.02
3.90
9.48
15.76
21.31
24.75
25.50
23.95
21.40
19.36
18.94
20.36
22.96
25.51
26.80
26.18
23.87
20.89
18.73
18.60
20.91
24.97
29.22
31.86
31.68
28.53
23.33
17.61
12.79
9.70
8.36
8.25
8.77
9.53
10.40
11.38
12.32
12.93
12.94
12.32
11.38
10.60
10.33
10.53
10.92
11.28
11.82
13.23
16.30
21.29
27.64
34.05
39.09
41.78
41.90
39.78
35.91
30.72
24.71
18.65
13.47
9.76
7.11
4.01
-1.50
-10.63
-22.85
-35.94
-47.18
-54.86
-59.37
-62.79
-67.56
-74.82
-83.78
-92.13
-97.42
-98.21
-94.45
-86.96
-76.64
-64.07
-49.60
-33.85
-17.97
-3.43
8.63
18.02
25.59
32.85
41.33
51.85
64.10
76.49
86.08
89.05
81.31
59.78
23.75
-24.16
-78.10
-130.35
-173.41
-202.01
-214.17
-210.90
-194.90
-169.08
-135.89
-97.53
-56.55
-16.38
19.17
46.78
64.69
72.98
73.06
66.70
55.28
39.97
22.32
4.96
-8.77
-16.03
-16.15
-11.50
-6.83
-7.30
-16.17
-33.38
-55.67
-78.00
-95.22
-103.39
-100.20
-85.23
-60.12
-28.70
3.15
28.69
42.22
41.13
26.99
5.30
-16.27
-30.29
-31.76
-19.61
3.05
29.85
53.01
65.67
64.05
48.54
23.32
-5.33
-31.31
-50.36
-60.49
-61.20
-52.72
-35.68
-11.78
15.53
41.07
59.20
65.86
60.34
45.55
26.86
10.04
-0.59
-3.06
2.32
13.48
27.28
39.99
47.95
48.49
40.83
26.48
8.81
-8.16
-21.11
-28.25
-29.21
-24.38
-14.42
-0.33
16.15
32.13
43.98
48.46
44.07
31.82
14.99
-2.03
-15.26
-22.25
-22.49
-17.07
-7.94
2.71
12.90
21.01
26.09
27.97
27.42
25.88
24.89
25.51
27.91
31.39
34.89
37.71
39.84
41.96
44.92
49.15
54.26
59.20
62.75
64.17
63.58
61.92
60.52
60.74
63.63
69.84
79.29
90.57
100.54
104.61
98.05
78.04
45.46
5.27
-35.07
-68.38
-90.50
-101.43
-104.48
-103.89
-102.59
-101.12
-98.20
-92.19
-82.26
-68.74
-52.57
-34.61
-15.46
4.04
22.09
35.82
42.04
38.59
25.69
6.33
-14.60
-31.97
-42.25
-44.58
-40.65
-33.61
-26.65
-21.85
-19.79
-19.87
-20.95
-21.99
-22.41
-22.09
-21.18
-19.85
-18.27
-16.56
-14.85
-13.30
-11.91
-10.47
-8.51
-5.47
-1.05
4.57
10.65
16.14
20.04
21.74
21.21
18.93
15.73
12.52
10.08
8.87
8.99
10.03
11.23
11.67
10.57
7.61
3.08
-2.23
-7.37
-11.58
-14.56
-16.50
-17.82
-18.91
-19.88
-20.54
-20.51
-19.46
-17.19
-13.76
-9.35
-4.22
1.26
6.62
11.26
14.64
16.50
16.96
16.46
15.42
13.96
11.91
9.19
6.44
5.36
8.55
18.87
38.49
67.88
105.26
146.46
185.40
215.15
229.51
224.67
200.30
159.82
109.46
56.70
8.43
-30.41
-57.41
-72.52
-77.55
-75.38
-69.31
-62.47
-57.41
-55.85
-58.68
-65.98
-76.97
-90.05
-102.94
-113.07
-118.39
-118.01
-112.52
-103.65
-93.45
-83.50
-74.36
-65.83
-57.40
-48.89
-40.68
-33.49
-27.85
-23.65
-20.01
-15.57
-9.19
-0.51
9.77
20.08
28.65
34.19
36.39
35.89
33.96
31.84
30.32
29.51
29.02
28.33
27.07
25.19
23.00
20.95
19.48
18.84
19.05
19.87
20.85
21.51
21.50
20.64
18.97
16.68
13.97
11.07
8.23
5.82
4.34
4.22
5.66
8.47
12.03
15.51
18.15
19.52
19.66
18.90
17.68
16.35
15.02
13.67
12.22
10.68
9.19
7.94
7.14
6.93
7.29
8.05
8.96
9.67
9.91
9.54
8.59
7.24
5.79
4.53
3.66
3.24
3.21
3.43
3.75
4.04
4.20
4.19
3.94
3.43
2.64
1.57
0.32
-0.98
-2.20
-3.30
-4.37
-5.59
-7.06
-8.72
-10.26
-11.19
-11.14
-9.94
-7.73
-4.93
-1.96
0.82
3.23
5.19
6.68
7.64
8.03
7.82
7.05
5.80
4.26
2.64
1.16
0.01
-0.74
-1.10
-1.17
-1.02
-0.61
0.11
1.17
2.42
3.52
4.07
3.75
2.53
0.70
-1.24
-2.83
-3.82
-4.28
-4.48
-4.79
-5.45
-6.47
-7.65
-8.65
-9.21
-9.21
-8.80
-8.34
-8.26
-8.92
-10.43
-12.55
-14.73
-16.27
-16.61
-15.52
-13.23
-10.30
-7.41
-5.11
-3.61
-2.84
-2.46
-2.13
-1.58
-0.71
0.43
1.75
3.11
4.39
5.52
6.44
7.13
7.58
7.79
7.80
7.69
7.58
7.61
7.86
8.32
8.89
9.40
9.63
9.44
8.77
7.63
6.12
4.41
2.70
1.18
0.01
-0.77
-1.26
-1.58
-1.87
-2.13
-2.33
-2.46
-2.72
-3.46
-5.07
-7.67
-10.97
-14.24
-16.58
-17.32
-16.24
-13.71
-10.45
-7.26
-4.69
-2.95
-1.93
-1.30
-0.68
0.20
1.45
3.00
4.68
6.24
7.51
8.40
8.91
9.12
9.15
9.15
9.27
9.65
10.38
11.41
12.53
13.38
13.57
12.75
10.86
8.13
5.08
2.31
0.31
-0.78
-1.19
-1.43
-1.96
-2.99
-4.40
-5.79
-6.79
-7.28
-7.45
-7.71
-8.44
-9.78
-11.67
-13.87
-16.11
-18.13
-19.71
-20.53
-20.26
-18.66
-15.79
-12.04
-8.07
-4.63
-2.20
-0.91
-0.48
-0.45
-0.40
-0.07
0.60
1.60
2.87
4.45
6.27
8.21
9.96
11.18
11.59
11.13
9.99
8.54
7.19
6.30
6.04
6.38
7.08
7.79
8.11
7.81
6.85
5.47
3.99
2.67
1.61
0.70
-0.14
-0.91
-1.51
-1.85
-1.97
-2.11
-2.53
-3.36
-4.51
-5.77
-6.99
-8.18
-9.50
-11.09
-12.82
-14.33
-15.16
-14.96
-13.76
-11.85
-9.69
-7.70
-6.06
-4.77
-3.65
-2.55
-1.39
-0.21
0.82
1.54
1.84
1.75
1.48
1.29
1.44
2.02
2.95
3.99
4.90
5.49
5.76
5.82
5.84
5.97
6.26
6.64
6.98
7.19
7.27
7.30
7.38
7.44
7.33
6.80
5.68
4.02
2.09
0.29
-1.07
-1.85
-2.18
-2.38
-2.76
-3.57
-4.84
-6.37
-7.80
-8.76
-8.95
-8.28
-6.89
-5.01
-2.85
-0.54
1.83
4.17
6.24
7.80
8.67
8.90
8.73
8.47
8.32
8.25
8.13
7.78
7.16
6.34
5.48
4.68
4.01
3.50
3.17
3.02
3.05
3.21
3.42
3.59
3.66
3.62
3.43
3.07
2.51
1.72
0.75
-0.33
-1.41
-2.44
-3.45
-4.53
-5.75
-7.17
-8.76
-10.44
-12.12
-13.74
-15.21
-16.44
-17.30
-17.65
-17.35
-16.38
-14.80
-12.78
-10.47
-8.02
-5.49
-2.95
-0.45
1.88
3.86
5.40
6.49
7.23
7.79
8.26
8.66
8.83
8.60
7.87
6.66
5.15
3.65
2.42
1.67
1.47
1.79
2.49
3.38
4.20
4.71
4.71
4.12
3.01
1.58
0.05
-1.42
-2.77
-4.03
-5.28
-6.50
-7.64
-8.61
-9.43
-10.25
-11.36
-12.98
-15.12
-17.44
-19.38
-20.36
-20.03
-18.45
-15.99
-13.20
-10.51
-8.19
-6.25
-4.58
-3.05
-1.58
-0.16
1.17
2.31
3.18
3.73
3.98
4.06
4.19
4.61
5.49
6.84
8.49
10.12
11.41
12.10
12.14
11.67
10.94
10.26
9.88
9.86
10.05
10.12
9.66
8.40
6.36
3.86
1.39
-0.60
-1.90
-2.65
-3.23
-4.06
-5.40
-7.33
-9.69
-12.27
-14.83
-17.11
-18.85
-19.77
-19.59
-18.16
-15.57
-12.10
-8.26
-4.60
-1.57
0.58
1.90
2.59
2.97
3.24
3.54
3.93
4.47
5.23
6.26
7.52
8.85
10.09
11.16
12.11
13.13
14.31
15.64
16.86
17.64
17.71
17.02
15.76
14.23
12.75
11.49
10.45
9.51
8.52
7.36
6.00
4.50
2.90
1.26
-0.45
-2.25
-4.18
-6.26
-8.52
-10.97
-13.57
-16.15
-18.38
-19.88
-20.26
-19.30
-17.11
-14.05
-10.67
-7.52
-4.94
-3.02
-1.62
-0.46
0.71
2.01
3.40
4.69
5.69
6.29
6.55
6.67
6.85
7.21
7.69
8.15
8.40
8.44
8.35
8.33
8.52
8.92
9.42
9.80
9.88
9.53
8.76
7.65
6.34
4.94
3.53
2.18
0.93
-0.12
-0.92
-1.42
-1.75
-2.16
-2.97
-4.46
-6.75
-9.68
-12.89
-15.88
-18.21
-19.55
-19.72
-18.74
-16.77
-14.09
-11.04
-7.90
-4.85
-1.87
1.16
4.32
7.50
10.35
12.40
13.30
13.03
11.99
10.80
10.07
10.09
10.73
11.58
12.25
12.53
12.53
12.59
12.93
13.53
14.14
14.37
13.96
12.96
11.72
10.68
10.15
10.06
10.05
9.59
8.23
5.90
2.88
-0.33
-3.17
-5.25
-6.44
-6.87
-6.81
-6.66
-6.75
-7.30
-8.44
-10.20
-12.50
-15.18
-17.82
-19.72
-19.87
-16.98
-9.77
2.77
21.07
44.72
72.35
101.68
129.84
153.84
171.22
180.52
181.47
174.86
162.28
145.67
127.02
107.84
88.71
68.78
45.92
17.37
-18.82
-62.63
-111.39
-160.38
-204.31
-238.95
-262.16
-273.80
-274.91
-266.68
-249.95
-225.39
-194.08
-158.07
-120.37
-84.43
-53.28
-28.81
-11.34
0.13
7.32
11.94
15.13
17.31
18.41
18.30
17.10
15.23
13.22
11.42
9.92
8.56
7.23
5.99
5.19
5.28
6.59
9.13
12.56
16.38
20.08
23.31
25.95
28.03
29.60
30.71
31.42
31.85
32.18
32.56
33.02
33.42
33.50
33.04
32.04
30.70
29.28
27.90
26.45
24.61
22.13
19.06
15.78
12.89
10.91
10.01
9.93
10.06
9.78
8.72
6.87
4.57
2.31
0.48
-0.76
-1.53
-2.13
-2.89
-4.00
-5.54
-7.49
-9.75
-12.25
-14.84
-17.28
-19.25
-20.36
-20.36
-19.16
-16.95
-14.03
-10.78
-7.47
-4.28
-1.27
1.55
4.09
6.19
7.62
8.23
8.00
7.20
6.27
5.70
5.77
6.40
7.22
7.76
7.73
7.24
6.67
6.47
6.85
7.61
8.34
8.60
8.25
7.46
6.55
5.75
4.99
4.00
2.46
0.30
-2.23
-4.59
-6.19
-6.64
-5.92
-4.38
-2.71
-1.74
-2.26
-4.71
-8.94
-14.12
-18.90
-21.86
-22.05
-19.32
-14.33
-8.20
-2.06
3.37
7.82
11.30
13.89
15.57
16.33
16.25
15.65
14.98
14.66
14.89
15.63
16.65
17.63
18.30
18.50
18.15
17.29
16.02
14.47
12.81
11.26
9.99
9.14
8.75
8.66
8.60
8.21
7.22
5.59
3.46
1.14
-1.02
-2.84
-4.28
-5.45
-6.54
-7.68
-9.01
-10.65
-12.74
-15.41
-18.68
-22.34
-25.93
-28.81
-30.35
-30.18
-28.31
-25.06
-21.00
-16.68
-12.49
-8.63
-5.16
-2.08
0.59
2.85
4.72
6.28
7.60
8.75
9.71
10.45
10.94
11.29
11.67
12.25
13.07
14.04
14.96
15.64
16.04
16.25
16.42
16.58
16.63
16.31
15.41
13.91
12.04
10.16
8.56
7.33
6.35
5.33
4.08
2.54
0.81
-0.97
-2.70
-4.41
-6.22
-8.23
-10.56
-13.21
-16.11
-19.09
-21.85
-24.00
-25.16
-25.05
-23.65
-21.15
-17.93
-14.42
-10.89
-7.52
-4.34
-1.35
1.43
3.95
6.13
7.93
9.31
10.35
11.15
11.86
12.68
13.75
15.16
16.85
18.67
20.37
21.74
22.69
23.24
23.49
23.51
23.29
22.70
21.55
19.77
17.47
14.92
12.48
10.42
8.82
7.56
6.46
5.40
4.32
3.24
2.17
1.09
-0.08
-1.40
-2.84
-4.35
-5.89
-7.51
-9.39
-11.68
-14.33
-17.03
-19.17
-20.11
-19.39
-17.03
-13.45
-9.41
-5.57
-2.27
0.55
3.24
6.11
9.19
12.18
14.59
16.09
16.70
16.80
17.00
17.78
19.33
21.56
24.17
26.80
29.05
30.41
30.27
28.11
23.71
17.50
10.44
3.83
-1.18
-4.03
-4.85
-4.35
-3.45
-2.99
-3.54
-5.35
-8.41
-12.45
-16.91
-21.02
-23.96
-25.09
-24.18
-21.55
-17.99
-14.57
-12.34
-12.06
-14.04
-18.07
-23.46
-29.23
-34.28
-37.63
-38.71
-37.48
-34.43
-30.38
-26.20
-22.58
-19.79
-17.79
-16.32
-15.06
-13.78
-12.36
-10.77
-9.08
-7.35
-5.63
-3.93
-2.25
-0.59
1.00
2.46
3.77
4.96
6.17
7.49
8.96
10.42
11.58
12.12
11.88
10.87
9.31
7.58
6.06
5.07
4.72
4.91
5.28
5.35
4.69
3.10
0.73
-1.99
-4.49
-6.36
-7.47
-8.03
-8.47
-9.26
-10.70
-12.79
-15.25
-17.62
-19.33
-19.94
-19.23
-17.26
-14.34
-10.91
-7.41
-4.20
-1.41
0.96
3.05
4.99
6.86
8.58
10.00
10.92
11.30
11.19
10.77
10.22
9.64
9.05
8.52
8.18
8.22
8.80
9.93
11.36
12.70
13.58
13.79
13.45
12.84
12.33
12.13
12.18
12.19
11.76
10.60
8.67
6.28
3.93
2.10
1.03
0.56
0.28
-0.37
-1.77
-4.04
-7.04
-10.47
-13.95
-17.10
-19.55
-20.98
-21.23
-20.27
-18.30
-15.59
-12.48
-9.26
-6.13
-3.17
-0.39
2.24
4.77
7.15
9.28
10.98
12.05
12.47
12.34
11.92
11.46
11.12
10.90
10.70
10.43
10.11
9.87
9.92
10.33
11.05
11.82
12.34
12.32
11.69
10.52
9.10
7.69
6.41
5.23
3.92
2.26
0.17
-2.23
-4.59
-6.55
-7.90
-8.65
-9.09
-9.69
-10.84
-12.78
-15.41
-18.33
-20.95
-22.68
-23.12
-22.19
-20.02
-16.90
-13.12
-8.93
-4.55
-0.28
3.55
6.65
8.89
10.40
11.43
12.24
12.96
13.57
13.97
14.23
14.51
15.06
15.98
17.15
18.25
18.96
19.16
19.02
18.88
19.01
19.45
19.95
20.15
19.76
18.72
17.19
15.40
13.57
11.82
10.13
8.47
6.74
4.88
2.84
0.62
-1.69
-3.93
-5.91
-7.48
-8.66
-9.66
-10.78
-12.40
-14.73
-17.77
-21.22
-24.56
-27.12
-28.31
-27.81
-25.58
-21.97
-17.47
-12.66
-8.02
-3.84
-0.29
2.57
4.80
6.52
7.91
9.16
10.45
11.84
13.32
14.77
16.05
17.13
18.09
19.16
20.56
22.40
24.57
26.75
28.50
29.47
29.47
28.48
26.61
24.01
20.89
17.48
14.09
11.00
8.41
6.35
4.68
3.19
1.72
0.22
-1.21
-2.43
-3.35
-4.03
-4.77
-6.06
-8.52
-12.71
-18.84
-26.59
-35.04
-42.85
-48.76
-52.03
-52.64
-51.16
-48.33
-44.58
-39.91
-34.13
-27.34
-20.25
-14.10
-10.11
-8.85
-9.78
-11.45
-12.01
-10.12
-5.42
1.42
9.17
16.71
23.41
29.21
34.31
38.82
42.56
45.18
46.45
46.53
45.98
45.42
45.13
44.78
43.47
40.27
34.69
27.08
18.51
10.21
2.91
-3.57
-10.38
-19.00
-30.55
-45.06
-61.24
-76.80
-89.32
-97.13
-100.09
-99.76
-98.92
-100.68
-107.54
-120.56
-139.04
-160.46
-180.80
-195.03
-197.96
-185.40
-155.53
-109.95
-53.82
5.15
58.75
100.59
127.55
140.07
141.12
134.68
124.36
112.81
101.81
92.56
85.83
81.81
79.92
78.89
77.26
74.09
69.40
64.09
59.48
56.58
55.63
56.11
57.05
57.57
57.19
55.89
53.91
51.42
48.52
45.21
41.58
37.93
34.69
32.24
30.71
29.84
29.00
27.44
24.51
19.82
13.34
5.40
-3.42
-12.31
-20.40
-26.97
-31.68
-34.72
-36.76
-38.64
-40.94
-43.65
-46.19
-47.69
-47.46
-45.33
-41.74
-37.45
-33.25
-29.50
-26.07
-22.43
-17.98
-12.33
-5.45
2.32
10.41
18.21
25.24
31.20
36.03
39.77
42.50
44.20
44.68
43.65
40.77
35.73
28.43
18.93
7.59
-4.95
-17.76
-29.73
-39.75
-47.04
-51.41
-53.28
-53.51
-52.95
-52.05
-50.83
-48.95
-46.10
-42.23
-37.60
-32.52
-27.09
-21.20
-14.71
-7.74
-0.88
5.06
9.45
12.23
13.99
15.59
17.63
20.09
22.28
23.32
22.61
20.22
16.75
13.00
9.50
6.30
3.07
-0.54
-4.50
-8.30
-11.12
-12.21
-11.34
-8.92
-5.86
-3.21
-1.73
-1.63
-2.71
-4.57
-7.00
-10.08
-14.04
-19.00
-24.67
-30.31
-34.99
-37.98
-38.98
-38.22
-36.21
-33.52
-30.56
-27.53
-24.48
-21.43
-18.37
-15.26
-12.04
-8.62
-5.00
-1.23
2.53
6.12
9.44
12.48
15.27
17.86
20.20
22.20
23.66
24.41
24.35
23.52
22.09
20.35
18.57
17.01
15.82
15.09
14.84
15.00
15.39
15.68
15.51
14.59
12.82
10.28
7.13
3.53
-0.46
-4.83
-9.49
-14.19
-18.55
-22.23
-25.04
-27.04
-28.39
-29.20
-29.43
-28.79
-26.96
-23.72
-19.17
-13.74
-8.10
-2.96
1.25
4.49
7.08
9.56
12.31
15.36
18.33
20.59
21.67
21.44
20.23
18.64
17.29
16.56
16.58
17.31
18.69
20.68
23.30
26.43
29.77
32.83
35.12
36.31
36.42
35.79
34.92
34.24
34.00
34.26
34.90
35.78
36.69
37.45
37.82
37.69
37.22
36.92
37.59
39.91
44.09
49.49
54.77
58.10
57.70
52.30
41.42
25.45
5.69
-15.74
-36.12
-52.57
-62.77
-65.65
-61.98
-54.27
-46.05
-40.70
-40.30
-45.05
-53.34
-62.58
-70.16
-74.28
-74.26
-70.32
-63.20
-53.79
-42.97
-31.61
-20.56
-10.64
-2.55
3.29
6.76
8.00
7.32
4.98
1.07
-4.45
-11.56
-19.82
-28.13
-34.76
-37.77
-35.66
-27.99
-15.61
-0.34
15.62
30.41
42.88
52.56
59.36
63.19
63.88
61.44
56.41
49.93
43.62
39.08
37.30
38.46
42.00
47.01
52.59
57.91
61.92
63.27
60.37
52.08
38.40
20.95
2.59
-13.63
-25.43
-32.02
-33.91
-32.49
-29.33
-25.92
-23.66
-23.86
-27.70
-35.89
-48.35
-64.14
-81.61
-98.75
-113.59
-124.54
-130.46
-130.75
-125.29
-114.44
-99.19
-81.28
-63.39
-48.94
-41.54
-43.88
-56.59
-77.54
-101.96
-123.64
-136.64
-137.19
-124.81
-102.43
-75.30
-49.37
-29.44
-17.69
-13.41
-13.69
-14.90
-14.07
-9.68
-1.65
9.20
21.61
34.22
45.58
54.38
59.66
61.24
59.81
56.67
53.20
50.41
48.81
48.58
49.76
52.31
55.92
59.84
63.01
64.58
64.40
63.14
61.82
61.27
61.55
61.95
61.37
58.80
53.78
46.58
38.06
29.51
22.30
17.47
15.38
15.51
16.59
17.11
15.93
12.73
8.09
3.14
-1.08
-4.04
-5.81
-6.84
-7.55
-8.04
-8.15
-7.68
-6.64
-5.36
-4.38
-4.15
-4.80
-6.08
-7.50
-8.59
-9.08
-9.00
-8.55
-8.04
-7.70
-7.68
-7.96
-8.39
-8.70
-8.59
-7.89
-6.66
-5.32
-4.45
-4.58
-5.86
-7.98
-10.22
-11.82
-12.25
-11.52
-10.05
-8.51
-7.46
-7.20
-7.69
-8.74
-10.10
-11.53
-12.69
-13.13
-12.40
-10.36
-7.52
-5.04
-4.33
-6.31
-10.67
-15.75
-19.00
-18.11
-11.98
-1.26
12.00
25.33
36.78
45.53
51.81
56.33
59.76
62.38
64.23
65.36
66.10
66.93
68.11
69.28
69.40
67.05
61.11
51.45
39.17
26.33
15.22
7.47
3.56
2.85
4.17
6.49
9.35
12.84
17.17
22.23
27.38
31.77
34.72
36.14
36.51
36.42
36.03
34.79
31.71
26.11
18.34
10.02
3.62
1.51
5.11
14.43
28.36
45.28
63.59
81.90
98.92
113.39
124.27
131.21
134.64
135.47
134.14
129.96
121.08
105.34
81.57
50.58
15.18
-20.90
-54.62
-84.59
-111.21
-135.65
-158.53
-178.98
-194.81
-203.66
-204.31
-197.70
-186.82
-175.60
-167.34
-163.35
-162.56
-162.24
-159.53
-152.82
-142.26
-129.40
-115.95
-102.88
-90.19
-77.52
-65.00
-53.58
-44.66
-39.09
-36.43
-35.06
-32.94
-28.65
-21.85
-12.89
-2.08
11.01
27.40
48.15
73.66
103.43
136.20
170.30
203.78
234.26
258.91
274.85
279.83
273.04
255.45
229.45
198.03
163.89
128.67
92.74
55.30
14.71
-30.47
-80.26
-132.01
-179.91
-215.98
-232.49
-225.09
-195.26
-150.99
-104.87
-70.51
-58.32
-72.54
-110.41
-163.52
-220.71
-271.20
-306.99
-324.01
-322.12
-304.18
-274.78
-238.96
-201.39
-165.91
-135.40
-111.88
-96.39
-89.18
-89.62
-96.17
-106.58
-118.20
-128.40
-135.14
-137.17
-133.82
-124.83
-109.89
-88.51
-60.32
-25.29
16.12
62.99
113.88
166.60
217.86
263.15
297.35
316.08
317.31
302.31
275.36
242.18
207.90
175.63
146.32
119.80
95.81
74.79
57.45
44.16
34.32
26.62
19.80
13.45
8.28
5.73
7.05
12.42
20.54
29.07
35.47
37.96
36.13
31.11
25.11
20.65
19.74
23.04
29.52
36.64
41.24
40.78
34.40
23.32
10.27
-1.74
-10.66
-15.98
-18.37
-18.79
-17.83
-15.52
-11.93
-7.74
-4.44
-3.69
-6.52
-12.54
-19.88
-25.74
-27.27
-22.47
-10.86
6.34
26.42
45.90
61.60
71.62
75.73
75.15
71.61
66.43
60.06
52.36
43.27
33.48
24.39
17.50
13.65
12.59
13.14
13.87
13.79
12.54
10.36
7.72
4.93
2.17
-0.54
-3.13
-5.41
-7.11
-7.94
-7.73
-6.55
-4.82
-3.27
-2.86
-4.51
-8.77
-15.56
-24.02
-32.59
-39.36
-42.62
-41.44
-35.93
-27.20
-16.90
-6.67
2.40
9.88
15.98
21.13
25.68
29.75
33.16
35.65
37.00
37.13
36.17
34.36
32.03
29.52
27.09
24.85
22.81
21.01
19.53
18.55
18.21
18.45
19.03
19.54
19.57
18.85
17.32
15.08
12.34
9.35
6.33
3.52
1.12
-0.76
-2.10
-2.94
-3.31
-3.24
-2.77
-1.99
-1.09
-0.33
0.15
0.35
0.38
0.34
0.15
-0.40
-1.49
-3.11
-4.86
-6.17
-6.47
-5.53
-3.52
-0.94
1.62
3.68
5.02
5.67
5.87
5.90
5.98
6.22
6.57
6.83
6.76
6.14
4.92
3.15
1.03
-1.23
-3.48
-5.64
-7.59
-9.17
-10.10
-10.11
-9.00
-6.81
-3.83
-0.64
2.12
3.85
4.27
3.43
1.67
-0.51
-2.69
-4.63
-6.34
-7.92
-9.48
-10.92
-11.98
-12.36
-11.89
-10.69
-9.15
-7.76
-6.94
-6.75
-7.01
-7.39
-7.67
-7.90
-8.37
-9.44
-11.24
-13.51
-15.71
-17.25
-17.83
-17.54
-16.78
-15.97
-15.21
-14.30
-12.83
-10.53
-7.53
-4.33
-1.60
0.19
0.96
1.04
0.88
0.77
0.68
0.33
-0.59
-2.11
-3.99
-5.77
-7.06
-7.72
-7.89
-7.86
-7.89
-8.13
-8.49
-8.89
-9.28
-9.70
-10.26
-11.11
-12.30
-13.83
-15.59
-17.42
-19.17
-20.65
-21.75
-22.44
-22.78
-22.89
-22.84
-22.58
-21.91
-20.59
-18.46
-15.56
-12.17
-8.71
-5.58
-3.04
-1.13
0.29
1.40
2.39
3.33
4.19
4.83
5.07
4.75
3.89
2.67
1.38
0.37
-0.10
0.06
0.86
2.21
3.98
5.93
7.75
9.10
9.68
9.43
8.53
7.32
6.09
4.90
3.66
2.16
0.28
-1.87
-4.04
-5.89
-7.19
-7.76
-7.54
-6.48
-4.57
-1.91
1.27
4.60
7.71
10.34
12.38
13.89
14.96
15.61
15.79
15.40
14.45
13.08
11.61
10.38
9.64
9.42
9.60
9.95
10.33
10.68
11.03
11.45
11.86
12.03
11.61
10.26
7.87
4.64
1.14
-1.92
-3.98
-4.96
-5.34
-6.03
-7.94
-11.57
-16.69
-22.37
-27.33
-30.38
-30.86
-28.77
-24.72
-19.56
-14.12
-8.95
-4.36
-0.44
2.74
5.09
6.50
6.86
6.27
5.00
3.48
2.20
1.53
1.65
2.48
3.75
5.14
6.35
7.23
7.79
8.12
8.34
8.49
8.46
8.07
7.14
5.67
3.86
2.11
0.79
0.17
0.19
0.59
0.98
1.06
0.65
-0.28
-1.72
-3.69
-6.16
-8.94
-11.64
-13.64
-14.37
-13.44
-10.87
-7.01
-2.53
1.87
5.57
8.19
9.66
10.23
10.32
10.35
10.62
11.15
11.80
12.29
12.51
12.50
12.47
12.59
12.93
13.39
13.81
14.09
14.23
14.33
14.50
14.74
14.98
15.03
14.68
13.82
12.42
10.59
8.51
6.39
4.35
2.43
0.57
-1.27
-3.03
-4.60
-5.87
-6.89
-7.89
-9.16
-10.88
-12.87
-14.68
-15.68
-15.39
-13.73
-10.97
-7.63
-4.20
-1.00
1.88
4.43
6.62
8.33
9.43
9.88
9.79
9.46
9.20
9.28
9.82
10.71
11.69
12.49
12.89
12.86
12.60
12.35
12.37
12.69
13.19
13.60
13.66
13.25
12.39
11.19
9.75
8.10
6.25
4.19
2.03
-0.06
-1.92
-3.45
-4.67
-5.69
-6.68
-7.80
-9.22
-11.04
-13.28
-15.84
-18.37
-20.37
-21.30
-20.78
-18.78
-15.63
-11.94
-8.31
-5.18
-2.72
-0.82
0.66
1.85
2.78
3.36
3.51
3.25
2.73
2.22
1.99
2.21
2.85
3.72
4.52
5.01
5.12
4.90
4.56
4.29
4.20
4.35
4.71
5.21
5.77
6.28
6.63
6.71
6.54
6.24
5.94
5.79
5.77
5.81
5.75
5.46
4.87
4.00
2.88
1.59
0.21
-1.20
-2.52
-3.70
-4.68
-5.47
-6.11
-6.64
-7.14
-7.70
-8.48
-9.58
-11.05
-12.75
-14.31
-15.26
-15.20
-13.93
-11.53
-8.33
-4.71
-0.95
2.81
6.54
10.20
13.63
16.63
19.06
20.93
22.48
24.06
25.96
28.28
30.88
33.37
35.41
36.86
37.97
39.31
41.56
45.20
50.19
55.90
61.37
65.69
68.47
70.12
71.72
74.54
79.42
86.33
94.36
101.98
107.76
110.98
111.97
112.08
113.35
117.70
126.05
137.49
148.94
155.57
152.05
134.06
99.77
50.40
-9.98
-75.52
-139.96
-198.16
-246.84
-284.80
-312.23
-329.57
-336.51
-331.73
-313.31
-279.70
-230.93
-169.32
-99.78
-29.17
34.95
85.80
118.93
132.89
129.21
111.26
82.78
46.64
4.54
-42.09
-90.95
-138.23
-179.13
-209.61
-227.77
-234.37
-231.96
-223.17
-209.33
-190.18
-164.63
-132.24
-94.45
-54.76
-17.79
12.26
33.00
44.48
48.72
48.58
46.47
43.61
40.02
35.25
29.25
22.84
17.51
14.76
15.21
18.22
22.16
25.18
26.05
24.65
21.99
19.53
18.48
19.28
21.56
24.50
27.39
29.88
32.08
34.30
36.70
39.20
41.45
43.07
43.78
43.49
42.34
40.57
38.44
36.21
34.05
32.18
30.76
29.92
29.68
29.92
30.36
30.63
30.40
29.49
27.94
25.99
23.90
21.89
19.97
18.04
15.95
13.59
10.98
8.17
5.14
1.86
-1.73
-5.58
-9.39
-12.64
-14.72
-15.15
-13.82
-11.12
-7.77
-4.59
-2.13
-0.43
0.85
2.22
3.99
6.06
7.99
9.26
9.67
9.44
9.13
9.33
10.32
11.98
13.86
15.44
16.37
16.52
15.97
14.89
13.46
11.87
10.25
8.71
7.27
5.93
4.73
3.77
3.26
3.29
3.73
4.19
4.07
2.92
0.64
-2.45
-5.70
-8.56
-10.77
-12.53
-14.30
-16.49
-19.23
-22.23
-24.92
-26.71
-27.17
-26.26
-24.22
-21.47
-18.40
-15.20
-11.88
-8.35
-4.58
-0.66
3.12
6.46
9.17
11.23
12.77
13.99
15.00
15.82
16.41
16.75
16.88
16.89
16.84
16.68
16.30
15.62
14.63
13.51
12.46
11.65
11.05
10.48
9.67
8.45
6.78
4.77
2.60
0.46
-1.55
-3.32
-4.78
-5.77
-6.21
-6.12
-5.76
-5.56
-6.05
-7.64
-10.42
-14.11
-18.08
-21.62
-24.09
-25.13
-24.68
-22.93
-20.17
-16.74
-12.90
-8.88
-4.83
-0.90
2.81
6.14
8.96
11.17
12.78
13.86
14.59
15.09
15.41
15.50
15.32
14.89
14.39
14.04
14.04
14.45
15.11
15.74
16.08
15.93
15.24
14.13
12.76
11.34
10.03
8.92
7.99
7.10
6.07
4.75
3.07
1.10
-0.96
-2.85
-4.38
-5.52
-6.39
-7.34
-8.72
-10.86
-13.81
-17.36
-20.96
-23.93
-25.59
-25.51
-23.54
-19.91
-15.11
-9.82
-4.67
-0.24
3.17
5.49
6.86
7.56
7.88
8.00
8.05
8.03
7.97
7.94
8.05
8.36
8.92
9.65
10.48
11.35
12.30
13.38
14.57
15.72
16.56
16.78
16.20
14.86
13.01
10.99
9.10
7.49
6.17
5.03
3.96
2.88
1.70
0.36
-1.17
-2.89
-4.76
-6.77
-8.91
-11.20
-13.60
-15.95
-17.95
-19.26
-19.59
-18.82
-17.06
-14.53
-11.48
-8.11
-4.52
-0.86
2.70
5.88
8.41
10.06
10.75
10.60
9.88
8.88
7.86
6.94
6.18
5.61
5.29
5.35
5.87
6.82
7.99
9.10
9.89
10.25
10.23
9.98
9.62
9.17
8.51
7.45
5.87
3.78
1.33
-1.23
-3.61
-5.65
-7.29
-8.64
-9.93
-11.43
-13.35
-15.85
-18.89
-22.25
-25.53
-28.24
-29.86
-29.99
-28.46
-25.38
-21.10
-16.14
-11.06
-6.34
-2.28
0.98
3.51
5.46
7.03
8.32
9.36
10.13
10.57
10.72
10.68
10.63
10.71
11.00
11.49
12.13
12.82
13.46
13.97
14.25
14.22
13.80
12.98
11.83
10.44
8.97
7.48
6.04
4.58
3.05
1.32
-0.67
-2.89
-5.28
-7.68
-10.00
-12.24
-14.49
-16.95
-19.75
-22.81
-25.86
-28.40
-29.92
-29.98
-28.42
-25.31
-20.93
-15.69
-10.09
-4.60
0.33
4.40
7.43
9.45
10.60
11.15
11.39
11.60
11.94
12.48
13.23
14.12
15.04
15.92
16.70
17.31
17.73
17.93
17.90
17.69
17.31
16.73
15.86
14.57
12.76
10.47
7.85
5.12
2.41
-0.21
-2.74
-5.17
-7.39
-9.23
-10.56
-11.37
-11.92
-12.64
-13.98
-16.24
-19.38
-22.93
-26.15
-28.22
-28.56
-27.01
-23.84
-19.59
-14.85
-10.05
-5.40
-1.01
3.04
6.54
9.31
11.20
12.27
12.72
12.89
13.09
13.54
14.33
15.36
16.49
17.52
18.36
18.97
19.46
19.96
20.53
21.09
21.42
21.23
20.34
18.77
16.75
14.57
12.48
10.53
8.63
6.61
4.37
1.94
-0.54
-2.92
-5.08
-7.02
-8.78
-10.45
-12.16
-14.09
-16.39
-19.12
-22.22
-25.34
-27.96
-29.53
-29.59
-27.99
-24.83
-20.45
-15.29
-9.74
-4.19
1.06
5.76
9.73
12.87
15.14
16.49
16.86
16.25
14.82
12.92
11.09
9.85
9.50
9.98
10.96
12.05
13.02
13.88
14.78
15.80
16.78
17.43
17.42
16.66
15.32
13.76
12.34
11.27
10.45
9.57
8.28
6.33
3.72
0.71
-2.32
-5.02
-7.20
-8.93
-10.41
-11.91
-13.62
-15.66
-18.07
-20.85
-23.92
-27.05
-29.77
-31.47
-31.63
-29.99
-26.68
-22.24
-17.30
-12.48
-8.13
-4.34
-1.01
1.96
4.65
7.02
8.93
10.30
11.11
11.47
11.57
11.66
11.95
12.55
13.48
14.63
15.87
17.04
18.00
18.69
19.07
19.13
18.84
18.23
17.28
16.05
14.67
13.29
12.03
10.89
9.73
8.29
6.38
3.99
1.36
-1.15
-3.18
-4.56
-5.36
-5.88
-6.47
-7.46
-9.05
-11.31
-14.16
-17.40
-20.65
-23.41
-25.12
-25.30
-23.74
-20.54
-16.13
-11.07
-5.97
-1.26
2.76
5.99
8.36
9.86
10.49
10.35
9.66
8.74
7.95
7.54
7.59
8.00
8.59
9.23
9.86
10.56
11.37
12.30
13.22
13.98
14.43
14.51
14.22
13.65
12.86
11.90
10.77
9.45
7.94
6.23
4.29
2.13
-0.21
-2.66
-5.09
-7.32
-9.25
-10.86
-12.29
-13.81
-15.70
-18.13
-20.95
-23.73
-25.83
-26.64
-25.82
-23.39
-19.72
-15.32
-10.67
-6.09
-1.77
2.15
5.52
8.17
9.94
10.81
10.94
10.61
10.12
9.68
9.40
9.31
9.43
9.82
10.48
11.40
12.41
13.34
13.96
14.17
13.95
13.39
12.59
11.62
10.50
9.20
7.65
5.81
3.70
1.37
-1.10
-3.59
-6.01
-8.24
-10.26
-11.99
-13.45
-14.70
-15.90
-17.31
-19.16
-21.57
-24.40
-27.21
-29.37
-30.30
-29.62
-27.31
-23.69
-19.25
-14.53
-9.92
-5.67
-1.88
1.39
4.10
6.20
7.64
8.45
8.73
8.68
8.50
8.38
8.44
8.73
9.25
9.95
10.80
11.70
12.60
13.40
14.05
14.50
14.67
14.47
13.82
12.71
11.18
9.38
7.42
5.37
3.24
0.99
-1.35
-3.69
-5.93
-8.00
-9.85
-11.54
-13.16
-14.84
-16.73
-18.94
-21.58
-24.57
-27.65
-30.36
-32.11
-32.42
-31.05
-28.07
-23.81
-18.77
-13.45
-8.31
-3.66
0.33
3.59
6.17
8.14
9.60
10.63
11.33
11.81
12.16
12.52
12.99
13.64
14.40
15.17
15.80
16.20
16.39
16.51
16.72
17.12
17.61
17.94
17.80
16.98
15.49
13.58
11.56
9.67
7.98
6.39
4.72
2.85
0.75
-1.49
-3.79
-6.09
-8.36
-10.65
-12.99
-15.44
-18.03
-20.76
-23.55
-26.19
-28.38
-29.76
-30.05
-29.03
-26.68
-23.14
-18.69
-13.70
-8.62
-3.82
0.38
3.87
6.64
8.81
10.50
11.78
12.63
13.05
13.09
12.89
12.66
12.59
12.80
13.28
13.94
14.66
15.32
15.86
16.26
16.52
16.66
16.61
16.24
15.39
13.97
12.05
9.88
7.82
6.14
4.93
4.05
3.25
2.29
1.10
-0.29
-1.76
-3.24
-4.75
-6.37
-8.24
-10.46
-13.13
-16.22
-19.64
-23.10
-26.19
-28.44
-29.42
-28.91
-26.90
-23.59
-19.30
-14.38
-9.18
-4.04
0.69
4.72
7.82
9.93
11.11
11.56
11.53
11.30
11.10
11.10
11.44
12.17
13.26
14.55
15.81
16.79
17.36
17.52
17.44
17.28
17.12
16.87
16.39
15.51
14.19
12.52
10.66
8.80
7.08
5.54
4.15
2.74
1.19
-0.61
-2.63
-4.72
-6.66
-8.25
-9.45
-10.41
-11.40
-12.73
-14.56
-16.88
-19.47
-21.96
-23.96
-25.16
-25.37
-24.54
-22.78
-20.22
-17.04
-13.41
-9.54
-5.69
-2.13
0.94
3.42
5.39
6.96
8.24
9.21
9.84
10.10
10.07
10.01
10.18
10.80
11.86
13.20
14.52
15.51
16.00
15.94
15.49
14.82
14.14
13.53
12.98
12.41
11.73
10.87
9.86
8.72
7.49
6.16
4.71
3.09
1.31
-0.52
-2.24
-3.69
-4.75
-5.53
-6.27
-7.31
-8.93
-11.22
-14.02
-16.89
-19.34
-20.84
-21.09
-20.04
-17.86
-14.88
-11.42
-7.82
-4.29
-1.00
1.95
4.44
6.39
7.75
8.51
8.75
8.60
8.22
7.76
7.36
7.09
7.01
7.15
7.54
8.18
9.06
10.07
11.06
11.81
12.11
11.82
10.89
9.44
7.64
5.77
4.08
2.74
1.74
0.95
0.09
-1.08
-2.68
-4.61
-6.60
-8.34
-9.62
-10.48
-11.16
-11.98
-13.25
-15.13
-17.64
-20.67
-23.97
-27.19
-29.85
-31.41
-31.41
-29.71
-26.48
-22.22
-17.56
-13.09
-9.17
-5.93
-3.31
-1.21
0.45
1.73
2.66
3.29
3.68
3.90
4.02
4.08
4.18
4.43
4.96
5.89
7.29
9.14
11.31
13.63
15.82
17.62
18.85
19.51
19.87
20.45
21.74
24.01
27.05
30.20
32.61
33.64
33.08
31.14
28.13
24.07
18.66
11.41
2.10
-8.93
-20.79
-32.34
-42.61
-51.03
-57.41
-61.70
-63.81
-63.54
-60.75
-55.59
-48.56
-40.45
-32.07
-24.08
-16.81
-10.32
-4.54
0.67
5.32
9.37
12.66
15.07
16.62
17.45
17.83
18.07
18.38
18.76
19.10
19.23
19.09
18.74
18.38
18.18
18.19
18.28
18.19
17.67
16.58
14.98
13.10
11.22
9.52
8.02
6.56
4.90
2.90
0.58
-1.86
-4.09
-5.82
-7.03
-7.88
-8.75
-9.98
-11.81
-14.22
-17.07
-20.14
-23.24
-26.16
-28.64
-30.31
-30.77
-29.68
-26.98
-22.93
-18.08
-13.06
-8.42
-4.46
-1.28
1.19
3.04
4.34
5.19
5.70
6.02
6.35
6.84
7.54
8.41
9.36
10.30
11.19
12.10
13.11
14.29
15.64
16.99
18.05
18.46
17.91
16.30
13.80
10.80
7.85
5.39
3.64
2.49
1.64
0.77
-0.32
-1.60
-2.90
-4.02
-4.85
-5.48
-6.10
-6.94
-8.21
-10.00
-12.36
-15.21
-18.41
-21.69
-24.68
-26.92
-27.95
-27.42
-25.19
-21.40
-16.45
-10.93
-5.47
-0.53
3.67
7.15
10.10
12.65
14.83
16.54
17.61
18.02
17.86
17.33
16.63
15.90
15.17
14.49
13.94
13.70
13.94
14.65
15.60
16.34
16.40
15.39
13.26
10.24
6.83
3.51
0.67
-1.60
-3.47
-5.33
-7.54
-10.33
-13.64
-17.18
-20.55
-23.44
-25.76
-27.63
-29.25
-30.80
-32.34
-33.81
-35.07
-35.91
-36.08
-35.28
-33.20
-29.61
-24.52
-18.22
-11.26
-4.24
2.31
8.14
13.20
17.55
21.27
24.31
26.60
28.01
28.55
28.34
27.63
26.73
25.93
25.41
25.26
25.42
25.80
26.26
26.65
26.81
26.59
25.87
24.53
22.54
19.95
16.87
13.52
10.21
7.21
4.83
3.22
2.41
2.28
2.55
2.92
3.11
3.00
2.56
1.85
0.89
-0.43
-2.30
-4.90
-8.27
-12.22
-16.24
-19.75
-22.10
-22.88
-21.90
-19.24
-15.16
-10.03
-4.28
1.63
7.26
12.15
15.96
18.48
19.74
20.02
19.78
19.49
19.51
19.94
20.67
21.44
21.99
22.15
21.92
21.41
20.77
20.11
19.46
18.79
18.03
17.12
16.06
14.88
13.60
12.25
10.83
9.37
7.94
6.64
5.58
4.73
4.00
3.23
2.29
1.14
-0.15
-1.48
-2.85
-4.35
-6.11
-8.16
-10.37
-12.39
-13.78
-14.17
-13.35
-11.37
-8.45
-4.93
-1.19
2.37
5.40
7.51
8.43
8.02
6.31
3.57
0.11
-3.81
-8.06
-12.62
-17.47
-22.46
-27.21
-31.20
-33.95
-35.23
-35.14
-34.05
-32.43
-30.62
-28.83
-27.11
-25.55
-24.26
-23.40
-23.01
-22.98
-23.05
-22.96
-22.57
-21.87
-20.99
-20.04
-19.08
-18.16
-17.43
-17.13
-17.53
-18.69
-20.31
-21.71
-22.03
-20.53
-16.78
-10.78
-2.93
6.15
15.66
24.86
33.03
39.65
44.44
47.42
48.93
49.41
49.31
48.88
48.11
46.87
45.06
42.74
40.15
37.67
35.65
34.37
34.00
34.59
36.06
38.24
40.82
43.43
45.73
47.56
48.94
50.02
50.97
51.88
52.80
53.79
54.97
56.48
58.27
60.10
61.59
62.45
62.82
63.21
64.17
65.74
67.09
66.51
61.98
51.85
35.41
12.99
-14.25
-44.70
-76.59
-108.19
-137.84
-164.14
-186.16
-203.67
-217.11
-227.42
-235.68
-242.55
-247.97
-250.92
-249.65
-242.15
-226.92
-203.59
-173.20
-137.90
-100.25
-62.75
-27.63
3.01
27.10
42.91
49.75
48.64
42.35
34.56
28.54
25.98
26.63
28.91
31.00
31.58
30.17
26.75
21.55
14.99
8.06
2.47
0.37
3.48
12.18
25.01
39.06
51.13
58.90
61.60
59.84
54.79
47.34
37.88
26.59
14.12
1.99
-7.69
-12.92
-12.64
-6.97
2.93
15.44
28.95
42.04
53.54
62.47
68.12
70.33
69.53
66.53
62.10
56.61
50.00
42.08
33.02
23.56
14.82
7.78
2.85
-0.21
-1.97
-2.84
-2.88
-1.88
0.14
2.61
4.30
3.66
-0.65
-9.21
-21.57
-36.19
-50.64
-62.03
-67.53
-65.23
-54.79
-37.76
-17.25
3.22
20.98
35.19
46.86
57.86
69.58
81.74
92.30
98.29
97.41
89.29
76.01
61.40
49.47
42.69
40.85
41.01
38.80
30.31
13.94
-8.69
-33.36
-54.47
-66.67
-65.74
-49.11
-16.27
30.64
86.10
141.38
186.08
211.05
211.41
188.30
148.10
99.45
49.73
2.73
-41.11
-82.68
-121.66
-155.40
-179.86
-191.83
-190.94
-180.15
-164.39
-148.21
-134.02
-121.48
-108.76
-94.24
-77.88
-61.24
-46.28
-33.95
-23.47
-12.68
0.60
17.26
36.32
55.26
71.14
81.75
86.39
85.82
81.76
76.11
70.31
65.09
60.57
56.54
52.79
49.34
46.45
44.55
43.99
44.91
47.12
50.23
53.69
56.93
59.43
60.66
60.16
57.53
52.63
45.70
37.39
28.66
20.42
13.23
7.09
1.60
-3.74
-9.06
-13.96
-17.59
-18.96
-17.34
-12.55
-4.95
4.70
15.42
26.14
35.64
42.54
45.42
43.09
35.05
21.80
4.97
-13.07
-29.79
-43.21
-52.40
-57.50
-59.47
-59.53
-58.78
-57.94
-57.31
-56.90
-56.52
-55.81
-54.35
-51.71
-47.74
-42.75
-37.65
-33.78
-32.58
-35.01
-41.13
-49.95
-59.54
-67.61
-72.21
-72.36
-68.35
-61.46
-53.36
-45.32
-37.78
-30.37
-22.42
-13.53
-3.96
5.56
14.24
21.70
28.08
33.88
39.51
45.03
50.03
53.91
56.02
55.94
53.55
49.04
42.89
35.80
28.59
22.06
16.94
13.77
13.03
15.00
19.70
26.68
34.87
42.75
48.85
52.26
53.03
52.18
51.15
51.11
52.50
54.94
57.45
58.85
57.96
53.58
44.61
30.20
10.22
-14.54
-42.60
-72.40
-103.06
-134.81
-168.72
-205.78
-245.78
-286.45
-323.21
-350.16
-361.44
-352.78
-322.72
-272.64
-205.94
-126.71
-38.87
53.57
145.40
229.50
297.55
342.39
361.00
356.32
336.23
310.15
284.75
261.35
236.41
204.76
163.43
113.99
61.84
13.43
-26.82
-57.88
-81.21
-98.59
-110.44
-115.76
-113.28
-103.38
-88.98
-74.85
-65.90
-65.41
-74.04
-90.03
-110.10
-130.42
-147.55
-159.02
-163.71
-162.05
-155.62
-146.26
-135.12
-122.17
-106.50
-87.40
-65.31
-42.01
-20.03
-1.40
13.22
24.73
34.87
45.27
56.65
68.58
79.78
88.73
94.17
95.58
93.35
88.67
83.23
78.63
75.87
75.05
75.50
76.24
76.52
76.14
75.46
74.95
74.72
74.36
73.11
70.33
65.95
60.52
54.93
49.90
45.64
41.88
38.12
33.99
29.35
24.29
18.95
13.51
8.26
3.72
0.46
-1.19
-1.47
-1.27
-1.80
-3.98
-7.97
-13.12
-18.41
-23.11
-27.21
-31.39
-36.51
-42.99
-50.46
-57.78
-63.50
-66.44
-66.13
-62.93
-57.78
-51.93
-46.39
-41.74
-38.01
-34.90
-32.05
-29.36
-27.07
-25.58
-25.26
-26.05
-27.47
-28.82
-29.50
-29.33
-28.63
-28.02
-28.05
-28.95
-30.49
-32.19
-33.54
-34.13
-33.75
-32.27
-29.65
-25.86
-20.98
-15.21
-8.90
-2.47
3.69
9.24
13.97
17.71
20.44
22.21
23.24
23.79
24.16
24.56
25.10
25.78
26.52
27.25
27.92
28.47
28.87
29.06
28.99
28.65
28.06
27.31
26.48
25.65
24.84
23.96
22.89
21.50
19.63
17.13
13.86
9.78
4.95
-0.36
-5.82
-11.05
-15.78
-19.92
-23.49
-26.56
-29.08
-30.92
-31.78
-31.34
-29.42
-26.09
-21.62
-16.51
-11.29
-6.41
-2.13
1.46
4.41
6.76
8.43
9.25
9.06
7.82
5.74
3.28
0.96
-0.72
-1.50
-1.38
-0.54
0.76
2.34
4.09
5.89
7.60
8.98
9.80
9.89
9.27
8.11
6.68
5.25
4.00
2.94
2.01
1.00
-0.25
-1.85
-3.84
-6.17
-8.73
-11.45
-14.28
-17.21
-20.17
-22.97
-25.22
-26.42
-26.09
-24.02
-20.32
-15.48
-10.14
-4.96
-0.42
3.27
6.10
8.20
9.74
10.86
11.67
12.23
12.60
12.84
13.04
13.28
13.60
13.99
14.40
14.78
15.07
15.28
15.44
15.55
15.54
15.30
14.67
13.57
12.04
10.22
8.29
6.41
4.63
2.93
1.21
-0.58
-2.43
-4.32
-6.16
-7.92
-9.65
-11.44
-13.37
-15.45
-17.49
-19.15
-19.94
-19.50
-17.63
-14.45
-10.33
-5.78
-1.30
2.78
6.23
8.98
11.00
12.29
12.92
13.04
12.86
12.63
12.54
12.66
12.97
13.36
13.72
13.96
14.02
13.88
13.55
13.13
12.72
12.45
12.37
12.38
12.23
11.64
10.44
8.70
6.70
4.83
3.34
2.25
1.31
0.21
-1.25
-3.08
-5.07
-7.07
-9.05
-11.13
-13.48
-16.11
-18.72
-20.79
-21.73
-21.13
-18.92
-15.41
-11.16
-6.74
-2.63
0.90
3.83
6.29
8.43
10.36
12.04
13.37
14.17
14.38
14.06
13.43
12.73
12.22
11.98
11.95
11.98
11.93
11.75
11.48
11.21
10.98
10.77
10.46
9.91
9.04
7.84
6.40
4.83
3.28
1.78
0.30
-1.20
-2.77
-4.37
-5.96
-7.50
-9.06
-10.70
-12.49
-14.39
-16.17
-17.51
-18.03
-17.42
-15.51
-12.37
-8.23
-3.53
1.23
5.55
9.05
11.54
12.96
13.41
13.04
12.05
10.70
9.29
8.14
7.53
7.55
8.12
8.98
9.76
10.20
10.18
9.80
9.22
8.59
7.95
7.22
6.24
4.89
3.20
1.26
-0.75
-2.69
-4.48
-6.11
-7.63
-9.10
-10.65
-12.39
-14.44
-16.79
-19.28
-21.56
-23.19
-23.76
-23.04
-21.02
-17.89
-13.98
-9.68
-5.41
-1.51
1.73
4.23
6.06
7.35
8.28
8.85
9.03
8.80
8.26
7.66
7.29
7.34
7.81
8.51
9.17
9.60
9.70
9.53
9.19
8.78
8.34
7.84
7.20
6.33
5.12
3.52
1.59
-0.54
-2.69
-4.72
-6.56
-8.20
-9.68
-11.07
-12.46
-13.99
-15.77
-17.87
-20.19
-22.42
-24.06
-24.63
-23.77
-21.44
-17.90
-13.60
-9.06
-4.68
-0.71
2.73
5.61
7.87
9.46
10.33
10.54
10.22
9.64
9.05
8.65
8.56
8.72
9.04
9.40
9.68
9.84
9.86
9.73
9.44
8.94
8.19
7.13
5.73
4.01
2.04
-0.08
-2.18
-4.11
-5.71
-6.87
-7.52
-7.74
-7.66
-7.51
-7.53
-7.90
-8.73
-10.05
-11.76
-13.66
-15.41
-16.57
-16.71
-15.56
-13.11
-9.70
-5.84
-2.09
1.14
3.74
5.83
7.67
9.45
11.21
12.77
13.85
14.19
13.68
12.46
10.91
9.44
8.39
7.88
7.80
7.93
8.11
8.30
8.55
8.90
9.27
9.44
9.21
8.43
7.17
5.60
3.94
2.26
0.53
-1.39
-3.58
-5.99
-8.39
-10.45
-11.95
-12.86
-13.36
-13.78
-14.42
-15.44
-16.86
-18.54
-20.28
-21.83
-22.90
-23.18
-22.43
-20.56
-17.71
-14.24
-10.61
-7.19
-4.15
-1.44
1.16
3.86
6.74
9.72
12.58
15.05
16.97
18.33
19.36
20.35
21.56
23.03
24.58
25.91
26.81
27.27
27.51
27.83
28.40
29.20
30.14
31.25
32.80
35.16
38.50
42.49
46.26
48.65
48.73
46.12
41.06
34.08
25.64
15.98
5.26
-6.17
-17.53
-27.74
-35.83
-41.30
-44.37
-45.77
-46.39
-46.84
-47.26
-47.35
-46.60
-44.61
-41.26
-36.79
-31.68
-26.44
-21.45
-16.89
-12.75
-8.92
-5.36
-2.18
0.40
2.18
3.06
3.18
2.87
2.56
2.56
2.99
3.78
4.73
5.68
6.52
7.26
7.93
8.58
9.19
9.77
10.29
10.72
11.00
11.01
10.67
9.98
9.09
8.24
7.64
7.36
7.21
6.87
6.07
4.70
2.95
1.16
-0.29
-1.25
-1.75
-2.05
-2.49
-3.37
-4.86
-6.96
-9.47
-12.04
-14.25
-15.65
-15.98
-15.11
-13.09
-10.13
-6.49
-2.51
1.44
4.98
7.78
9.66
10.59
10.73
10.29
9.45
8.35
7.07
5.80
4.78
4.30
4.53
5.49
6.96
8.63
10.20
11.48
12.40
12.93
13.07
12.77
12.02
10.91
9.62
8.37
7.30
6.34
5.32
3.99
2.23
0.11
-2.13
-4.22
-6.02
-7.54
-8.91
-10.26
-11.66
-13.14
-14.68
-16.37
-18.28
-20.42
-22.62
-24.50
-25.59
-25.50
-24.07
-21.45
-17.97
-14.09
-10.24
-6.75
-3.86
-1.61
0.09
1.48
2.78
4.12
5.45
6.60
7.39
7.80
7.93
8.03
8.31
8.87
9.68
10.60
11.47
12.14
12.52
12.56
12.27
11.72
11.01
10.24
9.44
8.64
7.76
6.70
5.36
3.69
1.75
-0.34
-2.35
-4.08
-5.43
-6.44
-7.30
-8.24
-9.43
-10.95
-12.78
-14.90
-17.32
-19.97
-22.73
-25.25
-27.05
-27.68
-26.84
-24.56
-21.21
-17.34
-13.46
-9.94
-6.86
-4.18
-1.76
0.50
2.57
4.33
5.64
6.41
6.73
6.82
6.98
7.42
8.21
9.22
10.21
11.01
11.59
12.11
12.79
13.75
14.98
16.21
17.11
17.35
16.78
15.47
13.66
11.70
9.84
8.22
6.78
5.38
3.89
2.32
0.78
-0.55
-1.61
-2.46
-3.29
-4.32
-5.72
-7.55
-9.81
-12.46
-15.42
-18.51
-21.42
-23.66
-24.77
-24.39
-22.45
-19.22
-15.19
-10.90
-6.79
-3.09
0.12
2.91
5.30
7.27
8.74
9.67
10.09
10.20
10.25
10.47
10.90
11.42
11.83
11.99
11.92
11.84
12.01
12.63
13.69
14.98
16.17
16.93
17.00
16.26
14.73
12.60
10.17
7.80
5.81
4.33
3.30
2.48
1.59
0.41
-1.09
-2.80
-4.54
-6.17
-7.63
-8.98
-10.31
-11.80
-13.58
-15.77
-18.30
-20.95
-23.29
-24.83
-25.21
-24.25
-22.09
-19.07
-15.56
-11.88
-8.21
-4.59
-1.10
2.16
4.99
7.21
8.68
9.46
9.70
9.67
9.60
9.71
10.11
10.78
11.64
12.55
13.38
14.04
14.50
14.79
14.94
14.94
14.73
14.20
13.31
12.10
10.77
9.51
8.48
7.69
6.99
6.15
4.97
3.40
1.57
-0.32
-2.04
-3.49
-4.71
-5.80
-6.89
-8.05
-9.33
-10.74
-12.35
-14.25
-16.45
-18.76
-20.83
-22.20
-22.49
-21.55
-19.51
-16.67
-13.41
-9.98
-6.54
-3.16
0.04
2.87
5.10
6.56
7.19
7.15
6.73
6.31
6.17
6.46
7.08
7.81
8.40
8.74
8.88
9.06
9.48
10.23
11.19
12.13
12.77
13.03
12.98
12.81
12.63
12.42
12.01
11.21
9.96
8.37
6.67
5.09
3.75
2.59
1.49
0.32
-0.95
-2.29
-3.69
-5.22
-7.02
-9.25
-11.91
-14.86
-17.72
-20.01
-21.29
-21.31
-20.02
-17.62
-14.44
-10.84
-7.13
-3.53
-0.24
2.54
4.66
5.98
6.51
6.40
5.94
5.42
5.06
4.87
4.76
4.63
4.44
4.27
4.25
4.52
5.04
5.64
6.09
6.20
5.92
5.34
4.66
4.02
3.47
2.95
2.32
1.45
0.27
-1.19
-2.86
-4.63
-6.42
-8.16
-9.82
-11.42
-13.03
-14.77
-16.69
-18.81
-20.99
-22.93
-24.26
-24.67
-23.99
-22.22
-19.59
-16.35
-12.74
-8.94
-5.11
-1.42
1.85
4.42
6.08
6.82
6.82
6.44
5.95
5.50
5.07
4.62
4.17
3.88
3.92
4.36
5.03
5.66
6.03
6.12
6.14
6.38
6.99
7.85
8.62
8.93
8.52
7.41
5.82
3.99
2.17
0.43
-1.27
-2.99
-4.82
-6.81
-9.00
-11.46
-14.24
-17.33
-20.62
-23.90
-26.80
-28.94
-29.96
-29.61
-27.80
-24.60
-20.25
-15.16
-9.85
-4.82
-0.44
3.11
5.96
8.29
10.29
11.99
13.28
14.05
14.25
13.98
13.45
12.90
12.50
12.32
12.34
12.50
12.76
13.10
13.48
13.84
14.02
13.80
12.95
11.34
9.05
6.37
3.71
1.41
-0.40
-1.81
-3.08
-4.53
-6.32
-8.50
-10.94
-13.49
-16.06
-18.72
-21.60
-24.85
-28.48
-32.18
-35.42
-37.52
-37.95
-36.54
-33.56
-29.53
-25.06
-20.60
-16.35
-12.43
-8.90
-5.85
-3.40
-1.58
-0.26
0.81
1.91
3.23
4.84
6.61
8.37
10.00
11.46
12.88
14.40
16.14
18.07
19.96
21.54
22.57
22.98
22.89
22.48
21.90
21.18
20.24
18.94
17.21
15.02
12.39
9.42
6.23
3.03
0.09
-2.40
-4.41
-6.15
-7.94
-10.11
-12.73
-15.52
-17.98
-19.52
-19.65
-18.13
-14.98
-10.41
-4.83
1.31
7.46
13.12
17.95
21.83
24.83
27.13
28.84
29.91
30.17
29.43
27.68
25.23
22.65
20.62
19.65
19.91
21.18
22.92
24.55
25.58
25.82
25.29
24.20
22.81
21.29
19.79
18.40
17.17
16.11
15.23
14.40
13.46
12.20
10.47
8.26
5.74
3.29
1.33
0.23
0.10
0.65
1.28
1.22
-0.13
-2.88
-6.54
-10.05
-12.15
-11.87
-8.91
-3.93
1.65
6.10
7.98
6.68
2.68
-2.55
-7.03
-8.80
-6.44
0.71
12.47
27.77
44.78
61.27
75.23
85.64
92.91
98.62
104.47
111.09
117.14
119.49
114.34
98.94
72.87
38.36
-0.46
-39.08
-73.82
-102.62
-124.73
-140.17
-149.20
-152.10
-149.33
-141.86
-131.22
-119.27
-107.77
-97.86
-89.84
-83.35
-77.66
-72.06
-66.10
-59.56
-52.46
-44.90
-37.00
-28.92
-20.82
-12.87
-5.31
1.56
7.51
12.42
16.33
19.44
21.92
23.84
25.18
25.97
26.35
26.70
27.42
28.78
30.69
32.79
34.56
35.68
36.09
36.03
35.80
35.53
35.08
34.04
32.06
28.99
25.02
20.63
16.32
12.39
8.85
5.54
2.26
-1.02
-4.10
-6.72
-8.73
-10.18
-11.42
-12.87
-14.87
-17.55
-20.70
-23.90
-26.57
-28.18
-28.33
-26.85
-23.81
-19.57
-14.67
-9.75
-5.35
-1.80
0.90
2.97
4.71
6.29
7.67
8.64
9.04
8.89
8.46
8.20
8.47
9.42
10.90
12.56
14.02
15.03
15.52
15.57
15.34
14.95
14.47
13.92
13.27
12.50
11.57
10.40
8.89
6.93
4.43
1.42
-1.93
-5.36
-8.57
-11.36
-13.70
-15.79
-17.90
-20.22
-22.75
-25.18
-27.04
-27.83
-27.20
-25.12
-21.78
-17.57
-12.86
-8.05
-3.48
0.59
3.98
6.68
8.80
10.54
12.13
13.63
14.99
16.10
16.89
17.41
17.76
18.03
18.19
18.16
17.91
17.44
16.91
16.49
16.26
16.12
15.85
15.18
13.91
12.02
9.60
6.88
4.08
1.42
-0.94
-2.91
-4.51
-5.87
-7.18
-8.67
-10.51
-12.76
-15.27
-17.77
-19.89
-21.26
-21.67
-21.05
-19.56
-17.44
-14.93
-12.20
-9.28
-6.23
-3.10
-0.06
2.65
4.83
6.41
7.44
8.08
8.52
8.93
9.37
9.86
10.42
11.06
11.82
12.68
13.57
14.30
14.73
14.76
14.44
13.96
13.49
13.07
12.53
11.62
10.13
8.08
5.77
3.61
1.93
0.79
-0.03
-0.90
-2.19
-4.08
-6.61
-9.68
-13.10
-16.62
-19.84
-22.32
-23.59
-23.37
-21.61
-18.60
-14.87
-10.97
-7.35
-4.19
-1.46
0.99
3.28
5.42
7.28
8.65
9.39
9.50
9.14
8.59
8.17
8.18
8.78
9.91
11.29
12.42
12.79
12.06
10.32
8.07
6.03
4.81
4.56
4.88
4.96
3.99
1.54
-2.31
-6.97
-11.70
-15.95
-19.50
-22.49
-25.19
-27.93
-30.97
-34.52
-38.69
-43.24
-47.39
-49.72
-48.54
-42.61
-31.97
-18.25
-4.22
7.38
14.99
18.93
20.95
23.22
27.08
32.45
38.08
42.31
44.08
43.31
40.86
38.00
35.80
34.84
35.19
36.57
38.56
40.71
42.59
43.77
43.84
42.44
39.35
34.55
28.26
20.92
13.20
5.92
-0.14
-4.47
-7.06
-8.52
-9.91
-12.34
-16.46
-22.11
-28.35
-33.79
-37.23
-38.11
-36.69
-33.83
-30.62
-27.90
-26.06
-25.06
-24.52
-24.07
-23.44
-22.59
-21.59
-20.52
-19.32
-17.79
-15.69
-12.88
-9.47
-5.79
-2.16
1.19
4.35
7.56
11.04
14.75
18.29
21.03
22.40
22.11
20.32
17.54
14.45
11.67
9.57
8.26
7.55
7.13
6.66
5.81
4.43
2.48
0.08
-2.54
-5.04
-7.08
-8.32
-8.52
-7.70
-6.06
-4.02
-2.00
-0.32
0.94
1.86
2.50
2.87
2.73
1.84
0.04
-2.54
-5.50
-8.36
-10.72
-12.45
-13.61
-14.25
-14.29
-13.43
-11.40
-8.22
-4.36
-0.69
1.80
2.45
1.13
-1.57
-4.68
-7.15
-8.17
-7.38
-4.92
-1.36
2.45
5.47
6.75
5.56
1.82
-3.87
-10.21
-15.59
-18.59
-18.43
-15.22
-9.84
-3.61
2.26
6.95
10.21
12.19
13.24
13.58
13.20
11.95
9.68
6.44
2.60
-1.20
-4.31
-6.21
-6.68
-5.86
-4.15
-2.10
-0.30
0.76
0.87
0.16
-0.94
-1.87
-2.28
-2.14
-1.77
-1.58
-1.78
-2.26
-2.76
-3.19
-3.81
-5.12
-7.44
-10.43
-12.92
-13.39
-10.62
-4.41
4.29
13.76
22.31
28.76
32.78
34.49
34.27
32.50
29.64
26.34
23.42
21.67
21.54
22.90
25.00
26.69
26.75
24.18
18.53
10.18
0.28
-9.46
-17.20
-21.60
-22.09
-18.95
-12.97
-5.20
3.31
11.46
18.02
21.62
21.02
15.45
4.99
-9.32
-25.54
-41.14
-53.54
-60.64
-61.40
-56.18
-46.66
-35.32
-24.59
-16.13
-10.37
-6.66
-3.79
-0.64
3.46
8.65
14.65
21.02
27.30
32.98
37.57
40.67
42.15
42.38
42.22
42.81
45.02
48.90
53.28
56.08
55.25
49.85
40.77
30.47
21.95
17.20
16.10
16.33
14.36
7.00
-7.21
-27.30
-50.34
-72.32
-89.45
-98.89
-99.18
-90.27
-73.38
-50.96
-26.31
-3.19
14.98
26.08
29.95
28.48
25.06
23.36
26.09
34.21
46.77
61.44
75.42
86.11
91.80
92.17
88.58
83.97
82.33
87.58
102.17
126.02
156.22
187.75
214.78
232.30
237.00
227.80
205.66
173.37
134.87
94.35
55.25
19.33
-13.36
-43.72
-72.34
-98.65
-120.92
-137.13
-146.20
-148.53
-145.65
-139.06
-129.47
-116.78
-101.05
-83.59
-67.25
-55.60
-51.46
-55.60
-66.45
-80.71
-94.65
-105.24
-110.93
-111.74
-108.95
-104.53
-100.48
-98.24
-98.21
-99.75
-101.55
-102.43
-101.96
-100.81
-100.38
-102.09
-106.61
-113.45
-120.86
-126.30
-126.83
-119.83
-103.79
-78.93
-47.47
-13.20
19.58
47.25
67.73
80.58
86.43
86.29
81.14
71.94
59.96
46.87
34.57
24.73
18.30
15.31
14.90
15.57
15.36
12.20
4.32
-9.33
-28.82
-53.15
-80.27
-107.28
-130.53
-146.24
-151.17
-143.73
-124.70
-97.23
-65.87
-35.01
-7.61
15.15
33.14
46.00
52.27
49.45
35.14
8.45
-28.99
-72.85
-116.80
-153.96
-178.66
-187.69
-181.10
-161.61
-133.01
-98.38
-59.25
-16.43
28.14
70.47
105.56
130.24
145.89
158.35
174.72
198.41
225.76
246.71
249.46
226.13
176.19
105.66
23.50
-62.04
-144.87
-220.01
-281.86
-324.01
-341.05
-331.22
-297.60
-247.25
-188.95
-130.42
-76.79
-30.42
8.48
40.94
68.40
92.13
112.79
130.23
143.58
151.77
154.14
150.70
142.28
130.34
116.72
103.31
91.62
82.45
75.60
70.06
64.55
58.35
51.54
44.79
38.63
32.82
26.47
18.69
9.44
-0.20
-8.49
-14.21
-17.52
-20.18
-24.73
-33.20
-45.88
-60.95
-74.86
-83.56
-83.84
-74.41
-56.33
-32.70
-7.82
14.01
29.44
36.82
36.43
30.34
21.81
14.53
11.55
14.43
22.70
34.01
45.07
52.95
56.28
55.71
53.46
52.26
54.06
59.28
66.67
73.92
78.73
79.68
76.77
71.17
64.71
58.98
54.81
52.12
50.28
48.60
46.78
44.87
43.02
41.03
38.31
34.12
28.09
20.64
12.92
6.43
2.32
0.75
0.86
1.01
-0.36
-4.05
-9.68
-15.96
-21.32
-24.63
-25.62
-24.73
-22.64
-19.84
-16.45
-12.45
-8.02
-3.67
-0.01
2.61
4.37
5.89
7.69
9.80
11.64
12.20
10.69
6.99
1.80
-3.71
-8.33
-11.29
-12.42
-12.17
-11.27
-10.50
-10.40
-11.15
-12.58
-14.32
-15.97
-17.23
-17.96
-18.07
-17.51
-16.16
-13.99
-11.16
-8.08
-5.26
-3.17
-1.90
-1.08
0.04
2.30
6.21
11.64
17.84
23.67
28.08
30.47
30.94
30.10
28.65
27.01
25.11
22.51
18.82
13.92
8.20
2.36
-2.86
-6.88
-9.38
-10.28
-9.67
-7.81
-5.04
-1.83
1.40
4.30
6.65
8.32
9.21
9.26
8.53
7.30
6.10
5.50
5.85
7.05
8.54
9.61
9.76
9.10
8.22
7.91
8.73
10.69
13.32
15.85
17.46
17.42
15.06
9.80
1.39
-9.83
-22.72
-35.62
-46.96
-55.83
-62.32
-67.16
-71.08
-74.16
-75.75
-74.91
-71.05
-64.42
-56.02
-47.06
-38.49
-30.70
-23.66
-17.25
-11.53
-6.76
-3.28
-1.24
-0.54
-0.82
-1.48
-1.86
-1.31
0.56
3.71
7.60
11.34
14.05
15.33
15.35
14.79
14.45
14.76
15.66
16.68
17.28
17.13
16.22
14.72
12.84
10.66
8.18
5.40
2.42
-0.63
-3.63
-6.53
-9.34
-12.04
-14.44
-16.23
-17.02
-16.55
-14.76
-11.80
-8.04
-3.86
0.37
4.36
7.89
10.83
13.06
14.59
15.53
16.09
16.59
17.31
18.41
19.92
21.70
23.57
25.39
27.13
28.88
30.72
32.68
34.60
36.22
37.27
37.52
36.89
35.39
33.07
29.99
26.20
21.79
16.85
11.39
5.32
-1.55
-9.39
-18.15
-27.46
-36.69
-45.13
-52.17
-57.46
-60.81
-62.10
-61.08
-57.52
-51.30
-42.71
-32.55
-22.01
-12.33
-4.41
1.44
5.57
8.71
11.65
14.91
18.60
22.47
26.07
28.91
30.56
30.74
29.34
26.53
22.81
18.96
15.87
14.22
14.28
15.75
17.90
19.90
21.02
20.87
19.38
16.82
13.62
10.24
7.07
4.34
2.07
0.23
-1.22
-2.25
-2.80
-3.03
-3.36
-4.37
-6.51
-9.73
-13.31
-16.09
-16.98
-15.40
-11.61
-6.43
-0.99
3.86
7.67
10.46
12.48
13.99
15.23
16.27
17.15
17.84
18.32
18.56
18.55
18.32
17.93
17.40
16.69
15.73
14.44
12.82
11.01
9.20
7.63
6.46
5.78
5.51
5.44
5.33
4.94
4.15
2.93
1.39
-0.35
-2.17
-4.01
-5.85
-7.58
-9.07
-10.16
-10.84
-11.29
-11.93
-13.17
-15.18
-17.68
-19.98
-21.28
-21.02
-19.15
-16.14
-12.70
-9.47
-6.76
-4.48
-2.36
-0.13
2.29
4.72
6.86
8.43
9.36
9.78
9.99
10.30
10.91
11.77
12.67
13.27
13.34
12.91
12.31
12.02
12.41
13.53
15.00
16.21
16.63
16.09
14.85
13.52
12.72
12.82
13.79
15.28
16.76
17.79
18.07
17.46
15.96
13.69
10.88
7.85
4.93
2.38
0.24
-1.61
-3.45
-5.56
-8.10
-11.04
-14.07
-16.79
-18.70
-19.38
-18.52
-15.87
-11.35
-5.10
2.38
10.22
17.31
22.69
25.87
27.07
27.13
27.05
27.48
28.39
29.16
28.93
27.12
23.74
19.29
14.40
9.55
4.84
0.30
-3.82
-6.91
-8.19
-7.22
-4.32
-0.66
2.30
3.55
3.19
2.35
2.40
3.84
5.64
5.58
1.32
-8.27
-22.63
-40.09
-59.08
-79.24
-101.39
-126.53
-154.44
-182.73
-207.05
-222.34
-224.41
-211.16
-183.05
-142.72
-94.41
-43.14
6.01
48.65
81.66
103.71
115.41
118.93
117.33
113.77
110.73
109.60
110.49
112.44
113.91
113.43
110.17
104.26
96.68
88.91
82.43
78.21
76.50
76.86
78.41
80.25
81.85
83.25
85.04
87.90
92.08
96.99
101.10
102.47
99.50
91.76
80.29
67.36
55.59
46.82
41.18
36.61
29.32
14.97
-9.54
-44.66
-87.67
-133.20
-175.07
-208.34
-230.60
-242.15
-244.80
-240.48
-230.14
-213.59
-189.94
-158.12
-117.29
-67.31
-9.40
52.93
113.61
164.71
198.59
210.39
199.83
171.19
131.44
87.52
44.33
4.21
-31.83
-62.72
-86.54
-101.17
-105.66
-101.41
-92.27
-83.28
-78.71
-80.40
-87.08
-95.10
-100.18
-99.22
-91.42
-78.36
-62.91
-47.99
-35.37
-25.38
-17.27
-9.97
-2.90
3.69
8.92
11.81
11.91
9.72
6.52
3.86
2.92
3.98
6.36
8.76
9.90
9.08
6.49
3.09
0.10
-1.41
-0.96
1.30
4.82
8.87
12.81
16.20
18.85
20.78
22.14
23.20
24.22
25.32
26.45
27.32
27.60
27.06
25.82
24.28
22.98
22.27
22.13
22.19
22.01
21.33
20.26
19.15
18.39
18.19
18.49
18.97
19.23
18.92
17.80
15.82
13.13
9.98
6.70
3.52
0.55
-2.27
-5.05
-7.81
-10.43
-12.62
-14.10
-14.74
-14.63
-14.07
-13.51
-13.39
-14.01
-15.42
-17.42
-19.59
-21.45
-22.60
-22.83
-22.11
-20.52
-18.19
-15.24
-11.86
-8.38
-5.19
-2.66
-0.95
0.08
0.82
1.72
3.10
5.05
7.41
9.85
12.02
13.64
14.61
15.03
15.18
15.41
15.93
16.68
17.37
17.56
16.98
15.57
13.60
11.47
9.51
7.88
6.58
5.53
4.60
3.64
2.50
1.01
-0.96
-3.35
-6.00
-8.62
-11.02
-13.14
-15.13
-17.18
-19.37
-21.57
-23.46
-24.69
-25.05
-24.53
-23.28
-21.44
-19.04
-16.00
-12.34
-8.21
-3.99
-0.13
3.01
5.37
7.07
8.35
9.40
10.29
10.99
11.47
11.76
11.91
11.99
12.05
12.14
12.38
12.84
13.52
14.27
14.83
14.91
14.34
13.10
11.37
9.35
7.20
4.98
2.67
0.24
-2.32
-4.88
-7.31
-9.41
-11.15
-12.64
-14.15
-15.98
-18.28
-20.91
-23.46
-25.39
-26.31
-26.09
-24.89
-23.00
-20.67
-18.05
-15.20
-12.16
-9.06
-6.03
-3.18
-0.60
1.68
3.58
5.04
6.02
6.57
6.84
7.05
7.39
7.97
8.78
9.76
10.84
11.91
12.89
13.66
14.10
14.16
13.87
13.34
12.66
11.86
10.88
9.59
7.91
5.80
3.40
0.83
-1.75
-4.22
-6.56
-8.73
-10.77
-12.77
-14.82
-16.98
-19.21
-21.31
-22.96
-23.76
-23.37
-21.67
-18.83
-15.22
-11.35
-7.66
-4.41
-1.61
0.87
3.23
5.57
7.82
9.74
11.08
11.72
11.77
11.57
11.49
11.83
12.65
13.79
15.00
16.04
16.83
17.41
17.89
18.28
18.45
18.22
17.41
16.01
14.18
12.18
10.27
8.59
7.15
5.83
4.51
3.09
1.45
-0.41
-2.45
-4.58
-6.70
-8.81
-10.98
-13.36
-15.98
-18.63
-20.84
-22.00
-21.63
-19.64
-16.38
-12.49
-8.62
-5.20
-2.34
0.13
2.39
4.51
6.38
7.78
8.52
8.52
7.95
7.11
6.38
6.09
6.37
7.19
8.33
9.54
10.61
11.44
12.05
12.48
12.78
12.93
12.86
12.52
11.85
10.86
9.59
8.12
6.58
5.11
3.80
2.62
1.43
0.09
-1.48
-3.22
-4.95
-6.56
-8.08
-9.74
-11.73
-14.04
-16.34
-18.04
-18.60
-17.72
-15.56
-12.57
-9.31
-6.13
-3.13
-0.22
2.70
5.56
8.12
10.04
11.08
11.23
10.72
9.92
9.20
8.77
8.68
8.85
9.17
9.63
10.28
11.19
12.34
13.56
14.60
15.19
15.20
14.61
13.53
12.14
10.58
8.97
7.30
5.54
3.61
1.40
-1.06
-3.63
-6.06
-8.10
-9.68
-11.02
-12.56
-14.75
-17.72
-21.17
-24.42
-26.71
-27.48
-26.58
-24.19
-20.68
-16.39
-11.63
-6.68
-1.91
2.32
5.71
8.17
9.77
10.71
11.14
11.16
10.92
10.60
10.52
10.97
12.04
13.54
15.04
16.14
16.65
16.69
16.62
16.70
16.94
17.05
16.63
15.42
13.49
11.21
9.04
7.25
5.80
4.40
2.68
0.49
-2.02
-4.51
-6.65
-8.34
-9.73
-11.21
-13.15
-15.78
-19.02
-22.54
-25.79
-28.22
-29.39
-29.12
-27.47
-24.75
-21.27
-17.36
-13.25
-9.13
-5.18
-1.59
1.45
3.83
5.59
6.89
7.94
8.95
10.03
11.21
12.45
13.69
14.84
15.86
16.70
17.38
17.93
18.46
18.99
19.47
19.75
19.59
18.82
17.37
15.39
13.13
10.90
8.90
7.13
5.44
3.62
1.51
-0.87
-3.38
-5.82
-8.01
-9.87
-11.43
-12.83
-14.26
-15.95
-18.10
-20.71
-23.58
-26.27
-28.17
-28.78
-27.83
-25.39
-21.83
-17.63
-13.18
-8.78
-4.57
-0.64
2.89
5.91
8.33
10.15
11.43
12.31
12.96
13.51
14.09
14.73
15.44
16.12
16.66
16.96
17.04
16.99
17.03
17.33
17.88
18.48
18.78
18.45
17.35
15.64
13.68
11.84
10.29
8.93
7.50
5.80
3.79
1.70
-0.19
-1.69
-2.89
-4.05
-5.45
-7.21
-9.24
-11.36
-13.48
-15.67
-18.08
-20.79
-23.66
-26.27
-28.11
-28.71
-27.83
-25.54
-22.11
-17.96
-13.55
-9.26
-5.35
-1.92
1.10
3.80
6.20
8.23
9.75
10.69
11.13
11.33
11.60
12.14
12.95
13.86
14.69
15.38
15.97
16.59
17.23
17.74
17.95
17.73
17.16
16.46
15.82
15.27
14.71
13.96
12.93
11.69
10.38
9.11
7.85
6.46
4.78
2.79
0.58
-1.71
-4.00
-6.30
-8.67
-11.15
-13.71
-16.27
-18.80
-21.33
-23.86
-26.26
-28.22
-29.26
-28.97
-27.16
-23.96
-19.78
-15.11
-10.33
-5.69
-1.30
2.70
6.14
8.84
10.68
11.68
11.96
11.69
11.03
10.17
9.36
8.91
9.10
10.04
11.57
13.27
14.70
15.56
15.86
15.81
15.66
15.53
15.28
14.66
13.48
11.79
9.83
7.95
6.37
5.11
3.99
2.78
1.37
-0.19
-1.74
-3.09
-4.13
-4.90
-5.57
-6.36
-7.48
-9.07
-11.15
-13.62
-16.26
-18.80
-20.99
-22.61
-23.53
-23.61
-22.73
-20.77
-17.78
-13.98
-9.81
-5.79
-2.33
0.36
2.38
3.96
5.32
6.52
7.50
8.10
8.30
8.23
8.20
8.49
9.21
10.26
11.40
12.34
12.93
13.18
13.22
13.15
13.00
12.71
12.19
11.37
10.25
8.88
7.34
5.69
4.01
2.34
0.73
-0.80
-2.26
-3.69
-5.10
-6.55
-8.05
-9.63
-11.27
-13.00
-14.88
-17.03
-19.56
-22.50
-25.67
-28.65
-30.84
-31.67
-30.83
-28.41
-24.86
-20.76
-16.67
-12.89
-9.43
-6.16
-2.90
0.36
3.47
6.15
8.10
9.16
9.39
9.07
8.59
8.28
8.32
8.69
9.26
9.91
10.57
11.27
11.98
12.62
13.01
12.97
12.37
11.21
9.62
7.82
6.03
4.41
3.01
1.71
0.29
-1.47
-3.69
-6.28
-8.95
-11.31
-13.06
-14.13
-14.67
-15.01
-15.46
-16.26
-17.54
-19.28
-21.33
-23.37
-24.99
-25.71
-25.18
-23.31
-20.33
-16.68
-12.80
-8.99
-5.37
-1.94
1.28
4.18
6.61
8.48
9.85
10.88
11.76
12.59
13.36
14.03
14.57
15.02
15.48
15.99
16.52
16.99
17.27
17.33
17.18
16.83
16.29
15.48
14.29
12.66
10.66
8.45
6.23
4.10
2.03
-0.12
-2.49
-5.13
-7.91
-10.62
-13.03
-14.98
-16.50
-17.78
-19.13
-20.82
-23.04
-25.76
-28.77
-31.64
-33.86
-34.89
-34.32
-31.91
-27.73
-22.15
-15.77
-9.35
-3.54
1.24
4.91
7.70
9.92
11.81
13.41
14.66
15.48
15.95
16.26
16.65
17.28
18.11
19.00
19.77
20.31
20.64
20.82
20.89
20.75
20.19
19.02
17.14
14.70
12.04
9.55
7.50
5.93
4.65
3.35
1.79
-0.09
-2.17
-4.25
-6.13
-7.69
-8.95
-10.03
-11.13
-12.51
-14.37
-16.72
-19.34
-21.78
-23.49
-24.03
-23.15
-20.91
-17.56
-13.45
-8.88
-4.11
0.68
5.35
9.78
13.96
17.89
21.62
25.08
28.07
30.22
31.27
31.16
30.22
29.05
28.29
28.30
28.95
29.75
30.06
29.45
27.88
25.64
23.08
20.32
17.18
13.28
8.34
2.41
-4.02
-10.15
-15.23
-18.79
-20.78
-21.55
-21.62
-21.48
-21.38
-21.31
-21.08
-20.47
-19.44
-18.20
-17.14
-16.69
-17.03
-18.04
-19.30
-20.30
-20.66
-20.21
-18.99
-17.14
-14.81
-12.10
-9.15
-6.11
-3.16
-0.43
2.08
4.41
6.55
8.36
9.68
10.43
10.75
10.94
11.38
12.23
13.39
14.57
15.50
16.08
16.42
16.72
17.07
17.33
17.25
16.61
15.32
13.52
11.45
9.33
7.32
5.43
3.65
1.94
0.32
-1.20
-2.62
-3.95
-5.23
-6.49
-7.78
-9.10
-10.49
-11.99
-13.64
-15.48
-17.46
-19.45
-21.22
-22.49
-23.06
-22.76
-21.57
-19.48
-16.61
-13.08
-9.15
-5.07
-1.16
2.29
5.07
7.09
8.33
8.83
8.70
8.14
7.48
7.08
7.21
7.94
9.07
10.28
11.26
11.89
12.20
12.32
12.31
12.10
11.55
10.59
9.25
7.74
6.33
5.18
4.34
3.67
2.96
2.02
0.73
-0.92
-2.85
-4.87
-6.81
-8.50
-9.89
-11.02
-12.11
-13.39
-15.11
-17.34
-19.95
-22.59
-24.75
-25.94
-25.80
-24.30
-21.64
-18.25
-14.57
-10.92
-7.47
-4.28
-1.39
1.16
3.30
5.02
6.33
7.31
8.07
8.69
9.24
9.78
10.35
10.93
11.51
12.08
12.69
13.40
14.27
15.23
16.14
16.79
17.04
16.78
16.03
14.82
13.21
11.37
9.73
8.90
9.39
11.24
13.83
16.09
16.97
16.00
13.51
10.37
7.43
5.03
2.94
0.65
-2.18
-5.59
-9.39
-13.53
-18.16
-23.52
-29.52
-35.51
-40.39
-43.09
-43.03
-40.44
-36.10
-31.04
-26.02
-21.40
-17.20
-13.28
-9.64
-6.41
-3.77
-1.78
-0.35
0.76
1.81
3.00
4.37
5.83
7.24
8.50
9.60
10.61
11.62
12.63
13.56
14.22
14.36
13.84
12.61
10.81
8.67
6.52
4.62
3.14
2.10
1.39
0.84
0.26
-0.51
-1.58
-2.91
-4.45
-6.10
-7.78
-9.44
-11.11
-12.88
-14.87
-17.29
-20.26
-23.75
-27.53
-31.07
-33.66
-34.57
-33.35
-29.95
-24.71
-18.20
-11.01
-3.57
3.82
10.92
17.41
22.94
27.21
30.09
31.68
32.26
32.16
31.68
31.02
30.27
29.44
28.58
27.66
26.71
25.76
24.83
23.95
23.10
22.27
21.41
20.49
19.45
18.21
16.65
14.68
12.32
9.75
7.28
5.17
3.55
2.29
1.18
0.02
-1.31
-2.73
-4.14
-5.49
-6.82
-8.21
-9.75
-11.41
-13.11
-14.84
-16.63
-18.58
-20.78
-23.18
-25.59
-27.70
-29.14
-29.57
-28.78
-26.70
-23.42
-19.28
-14.77
-10.36
-6.46
-3.25
-0.69
1.40
3.19
4.72
5.92
6.72
7.12
7.22
7.25
7.39
7.75
8.30
8.96
9.61
10.19
10.72
11.27
11.88
12.56
13.23
13.67
13.64
12.96
11.61
9.75
7.72
5.86
4.38
3.27
2.34
1.37
0.23
-1.02
-2.20
-3.19
-3.95
-4.61
-5.34
-6.28
-7.47
-8.93
-10.65
-12.66
-15.01
-17.59
-20.12
-22.15
-23.19
-22.87
-21.15
-18.23
-14.56
-10.63
-6.90
-3.61
-0.89
1.24
2.82
3.85
4.39
4.50
4.35
4.12
3.99
4.04
4.30
4.76
5.40
6.24
7.29
8.51
9.77
10.89
11.70
12.11
12.12
11.75
11.08
10.18
9.13
8.04
6.99
6.00
4.99
3.81
2.32
0.48
-1.59
-3.69
-5.58
-7.11
-8.25
-9.11
-9.84
-10.65
-11.74
-13.30
-15.44
-18.15
-21.24
-24.35
-27.02
-28.77
-29.27
-28.37
-26.15
-22.87
-18.90
-14.67
-10.54
-6.83
-3.67
-1.03
1.22
3.21
5.02
6.63
7.99
9.04
9.78
10.27
10.61
10.93
11.35
11.96
12.81
13.83
14.93
15.93
16.70
17.09
17.07
16.66
15.92
14.99
13.97
13.01
12.11
11.20
10.18
8.93
7.47
5.90
4.36
2.89
1.47
-0.06
-1.77
-3.66
-5.59
-7.47
-9.30
-11.27
-13.62
-16.46
-19.66
-22.82
-25.41
-26.90
-26.96
-25.50
-22.64
-18.67
-13.95
-8.87
-3.79
0.95
5.12
8.63
11.48
13.78
15.68
17.33
18.79
20.08
21.13
21.81
21.98
21.51
20.31
18.43
16.02
13.44
11.10
9.40
8.58
8.58
9.05
9.47
9.39
8.57
7.06
5.20
3.33
1.73
0.39
-0.81
-2.04
-3.36
-4.66
-5.75
-6.47
-6.85
-7.06
-7.32
-7.76
-8.35
-9.01
-9.68
-10.42
-11.34
-12.50
-13.77
-14.78
-15.10
-14.39
-12.56
-9.76
-6.22
-2.14
2.39
7.32
12.51
17.64
22.37
26.36
29.49
31.80
33.47
34.66
35.45
35.88
36.03
36.16
36.57
37.58
39.24
41.27
43.12
44.21
44.15
42.98
41.17
39.36
38.01
37.23
36.70
35.89
34.38
32.06
29.08
25.67
21.87
17.44
12.06
5.66
-1.40
-8.31
-14.28
-19.04
-23.09
-27.50
-33.27
-40.73
-49.30
-57.73
-64.80
-69.80
-72.74
-74.06
-74.27
-73.66
-72.44
-71.02
-70.09
-70.45
-72.47
-75.70
-78.76
-79.84
-77.31
-70.40
-59.49
-46.00
-31.98
-19.46
-9.91
-3.89
-1.04
-0.31
-0.46
-0.45
0.30
1.88
4.03
6.25
7.97
8.64
7.92
5.78
2.70
-0.47
-2.83
-3.76
-3.27
-1.87
-0.36
0.65
0.86
0.33
-0.75
-2.21
-3.90
-5.64
-7.09
-7.83
-7.58
-6.32
-4.42
-2.36
-0.45
1.33
3.32
5.80
8.70
11.51
13.55
14.51
14.64
14.76
15.72
17.91
20.95
23.94
26.08
27.14
27.60
28.21
29.48
31.25
32.79
33.33
32.50
30.59
28.29
26.24
24.75
23.59
22.27
20.23
17.16
13.07
8.23
3.06
-2.00
-6.54
-10.29
-13.21
-15.43
-17.23
-18.93
-20.84
-23.21
-26.16
-29.62
-33.15
-35.90
-36.76
-34.75
-29.45
-21.28
-11.39
-1.29
7.73
14.82
19.75
22.66
23.87
23.77
22.77
21.41
20.20
19.49
19.33
19.36
19.00
17.67
15.08
11.32
6.90
2.56
-0.87
-2.84
-3.19
-2.20
-0.49
1.31
2.86
4.16
5.48
7.06
8.82
10.37
11.19
10.91
9.58
7.58
5.45
3.56
2.00
0.61
-0.87
-2.63
-4.71
-7.02
-9.39
-11.57
-13.22
-13.96
-13.50
-11.78
-9.07
-5.81
-2.50
0.52
3.12
5.27
6.98
8.22
8.95
9.19
9.08
8.80
8.49
8.18
7.83
7.43
7.05
6.79
6.65
6.53
6.20
5.54
4.62
3.71
3.17
3.18
3.72
4.49
5.17
5.54
5.57
5.45
5.39
5.51
5.78
6.07
6.23
6.13
5.71
4.91
3.62
1.73
-0.85
-4.11
-7.87
-11.83
-15.58
-18.69
-20.74
-21.47
-20.78
-18.75
-15.73
-12.17
-8.55
-5.28
-2.52
-0.24
1.69
3.42
4.98
6.27
7.17
7.60
7.67
7.65
7.82
8.39
9.33
10.44
11.38
11.89
11.89
11.47
10.85
10.16
9.43
8.55
7.45
6.15
4.83
3.75
3.08
2.81
2.74
2.57
2.07
1.13
-0.14
-1.49
-2.61
-3.28
-3.47
-3.41
-3.48
-4.11
-5.55
-7.75
-10.31
-12.66
-14.22
-14.66
-13.94
-12.26
-9.94
-7.30
-4.60
-2.06
0.09
1.68
2.66
3.10
3.23
3.29
3.49
3.87
4.33
4.73
4.93
4.86
4.56
4.13
3.70
3.40
3.34
3.60
4.21
5.14
6.23
7.27
8.05
8.40
8.29
7.82
7.17
6.48
5.84
5.22
4.48
3.56
2.42
1.13
-0.19
-1.46
-2.63
-3.65
-4.48
-5.08
-5.41
-5.58
-5.76
-6.22
-7.14
-8.57
-10.38
-12.24
-13.79
-14.67
-14.65
-13.67
-11.85
-9.46
-6.87
-4.42
-2.30
-0.56
0.85
1.99
2.88
3.46
3.69
3.58
3.23
2.81
2.44
2.22
2.18
2.37
2.82
3.53
4.42
5.34
6.11
6.63
6.86
6.83
6.52
5.87
4.83
3.38
1.69
0.04
-1.28
-2.10
-2.43
-2.49
-2.51
-2.61
-2.79
-2.91
-2.82
-2.50
-2.04
-1.60
-1.35
-1.37
-1.69
-2.35
-3.34
-4.69
-6.31
-8.04
-9.60
-10.71
-11.16
-10.83
-9.70
-7.89
-5.57
-3.03
-0.60
1.34
2.53
2.92
2.66
2.00
1.21
0.45
-0.32
-1.18
-2.24
-3.57
-5.11
-6.70
-8.14
-9.24
-9.94
-10.37
-10.83
-11.74
-13.39
-15.88
-18.94
-22.10
-24.85
-26.86
-28.10
-28.80
-29.45
-30.66
-33.01
-36.92
-42.40
-48.75
-54.50
-57.55
-55.69
-47.34
-32.22
-11.57
12.24
36.55
59.27
79.18
95.78
108.62
116.90
119.49
115.49
104.89
89.03
70.35
51.73
35.66
23.57
15.58
10.76
7.60
4.56
0.65
-4.32
-9.88
-15.23
-19.81
-23.80
-28.07
-33.89
-42.24
-53.23
-65.88
-78.36
-88.65
-95.23
-97.68
-96.66
-93.62
-90.11
-87.19
-85.15
-83.57
-81.69
-78.88
-74.83
-69.54
-63.10
-55.55
-46.90
-37.23
-26.78
-15.98
-5.22
5.22
15.29
25.02
34.44
43.47
51.95
59.61
66.17
71.28
74.59
75.87
75.19
73.06
70.46
68.65
68.77
71.47
76.68
83.58
90.83
96.97
100.72
101.26
98.47
92.80
85.19
76.77
68.53
61.09
54.55
48.53
42.34
35.23
26.65
16.52
5.27
-6.24
-17.02
-26.35
-34.00
-40.24
-45.66
-50.81
-55.94
-60.92
-65.40
-68.93
-71.17
-72.02
-71.60
-70.26
-68.57
-67.18
-66.65
-67.17
-68.29
-68.88
-67.23
-61.66
-51.22
-36.33
-19.05
-2.72
9.15
14.22
12.32
5.79
-1.22
-4.11
0.51
13.69
33.90
57.72
81.09
100.68
114.76
123.36
127.65
129.19
129.15
128.00
125.73
122.26
117.75
112.61
107.20
101.52
95.27
88.34
81.28
75.29
71.77
71.09
71.78
70.51
62.96
45.44
16.28
-23.36
-69.53
-116.30
-157.20
-186.76
-201.98
-203.28
-194.40
-181.22
-169.74
-164.01
-165.07
-171.32
-179.99
-188.87
-197.17
-205.22
-213.32
-220.67
-225.12
-223.97
-215.19
-198.47
-175.57
-149.86
-125.16
-104.60
-89.61
-79.59
-72.29
-64.78
-54.58
-40.61
-23.40
-4.62
13.97
31.38
47.87
64.63
82.96
103.42
125.25
146.44
164.14
175.51
178.54
172.74
159.36
141.16
121.64
103.97
90.06
80.13
73.07
67.16
61.06
54.29
47.16
40.29
33.98
28.06
22.02
15.59
9.05
3.29
-0.67
-2.24
-1.68
-0.02
1.40
1.60
0.46
-1.22
-2.06
-0.59
4.18
12.49
23.80
36.97
50.69
63.74
75.31
85.00
92.71
98.40
102.03
103.62
103.54
102.59
101.94
102.67
105.25
109.14
112.91
114.69
112.86
106.48
95.47
80.23
61.25
38.82
13.05
-15.50
-45.41
-74.15
-98.44
-115.17
-122.24
-119.28
-107.59
-89.74
-68.83
-47.92
-29.68
-16.27
-9.17
-8.98
-15.13
-25.70
-37.68
-47.73
-53.06
-52.31
-45.83
-35.25
-22.77
-10.11
1.93
13.30
24.19
34.26
42.45
47.24
47.38
42.54
33.47
21.74
9.03
-3.34
-14.57
-24.27
-32.14
-37.92
-41.43
-42.77
-42.26
-40.40
-37.69
-34.57
-31.58
-29.49
-29.24
-31.70
-37.23
-45.42
-55.15
-64.95
-73.56
-80.36
-85.37
-89.05
-91.80
-93.72
-94.52
-93.74
-91.03
-86.27
-79.46
-70.46
-58.86
-44.17
-26.22
-5.57
16.31
37.37
55.51
69.15
77.36
79.88
76.96
69.52
59.26
48.77
41.04
38.43
41.65
49.23
58.07
64.80
67.24
65.21
60.29
54.91
51.15
50.22
52.53
58.36
68.23
82.98
103.09
127.99
155.69
182.98
206.32
222.50
229.20
224.82
208.67
181.00
143.74
100.90
58.45
22.99
-0.19
-8.96
-5.15
6.42
19.96
30.97
37.78
41.58
45.42
52.61
65.44
84.35
107.94
133.18
156.05
172.25
178.02
170.82
149.75
115.82
71.84
22.24
-27.50
-71.82
-106.46
-129.79
-143.58
-152.38
-161.78
-176.06
-196.51
-221.17
-246.07
-267.34
-283.04
-293.73
-301.81
-310.17
-320.83
-334.07
-348.41
-360.90
-367.96
-366.26
-353.83
-330.92
-300.38
-267.18
-237.02
-214.56
-201.94
-198.27
-200.20
-203.33
-203.65
-198.47
-186.50
-167.44
-141.49
-109.10
-71.04
-28.50
16.94
63.62
110.00
154.69
196.28
233.20
263.84
286.93
301.97
309.52
310.91
307.78
301.57
293.25
283.30
271.93
259.21
245.10
229.45
212.13
193.15
172.87
152.11
132.15
114.59
100.98
92.26
88.08
86.36
83.41
74.98
57.78
30.87
-3.78
-41.95
-78.56
-109.28
-131.58
-144.83
-149.72
-147.70
-140.40
-129.45
-116.30
-101.90
-86.25
-68.17
-45.74
-17.39
16.67
53.36
86.88
110.26
117.85
107.70
82.64
49.38
16.00
-10.99
-28.60
-37.49
-40.35
-39.88
-37.37
-32.50
-24.50
-13.46
-0.92
10.60
18.65
22.01
21.03
17.17
11.92
5.98
-0.98
-9.73
-20.51
-32.26
-42.64
-48.75
-48.47
-41.42
-29.24
-14.98
-1.85
7.88
13.55
15.94
16.50
16.61
17.03
17.84
18.83
19.76
20.54
21.25
21.91
22.44
22.64
22.30
21.33
19.82
18.04
16.38
15.22
14.82
15.20
16.18
17.46
18.65
19.34
19.05
17.31
13.75
8.32
1.45
-5.96
-12.81
-18.15
-21.53
-23.07
-23.30
-22.88
-22.31
-21.83
-21.52
-21.36
-21.36
-21.46
-21.48
-20.99
-19.39
-16.12
-11.03
-4.55
2.25
8.03
11.70
12.82
11.84
9.75
7.64
6.24
5.66
5.56
5.39
4.75
3.51
1.72
-0.41
-2.71
-4.96
-6.91
-8.20
-8.44
-7.35
-4.85
-1.28
2.71
6.32
8.81
9.79
9.28
7.69
5.57
3.45
1.70
0.49
-0.20
-0.48
-0.51
-0.47
-0.53
-0.77
-1.17
-1.74
-2.43
-3.26
-4.25
-5.37
-6.55
-7.67
-8.69
-9.68
-10.80
-12.23
-14.02
-16.10
-18.25
-20.26
-21.90
-23.02
-23.48
-23.11
-21.84
-19.67
-16.81
-13.58
-10.37
-7.52
-5.23
-3.52
-2.30
-1.46
-0.94
-0.73
-0.82
-1.19
-1.73
-2.24
-2.49
-2.33
-1.78
-1.02
-0.27
0.25
0.54
0.70
0.92
1.29
1.70
1.92
1.70
0.96
-0.14
-1.28
-2.24
-3.02
-3.88
-5.20
-7.24
-9.92
-12.85
-15.43
-17.14
-17.69
-17.09
-15.55
-13.33
-10.65
-7.72
-4.71
-1.85
0.65
2.57
3.83
4.46
4.58
4.38
4.06
3.83
3.84
4.17
4.80
5.62
6.48
7.23
7.81
8.21
8.47
8.61
8.60
8.36
7.80
6.84
5.46
3.73
1.77
-0.29
-2.35
-4.40
-6.52
-8.79
-11.28
-13.92
-16.45
-18.50
-19.67
-19.67
-18.45
-16.19
-13.25
-9.93
-6.48
-3.02
0.35
3.45
5.98
7.61
8.22
7.96
7.31
6.80
6.87
7.60
8.74
9.88
10.67
10.95
10.80
10.44
10.06
9.72
9.39
8.93
8.19
7.06
5.55
3.70
1.61
-0.60
-2.78
-4.83
-6.66
-8.26
-9.71
-11.15
-12.72
-14.46
-16.26
-17.80
-18.70
-18.61
-17.38
-15.06
-11.89
-8.19
-4.25
-0.34
3.36
6.64
9.30
11.19
12.26
12.51
12.13
11.38
10.57
10.01
9.85
10.10
10.56
10.97
11.08
10.84
10.37
9.92
9.70
9.83
10.30
11.01
11.79
12.46
12.85
12.77
12.09
10.78
8.93
6.72
4.38
2.13
0.03
-1.92
-3.84
-5.85
-7.97
-10.07
-11.88
-13.04
-13.24
-12.35
-10.47
-7.89
-4.95
-1.94
0.95
3.62
5.98
7.88
9.19
9.81
9.81
9.40
8.91
8.60
8.64
9.05
9.70
10.46
11.20
11.85
12.40
12.80
13.02
13.01
12.73
12.18
11.37
10.31
9.02
7.50
5.78
3.93
2.02
0.13
-1.72
-3.56
-5.45
-7.47
-9.61
-11.80
-13.81
-15.37
-16.15
-15.87
-14.38
-11.75
-8.23
-4.23
-0.21
3.44
6.41
8.57
9.86
10.31
10.03
9.22
8.14
7.07
6.27
5.79
5.57
5.43
5.23
4.92
4.62
4.45
4.49
4.68
4.80
4.65
4.14
3.34
2.43
1.59
0.87
0.19
-0.62
-1.68
-2.98
-4.47
-6.08
-7.87
-9.93
-12.35
-14.97
-17.43
-19.16
-19.65
-18.59
-16.03
-12.31
-7.94
-3.40
0.91
4.73
7.85
10.12
11.44
11.85
11.52
10.74
9.86
9.17
8.81
8.75
8.82
8.84
8.69
8.41
8.14
8.06
8.22
8.50
8.68
8.52
7.83
6.62
5.04
3.29
1.56
-0.03
-1.49
-2.90
-4.37
-6.06
-8.12
-10.65
-13.59
-16.73
-19.71
-22.08
-23.45
-23.55
-22.32
-19.96
-16.74
-13.02
-9.08
-5.12
-1.30
2.21
5.23
7.61
9.24
10.17
10.58
10.69
10.75
10.90
11.17
11.48
11.74
11.81
11.67
11.36
10.98
10.62
10.35
10.10
9.75
9.15
8.21
6.93
5.42
3.77
2.09
0.45
-1.10
-2.55
-3.94
-5.39
-7.08
-9.15
-11.69
-14.55
-17.36
-19.65
-20.93
-20.93
-19.60
-17.12
-13.80
-9.95
-5.84
-1.70
2.25
5.77
8.63
10.71
11.93
12.40
12.31
11.97
11.66
11.60
11.89
12.41
12.95
13.23
13.10
12.58
11.88
11.26
10.92
10.86
10.88
10.70
10.07
8.88
7.15
5.04
2.74
0.47
-1.59
-3.26
-4.52
-5.46
-6.35
-7.52
-9.25
-11.62
-14.47
-17.39
-19.84
-21.31
-21.47
-20.24
-17.77
-14.40
-10.54
-6.54
-2.70
0.76
3.69
6.01
7.70
8.78
9.32
9.46
9.34
9.10
8.85
8.71
8.74
8.99
9.43
10.02
10.65
11.20
11.58
11.72
11.58
11.18
10.60
9.93
9.26
8.63
7.99
7.22
6.19
4.84
3.18
1.27
-0.78
-2.85
-4.82
-6.60
-8.15
-9.57
-11.03
-12.80
-14.99
-17.48
-19.87
-21.57
-22.04
-21.06
-18.74
-15.50
-11.83
-8.11
-4.51
-1.09
2.12
5.01
7.40
9.06
9.92
10.03
9.62
8.97
8.37
7.97
7.80
7.83
7.97
8.20
8.51
8.92
9.36
9.72
9.89
9.79
9.49
9.07
8.57
7.87
6.74
4.96
2.54
-0.31
-3.21
-5.83
-8.08
-10.13
-12.28
-14.75
-17.56
-20.53
-23.43
-26.09
-28.50
-30.76
-32.96
-35.14
-37.23
-39.04
-40.23
-40.42
-39.21
-36.37
-32.01
-26.65
-21.18
-16.51
-13.32
-11.72
-11.31
-11.27
-10.48
-7.76
-1.97
7.69
21.27
37.77
55.07
70.42
81.40
86.88
87.41
84.83
81.14
77.45
73.41
67.75
59.31
48.10
35.62
24.17
15.74
10.95
8.95
7.87
6.02
2.62
-1.96
-6.65
-10.47
-13.04
-14.73
-16.31
-18.45
-21.32
-24.51
-27.31
-29.03
-29.33
-28.27
-26.26
-23.77
-21.22
-18.73
-16.21
-13.45
-10.27
-6.67
-2.91
0.56
3.27
4.91
5.54
5.49
5.35
5.62
6.52
7.95
9.53
10.83
11.62
11.94
12.00
12.08
12.31
12.66
12.93
12.93
12.50
11.62
10.29
8.57
6.48
4.04
1.22
-1.96
-5.49
-9.27
-13.16
-16.99
-20.59
-23.88
-26.89
-29.70
-32.35
-34.74
-36.61
-37.55
-37.19
-35.31
-31.93
-27.38
-22.13
-16.73
-11.63
-7.16
-3.48
-0.68
1.20
2.24
2.62
2.64
2.72
3.19
4.25
5.79
7.51
8.99
9.94
10.27
10.10
9.72
9.39
9.20
9.12
8.93
8.42
7.45
6.02
4.25
2.30
0.30
-1.69
-3.71
-5.79
-7.96
-10.17
-12.38
-14.57
-16.75
-18.91
-20.94
-22.58
-23.41
-23.06
-21.33
-18.29
-14.28
-9.82
-5.43
-1.53
1.61
3.87
5.26
5.85
5.78
5.25
4.53
3.92
3.67
3.90
4.58
5.48
6.35
7.00
7.41
7.74
8.21
8.98
9.99
11.05
11.86
12.14
11.73
10.59
8.81
6.56
4.06
1.55
-0.78
-2.81
-4.55
-6.16
-7.85
-9.86
-12.30
-15.15
-18.17
-20.97
-23.10
-24.15
-23.87
-22.19
-19.25
-15.32
-10.79
-6.10
-1.65
2.21
5.25
7.42
8.84
9.70
10.21
10.58
10.88
11.21
11.61
12.10
12.67
13.21
13.59
13.71
13.58
13.24
12.87
12.60
12.48
12.46
12.44
12.26
11.81
11.02
9.88
8.45
6.82
5.05
3.19
1.22
-0.81
-2.85
-4.78
-6.50
-8.07
-9.72
-11.80
-14.63
-18.23
-22.21
-25.86
-28.40
-29.22
-28.14
-25.36
-21.37
-16.69
-11.78
-6.97
-2.48
1.48
4.77
7.30
9.11
10.35
11.28
12.13
13.05
14.03
14.92
15.58
15.86
15.80
15.55
15.31
15.21
15.28
15.39
15.38
15.13
14.63
13.96
13.19
12.34
11.32
10.01
8.32
6.30
4.06
1.76
-0.49
-2.66
-4.75
-6.77
-8.70
-10.52
-12.34
-14.30
-16.56
-19.11
-21.70
-23.88
-25.17
-25.23
-23.99
-21.62
-18.41
-14.60
-10.38
-5.94
-1.50
2.63
6.14
8.87
10.79
12.02
12.74
13.09
13.15
13.02
12.79
12.63
12.67
12.96
13.44
13.96
14.40
14.69
14.89
15.05
15.19
15.20
14.96
14.32
13.27
11.91
10.41
8.90
7.41
5.92
4.35
2.68
0.97
-0.73
-2.36
-3.92
-5.51
-7.26
-9.31
-11.80
-14.79
-18.19
-21.69
-24.81
-26.98
-27.73
-26.89
-24.55
-21.10
-16.97
-12.52
-8.02
-3.68
0.33
3.81
6.57
8.51
9.68
10.23
10.38
10.39
10.46
10.72
11.21
11.87
12.60
13.28
13.84
14.31
14.77
15.31
15.96
16.66
17.27
17.63
17.59
17.10
16.17
14.91
13.44
11.90
10.36
8.82
7.26
5.64
3.96
2.26
0.63
-0.86
-2.17
-3.37
-4.58
-6.01
-7.88
-10.26
-13.05
-15.89
-18.34
-19.94
-20.46
-19.91
-18.50
-16.55
-14.29
-11.87
-9.40
-6.98
-4.77
-2.95
-1.61
-0.75
-0.20
0.22
0.69
1.26
1.92
2.61
3.34
4.12
5.04
6.06
7.11
8.04
8.73
9.15
9.38
9.50
9.53
9.39
8.95
8.08
6.79
5.20
3.50
1.80
0.19
-1.37
-2.86
-4.27
-5.52
-6.60
-7.55
-8.53
-9.73
-11.28
-13.22
-15.39
-17.54
-19.36
-20.51
-20.78
-20.03
-18.26
-15.59
-12.29
-8.65
-4.95
-1.44
1.71
4.34
6.35
7.66
8.28
8.34
8.08
7.75
7.61
7.72
8.04
8.48
8.97
9.49
10.04
10.60
11.04
11.21
11.01
10.46
9.72
8.90
8.10
7.24
