1679570444.00
64.000000
-0.00
-0.00
-0.00
-0.00
-0.00
-0.00
-0.00
-0.00
-0.00
-0.00
0.00
0.01
0.01
-0.00
-0.03
-0.05
-0.05
0.00
0.13
0.36
0.66
1.01
1.37
1.72
2.06
2.40
2.79
3.24
3.80
4.42
5.07
5.69
6.25
6.76
7.29
7.90
8.66
9.66
10.82
12.04
13.19
14.22
15.18
16.24
17.60
19.41
21.91
24.89
28.09
31.21
34.09
36.80
39.66
43.13
47.52
53.22
59.89
67.01
74.00
80.51
86.61
92.81
99.85
108.27
118.64
130.46
142.95
155.21
166.67
177.38
188.01
199.92
211.87
226.18
243.44
263.76
285.92
306.96
322.58
328.15
320.37
298.42
264.74
223.18
178.06
132.55
88.14
45.06
3.19
-37.18
-75.23
-109.59
-139.61
-165.01
-185.82
-202.37
-214.61
-222.20
-224.68
-221.88
-214.01
-202.20
-187.94
-172.75
-157.87
-143.95
-131.13
-119.23
-108.12
-97.40
-87.21
-77.93
-69.97
-63.67
-58.93
-55.46
-52.74
-50.27
-47.66
-44.83
-41.87
-38.91
-36.10
-33.44
-30.89
-28.34
-25.68
-22.84
-19.89
-16.91
-13.99
-11.20
-8.57
-6.11
-3.84
-1.75
0.10
1.66
2.81
3.50
3.67
3.31
2.43
1.04
-0.77
-3.00
-5.57
-8.47
-11.67
-15.14
-18.88
-22.81
-26.92
-31.09
-35.19
-39.06
-42.53
-45.40
-47.47
-48.57
-48.57
-47.38
-44.98
-41.44
-36.89
-31.56
-25.72
-19.65
-13.66
-7.91
-2.62
2.16
6.39
10.06
13.21
15.85
18.07
19.87
21.34
22.48
23.29
23.65
23.43
22.41
20.38
17.17
12.72
7.16
0.77
-6.08
-13.04
-19.87
-26.50
-33.05
-39.62
-46.32
-53.00
-59.40
-65.12
-69.87
-73.65
-76.63
-79.31
-82.06
-85.04
-87.98
-90.25
-91.13
-90.12
-87.35
-83.51
-79.84
-77.50
-77.29
-79.28
-82.86
-87.34
-91.95
-96.83
-102.42
-109.89
-120.40
-135.20
-155.31
-180.98
-211.42
-243.70
-273.52
-295.68
-306.63
-305.54
-295.09
-280.14
-265.33
-253.43
-243.83
-234.32
-222.24
-206.64
-188.37
-169.20
-150.89
-133.80
-117.85
-102.62
-88.53
-76.26
-66.25
-58.40
-51.35
-44.09
-35.75
-27.02
-18.94
-12.77
-8.71
-5.77
-2.56
2.44
9.30
17.95
27.28
36.96
46.74
56.75
67.10
76.77
85.15
91.09
94.71
96.61
98.20
101.13
105.83
112.02
117.77
121.28
120.76
116.20
109.06
102.05
98.13
98.75
104.08
111.89
119.95
125.93
129.16
130.08
129.59
129.00
128.24
127.47
126.04
124.21
122.18
120.33
119.01
117.36
114.73
109.85
102.54
92.87
81.66
70.15
59.25
50.25
43.72
40.48
40.29
42.62
45.72
47.65
46.55
41.36
33.16
23.53
15.32
10.08
8.62
10.45
14.25
19.21
24.15
28.80
32.32
34.43
34.68
32.96
30.04
26.72
24.56
24.36
26.86
31.47
37.19
42.48
45.86
46.69
44.79
41.46
37.64
34.64
32.54
31.24
30.25
29.01
27.93
26.82
26.28
26.09
26.35
26.86
27.14
27.24
26.71
26.03
25.37
25.47
26.48
27.92
28.98
28.16
24.83
18.66
10.75
2.02
-6.55
-14.83
-23.11
-31.22
-38.87
-44.56
-47.51
-47.06
-44.12
-39.97
-36.12
-33.51
-31.56
-29.56
-25.89
-20.35
-12.99
-4.82
2.99
9.82
14.98
18.80
21.09
22.33
22.49
21.78
20.63
19.17
17.88
16.35
14.34
10.91
5.94
-0.26
-6.64
-11.86
-15.36
-16.87
-17.49
-17.78
-18.55
-19.39
-19.64
-18.68
-16.08
-12.86
-9.67
-7.77
-7.11
-7.47
-8.16
-8.32
-8.03
-6.89
-5.10
-1.98
2.67
8.98
16.21
22.94
27.95
30.25
30.70
30.33
30.95
32.94
35.80
38.13
38.36
36.54
32.98
29.22
25.77
22.84
19.71
15.24
9.04
0.61
-9.47
-21.04
-33.13
-44.94
-55.35
-62.85
-66.67
-66.15
-61.89
-54.54
-45.54
-35.81
-26.71
-19.14
-13.54
-10.13
-7.67
-5.41
-2.02
2.53
7.81
12.99
17.07
20.44
23.50
27.64
33.14
39.87
46.72
52.16
55.38
55.64
53.35
48.55
41.78
33.14
22.96
11.93
0.84
-9.03
-17.06
-22.58
-26.21
-28.35
-29.93
-31.31
-32.53
-33.70
-34.13
-33.99
-32.81
-30.82
-27.96
-24.36
-20.64
-17.02
-14.40
-12.61
-11.53
-9.85
-6.18
0.34
9.97
21.42
33.17
43.09
50.03
53.13
52.76
49.82
45.75
42.37
40.64
41.24
42.72
43.09
39.62
30.90
17.59
2.09
-11.82
-21.69
-26.42
-27.29
-25.86
-23.07
-19.00
-13.10
-7.02
-4.12
-9.00
-23.57
-44.99
-65.61
-76.05
-70.64
-50.20
-22.66
2.01
16.53
20.70
20.09
21.88
29.71
40.27
46.10
39.89
20.99
-3.42
-21.28
-22.77
-7.06
16.75
33.52
31.63
9.76
-21.48
-46.03
-52.13
-39.08
-17.89
-3.71
-6.79
-25.80
-49.41
-63.52
-60.19
-42.35
-20.93
-7.80
-7.25
-14.05
-16.71
-6.05
18.18
46.81
66.32
68.66
56.02
40.50
35.63
47.41
70.07
89.39
92.62
76.06
48.20
23.48
13.10
17.90
28.33
31.48
19.47
-4.92
-30.58
-44.96
-42.46
-27.46
-11.50
-5.66
-13.70
-30.59
-45.58
-50.47
-44.15
-33.43
-27.39
-30.71
-40.54
-47.91
-45.11
-30.38
-10.16
5.78
10.74
5.33
-2.73
-5.08
2.56
16.79
29.47
33.19
26.07
13.16
2.42
0.07
6.17
15.46
20.43
16.61
4.99
-8.49
-16.78
-16.80
-10.43
-4.14
-3.70
-10.88
-21.65
-29.18
-28.97
-21.47
-13.25
-11.92
-21.86
-40.69
-60.48
-72.52
-71.95
-61.27
-47.34
-37.72
-35.13
-36.63
-35.96
-28.23
-13.58
3.42
16.16
21.47
20.88
20.15
24.69
35.89
50.42
61.64
65.04
60.07
51.49
45.35
45.67
52.19
60.15
64.38
61.48
52.38
40.83
31.20
25.66
22.86
19.53
12.26
0.59
-13.33
-25.13
-31.82
-32.79
-30.40
-28.13
-27.68
-28.96
-29.47
-27.81
-24.23
-21.39
-22.14
-26.75
-32.80
-35.14
-30.18
-17.17
0.20
16.16
26.01
27.87
23.86
17.54
12.41
9.35
7.28
4.28
-0.64
-6.35
-10.52
-10.48
-6.19
0.82
7.19
10.64
11.02
10.30
11.66
16.19
23.02
28.49
29.35
24.23
14.76
5.16
-1.20
-2.56
-0.75
1.24
0.31
-4.46
-11.76
-19.35
-25.07
-28.50
-29.89
-30.48
-30.41
-29.32
-26.46
-21.77
-16.59
-12.03
-9.27
-7.26
-4.33
1.56
10.76
21.31
30.38
34.74
33.64
27.90
20.16
12.66
6.29
0.92
-4.36
-9.05
-12.13
-11.47
-6.24
2.69
12.52
19.38
20.57
15.06
4.93
-6.79
-16.56
-22.72
-25.14
-24.92
-23.30
-20.13
-15.23
-7.79
1.36
10.80
18.49
23.26
25.91
27.87
31.36
36.49
42.16
45.84
45.82
42.47
37.38
33.19
30.47
28.28
23.70
14.52
0.57
-16.03
-31.39
-42.75
-48.89
-51.40
-52.32
-53.27
-54.10
-53.48
-50.30
-43.99
-36.00
-27.55
-20.11
-13.49
-6.92
0.65
9.76
19.31
28.34
35.27
39.99
42.70
44.31
45.46
45.64
44.21
39.70
31.90
21.00
8.68
-3.07
-12.92
-20.13
-25.53
-29.87
-34.27
-38.65
-42.49
-44.79
-44.76
-42.46
-38.23
-33.11
-27.26
-21.34
-15.41
-10.30
-6.75
-4.99
-4.93
-4.99
-4.30
-1.96
1.29
4.55
7.16
9.01
11.32
14.61
19.23
23.76
26.65
26.73
23.95
19.93
16.25
14.40
14.15
14.70
14.49
12.41
8.19
2.19
-4.33
-10.58
-15.43
-18.94
-21.11
-22.67
-24.07
-25.56
-27.48
-29.34
-31.45
-33.31
-35.07
-36.31
-36.53
-35.46
-32.46
-28.00
-22.28
-16.39
-10.66
-5.33
-0.45
4.34
8.81
13.26
17.45
21.97
26.96
32.41
37.85
41.98
44.00
43.07
39.86
35.00
29.84
24.74
19.95
15.32
10.60
6.60
3.40
1.72
1.16
1.35
1.60
1.33
0.97
0.88
2.33
5.80
11.68
19.18
26.89
33.20
36.53
36.66
33.75
29.39
24.52
19.88
15.37
10.49
5.27
-0.12
-4.45
-7.53
-9.08
-10.07
-11.30
-13.24
-16.20
-19.38
-22.62
-25.25
-27.29
-28.25
-27.72
-25.64
-22.07
-18.18
-14.86
-13.17
-12.66
-12.47
-11.11
-7.75
-2.57
3.85
10.06
15.71
20.24
24.08
27.27
29.95
32.09
32.98
32.58
30.01
25.31
18.26
9.54
0.36
-8.35
-15.55
-21.69
-27.33
-33.68
-40.80
-47.74
-52.97
-54.77
-52.76
-47.18
-39.46
-30.50
-21.35
-12.27
-3.81
3.47
9.35
13.36
16.40
18.97
22.01
25.31
28.40
30.87
32.19
32.95
32.95
32.11
29.04
22.87
13.53
2.07
-9.02
-18.07
-23.91
-27.40
-29.63
-31.73
-34.01
-35.71
-36.38
-35.40
-33.18
-29.62
-24.90
-18.60
-10.79
-2.20
6.28
13.14
18.14
21.15
23.26
24.99
26.84
28.77
30.31
31.70
32.70
33.86
34.78
35.31
34.81
33.04
30.56
27.84
26.09
25.13
24.59
22.97
18.94
12.10
2.71
-7.47
-17.05
-24.50
-29.64
-32.68
-34.30
-35.44
-36.56
-38.38
-40.74
-43.66
-46.07
-47.21
-46.07
-42.26
-36.12
-28.06
-19.29
-10.05
-0.98
8.15
17.02
25.36
32.87
38.70
42.84
44.74
44.73
42.74
39.17
34.73
29.86
25.41
21.21
17.12
12.02
5.19
-3.48
-13.15
-21.96
-28.33
-31.02
-30.60
-28.07
-25.34
-23.44
-22.78
-22.79
-22.22
-20.57
-17.16
-12.70
-7.54
-2.45
2.34
7.02
11.38
15.61
18.81
20.59
20.05
17.13
12.38
6.71
1.80
-1.49
-2.35
-1.32
0.78
2.53
2.62
0.60
-3.41
-7.85
-11.21
-11.63
-8.74
-3.07
3.45
8.76
11.64
11.72
10.68
9.96
11.34
14.86
19.73
24.47
27.51
28.68
27.85
25.96
23.20
19.84
15.77
10.71
5.16
-0.74
-6.23
-11.36
-16.10
-20.87
-25.99
-31.16
-36.06
-39.59
-41.36
-40.86
-38.83
-36.22
-34.33
-34.05
-35.07
-36.57
-36.39
-33.32
-26.32
-16.18
-4.32
7.45
17.49
25.53
31.40
36.02
39.44
41.78
42.64
41.70
39.50
36.43
33.43
30.33
26.85
21.80
14.43
4.90
-5.90
-15.81
-23.35
-27.14
-27.44
-25.02
-21.10
-16.83
-12.87
-10.00
-8.16
-7.74
-8.09
-8.84
-8.90
-7.46
-3.93
2.03
9.67
18.55
27.29
35.17
41.22
44.98
46.52
45.81
43.63
40.04
35.50
29.67
22.45
13.85
3.92
-6.51
-16.87
-25.93
-33.20
-38.07
-40.68
-41.42
-40.69
-39.13
-36.77
-33.87
-29.80
-24.61
-18.06
-10.75
-3.50
2.94
7.49
10.35
11.31
11.14
10.14
9.02
8.49
8.68
9.96
11.42
12.42
11.60
8.43
3.04
-3.68
-9.92
-14.51
-16.34
-15.78
-13.49
-10.86
-9.14
-9.19
-11.44
-15.19
-19.71
-23.37
-25.51
-25.57
-24.12
-21.92
-19.69
-18.16
-16.92
-16.08
-14.89
-13.37
-11.10
-7.85
-3.44
2.60
9.76
17.85
25.64
32.47
37.56
40.37
41.10
39.73
36.96
33.08
28.89
24.62
20.53
16.44
11.94
6.92
1.21
-4.31
-9.32
-13.02
-15.60
-17.15
-17.93
-18.19
-17.25
-15.20
-11.64
-7.34
-2.88
0.79
3.19
4.94
6.67
9.75
14.52
20.99
27.95
33.75
37.02
37.06
34.58
30.72
27.46
25.39
24.43
23.14
20.10
14.70
6.92
-1.76
-10.64
-18.78
-26.37
-33.24
-38.97
-43.12
-44.78
-44.38
-42.52
-40.77
-39.79
-39.40
-38.49
-35.29
-29.27
-20.74
-11.76
-4.08
0.99
3.76
5.44
7.34
10.35
13.78
16.93
18.51
18.53
17.27
15.57
13.89
11.64
8.39
3.19
-3.36
-10.45
-16.40
-19.73
-20.00
-17.22
-12.82
-7.77
-3.37
0.24
3.36
6.62
10.98
16.66
23.94
32.09
40.34
47.22
51.55
52.64
50.33
45.45
38.57
30.71
21.71
11.63
0.04
-12.51
-24.82
-35.39
-42.32
-45.40
-44.84
-42.32
-39.12
-36.22
-34.06
-31.99
-29.86
-26.83
-22.85
-17.43
-10.53
-2.47
6.15
13.98
20.15
23.85
25.80
26.76
27.85
29.37
30.93
32.16
32.59
33.14
34.16
36.29
38.78
40.64
40.84
38.54
34.22
27.96
20.33
10.96
-0.08
-12.30
-24.69
-35.34
-43.21
-47.65
-49.49
-49.63
-49.08
-48.15
-46.75
-44.82
-42.21
-39.43
-36.23
-32.91
-29.13
-25.08
-21.00
-17.03
-13.70
-10.37
-6.78
-1.88
4.38
11.75
19.56
26.64
32.54
36.47
38.28
37.35
33.66
27.52
19.83
12.03
5.02
-0.62
-5.68
-10.81
-16.96
-23.74
-30.10
-34.43
-35.41
-33.37
-28.97
-24.05
-19.43
-15.63
-12.10
-7.94
-2.99
2.92
8.57
13.33
16.36
17.80
18.23
18.29
18.83
19.81
21.57
23.57
25.68
27.28
27.90
27.44
25.78
23.61
21.07
18.67
15.94
12.48
7.67
1.25
-6.08
-13.71
-20.29
-25.47
-28.86
-30.85
-31.71
-31.45
-30.05
-26.79
-21.70
-14.52
-6.13
2.80
11.24
18.49
24.64
29.59
34.19
38.55
43.20
47.80
51.87
54.87
55.82
54.41
49.93
42.48
32.00
19.12
4.88
-9.54
-22.56
-33.37
-41.21
-46.60
-50.03
-52.36
-53.79
-53.96
-52.37
-48.46
-43.08
-36.96
-31.75
-27.95
-25.56
-23.60
-20.52
-15.91
-9.51
-2.79
3.14
7.05
8.89
9.71
10.54
12.61
15.76
19.38
21.90
22.33
20.38
16.89
13.55
11.51
11.45
12.18
12.54
10.94
7.28
2.20
-2.89
-6.45
-8.40
-8.85
-9.22
-10.12
-11.82
-13.58
-13.96
-12.37
-8.43
-3.43
1.39
4.49
5.39
4.90
4.43
5.77
9.40
14.82
19.88
22.78
22.21
18.54
13.33
8.30
5.02
3.20
2.07
-0.14
-4.07
-9.55
-15.34
-19.61
-21.85
-21.87
-20.97
-19.81
-18.85
-17.60
-14.85
-10.09
-3.03
5.25
13.73
21.07
26.70
30.63
33.17
34.89
35.83
36.19
35.31
33.04
28.86
23.14
16.55
9.97
4.54
0.04
-3.74
-8.08
-13.48
-19.95
-26.57
-31.56
-34.01
-33.08
-29.72
-24.90
-19.94
-15.46
-11.17
-6.93
-2.47
1.20
3.15
2.22
-1.56
-6.81
-11.35
-12.68
-9.86
-3.05
5.53
13.77
19.72
22.98
24.14
24.08
23.87
23.29
22.24
19.89
16.45
12.22
7.98
4.40
1.15
-1.94
-5.89
-10.65
-16.27
-22.07
-27.25
-31.27
-33.48
-34.11
-32.99
-30.70
-27.38
-23.25
-18.48
-12.87
-6.89
-0.69
4.68
8.67
10.77
11.24
11.10
11.16
12.25
13.91
15.51
15.63
13.76
9.81
4.85
0.54
-1.86
-1.29
1.53
5.80
9.73
12.51
13.64
13.41
12.60
11.09
9.20
6.14
2.08
-2.76
-7.43
-10.68
-12.38
-12.70
-13.18
-14.78
-18.22
-22.85
-26.99
-29.00
-27.38
-22.29
-14.53
-6.17
1.26
6.61
9.79
11.43
12.23
13.29
14.72
17.00
19.58
22.40
24.94
27.00
28.45
28.50
26.95
22.96
16.86
8.99
0.55
-7.24
-13.91
-19.26
-24.40
-29.77
-35.83
-41.63
-45.72
-46.81
-44.04
-38.14
-30.01
-21.11
-11.85
-2.46
7.25
17.02
25.94
33.12
37.51
39.51
39.45
38.54
37.14
35.44
33.32
30.44
27.32
23.78
20.21
16.03
11.07
5.34
-0.76
-5.75
-8.78
-8.84
-6.32
-1.86
3.09
6.95
8.56
6.97
2.37
-4.70
-12.25
-18.66
-22.29
-22.81
-20.92
-17.77
-15.05
-13.03
-11.94
-10.71
-8.67
-5.12
0.09
6.10
12.27
16.92
19.12
17.70
12.62
4.82
-4.15
-11.96
-17.35
-19.71
-20.27
-20.41
-21.53
-24.06
-27.31
-30.35
-31.98
-32.31
-31.40
-30.11
-28.57
-26.86
-24.73
-21.88
-18.73
-15.34
-12.38
-9.68
-7.51
-5.73
-4.28
-3.28
-2.22
-0.99
1.47
5.64
12.29
21.47
32.41
44.11
54.68
62.89
67.29
67.64
64.04
57.39
49.28
41.04
34.28
29.27
25.82
22.30
17.21
9.47
-0.71
-11.62
-21.30
-27.64
-30.39
-29.94
-28.04
-25.88
-24.30
-23.25
-21.79
-19.50
-15.54
-10.33
-4.04
2.55
9.04
15.38
21.11
26.14
29.18
29.34
25.20
16.34
3.54
-11.53
-25.95
-37.50
-44.15
-45.67
-42.51
-36.17
-28.74
-22.01
-17.80
-16.47
-17.78
-19.84
-20.89
-19.05
-13.57
-4.91
5.74
16.33
25.74
32.78
37.57
39.97
40.30
38.75
35.20
30.21
23.67
16.53
9.33
3.24
-1.02
-3.39
-4.05
-4.10
-3.82
-3.68
-3.08
-1.55
1.07
4.57
7.63
9.24
8.18
4.58
-1.13
-7.87
-14.60
-20.72
-25.52
-28.87
-30.03
-28.95
-25.23
-19.40
-12.35
-5.39
-0.00
3.63
5.53
7.09
9.16
12.45
16.63
20.69
23.87
25.38
25.57
24.48
22.68
19.89
15.94
10.89
5.13
-0.32
-4.98
-8.15
-10.28
-11.60
-12.52
-13.09
-12.93
-12.07
-10.27
-8.38
-6.93
-6.84
-8.20
-10.46
-12.80
-13.77
-12.87
-9.71
-5.15
-0.25
3.65
5.53
5.17
2.52
-1.63
-6.93
-12.40
-17.62
-21.88
-24.91
-26.64
-27.15
-27.16
-26.83
-26.95
-27.32
-27.91
-27.95
-26.59
-23.43
-17.90
-10.75
-2.38
6.09
14.20
21.72
28.49
34.96
40.84
46.20
50.32
52.89
53.35
51.45
47.67
42.72
38.21
35.12
34.29
34.88
35.57
34.49
30.55
23.89
15.18
6.27
-2.14
-9.39
-15.95
-21.94
-27.34
-32.02
-35.28
-37.46
-38.50
-38.93
-38.41
-36.32
-32.21
-25.77
-18.15
-10.60
-5.02
-2.02
-1.42
-1.84
-1.50
0.85
5.81
12.47
20.02
26.68
31.52
33.57
32.58
28.91
22.64
14.72
5.47
-3.97
-12.81
-19.78
-23.87
-25.21
-24.38
-23.25
-23.11
-25.07
-28.57
-32.09
-33.69
-31.69
-25.79
-16.59
-6.26
3.55
11.06
15.93
18.38
19.32
19.90
20.15
20.26
19.25
16.82
12.76
7.76
3.03
-0.95
-3.86
-6.72
-10.18
-14.86
-20.14
-24.42
-26.26
-24.60
-20.24
-14.55
-9.74
-6.68
-5.17
-3.68
-0.67
4.39
11.08
17.46
22.38
24.92
25.98
26.74
28.40
31.51
34.97
37.91
38.95
38.17
35.94
33.28
31.06
29.04
26.83
23.09
17.22
8.85
-1.23
-11.63
-21.02
-28.39
-34.05
-38.60
-43.55
-49.29
-55.68
-61.15
-63.85
-62.59
-57.16
-49.52
-41.61
-35.54
-31.40
-28.19
-24.23
-18.11
-10.28
-1.64
6.07
12.38
17.50
22.46
28.08
33.91
38.96
41.46
40.84
36.99
31.22
24.71
18.69
13.86
10.31
8.30
7.10
6.64
6.16
5.58
4.78
3.97
3.72
3.78
4.30
4.33
3.57
1.64
-1.27
-4.47
-7.87
-11.12
-14.70
-18.45
-22.24
-25.17
-26.41
-25.62
-22.75
-18.96
-14.77
-10.88
-6.63
-1.35
5.53
13.79
22.06
29.24
34.10
37.02
38.58
39.90
41.24
42.24
42.21
40.01
35.64
28.93
20.76
11.59
2.12
-7.01
-15.28
-21.87
-26.92
-30.33
-33.09
-35.55
-37.90
-39.78
-39.97
-38.11
-33.79
-28.02
-21.65
-15.63
-10.30
-5.12
0.20
6.13
12.00
17.29
21.00
22.92
23.32
22.99
22.98
23.53
24.93
26.13
26.75
26.12
24.58
22.67
20.86
19.89
19.15
18.41
16.59
13.53
9.17
3.96
-0.97
-5.22
-7.99
-9.62
-10.27
-10.80
-12.04
-14.34
-17.96
-21.93
-25.41
-27.10
-26.66
-24.36
-21.42
-19.43
-19.50
-22.22
-26.56
-31.37
-34.76
-35.89
-34.44
-30.89
-26.21
-20.77
-15.18
-8.91
-1.95
6.24
15.43
24.98
34.23
41.92
47.64
50.59
50.93
48.58
44.00
38.02
31.19
24.40
17.43
10.09
1.30
-9.44
-21.92
-34.97
-46.26
-53.85
-56.00
-52.74
-44.78
-34.02
-22.33
-11.64
-3.27
2.39
5.21
6.44
6.97
8.29
10.96
15.15
20.40
25.36
29.15
30.30
28.53
23.53
15.96
6.92
-2.64
-11.39
-18.89
-24.47
-28.21
-29.76
-29.12
-26.60
-22.77
-19.06
-16.35
-15.55
-16.07
-16.81
-15.86
-11.94
-4.84
4.47
13.78
21.52
26.11
27.75
26.90
24.76
22.22
19.66
17.71
16.02
14.84
13.58
12.07
10.04
7.36
4.61
2.17
1.06
1.48
3.80
7.58
12.10
16.60
19.74
20.75
18.69
13.78
6.45
-1.83
-9.72
-15.82
-19.06
-19.27
-16.14
-10.83
-4.33
1.49
5.30
6.33
4.46
1.27
-1.77
-2.55
-0.34
4.87
11.80
18.40
22.92
23.46
19.47
10.81
-1.00
-13.98
-25.78
-34.51
-39.70
-41.73
-42.06
-41.48
-40.73
-39.08
-36.04
-31.25
-25.24
-19.58
-15.13
-12.77
-11.64
-10.85
-9.04
-5.50
-0.50
5.73
12.03
18.00
22.76
26.10
27.74
27.68
26.66
25.50
25.78
28.22
33.13
39.13
44.18
46.03
43.06
35.22
23.42
9.93
-3.52
-15.16
-24.51
-31.29
-35.57
-37.58
-37.07
-34.70
-30.61
-25.76
-20.53
-15.30
-10.07
-4.17
2.42
10.09
17.96
25.30
30.77
33.49
33.52
31.22
27.99
24.57
21.67
18.74
14.97
9.60
2.35
-5.81
-13.88
-20.42
-25.20
-28.12
-30.02
-31.40
-32.73
-34.15
-35.00
-35.23
-34.03
-31.51
-27.45
-22.08
-15.54
-7.46
1.90
12.72
23.95
34.60
42.94
47.85
49.49
48.74
47.71
47.62
49.11
51.01
51.80
50.04
45.17
37.98
29.38
20.79
12.29
3.98
-4.79
-13.83
-22.58
-30.38
-36.19
-40.34
-43.04
-45.17
-46.81
-47.65
-47.46
-45.89
-43.72
-41.41
-39.68
-37.94
-35.32
-30.66
-23.50
-14.51
-4.80
3.93
11.24
16.75
21.06
24.25
26.25
26.91
25.92
24.29
22.51
21.70
21.75
22.07
21.60
18.90
13.74
6.24
-1.94
-9.30
-14.16
-15.81
-14.95
-12.85
-11.61
-12.19
-14.93
-18.48
-21.26
-21.77
-19.59
-15.36
-9.87
-4.31
1.28
6.44
11.35
15.42
18.27
19.67
19.37
18.22
16.34
14.36
11.86
8.53
4.04
-1.79
-8.27
-14.99
-20.71
-24.77
-26.12
-24.13
-18.83
-10.51
-0.64
9.65
18.87
26.52
32.25
36.17
38.41
38.76
37.18
33.24
27.37
19.45
10.18
-0.25
-11.09
-21.44
-30.60
-37.54
-42.64
-46.19
-49.41
-52.57
-55.46
-57.21
-56.28
-52.31
-44.98
-35.39
-24.24
-12.52
-0.86
10.56
21.09
30.64
38.56
44.93
49.40
51.91
52.27
50.35
46.69
41.63
36.19
30.35
24.20
17.26
9.67
2.12
-4.41
-8.55
-10.38
-10.16
-9.39
-8.67
-8.15
-7.12
-4.44
-0.02
6.15
12.77
19.29
25.03
30.03
34.59
38.24
40.62
40.40
37.07
30.22
20.81
10.54
1.14
-5.81
-10.28
-12.86
-15.34
-19.03
-24.69
-31.67
-38.32
-42.98
-44.25
-42.44
-38.25
-33.53
-29.54
-27.32
-26.93
-27.62
-28.75
-29.16
-28.79
-27.41
-25.57
-23.37
-20.45
-16.27
-9.76
-0.90
10.07
21.22
30.73
36.96
39.43
38.99
36.63
33.69
30.16
26.11
21.04
15.11
8.85
2.62
-3.03
-8.58
-13.92
-19.01
-22.68
-23.64
-21.13
-15.34
-8.04
-0.78
4.85
9.00
12.23
15.53
19.37
23.24
26.67
28.65
29.18
27.85
24.69
19.12
10.86
0.14
-12.29
-24.39
-34.65
-41.27
-43.95
-42.74
-38.42
-32.17
-24.68
-17.24
-10.28
-4.67
-0.41
2.74
5.64
9.74
15.83
24.47
34.33
43.59
49.46
49.94
44.76
35.20
24.33
14.70
8.16
4.19
1.29
-2.57
-8.37
-15.68
-23.21
-29.01
-32.33
-32.69
-31.04
-27.99
-24.23
-19.96
-14.98
-9.76
-4.35
0.38
4.44
7.71
10.62
13.75
16.99
20.48
23.30
25.02
24.83
22.53
18.15
11.71
3.76
-5.53
-15.33
-25.10
-33.72
-40.57
-45.00
-46.74
-45.99
-42.92
-38.50
-32.96
-27.20
-21.34
-15.76
-10.51
-5.47
-1.08
2.95
6.16
8.85
10.95
12.82
15.02
17.62
20.92
24.17
26.73
27.33
25.47
21.32
15.83
10.63
6.72
4.55
3.01
1.15
-2.05
-6.16
-9.93
-11.78
-10.66
-7.55
-3.93
-2.35
-3.77
-7.92
-12.89
-16.05
-16.20
-13.07
-8.39
-3.89
-1.11
-0.18
-0.03
0.74
3.62
8.71
15.76
23.18
29.86
34.80
37.61
38.31
36.70
33.17
27.47
20.28
12.01
3.62
-4.22
-11.38
-17.81
-24.35
-30.88
-37.22
-41.93
-43.97
-43.04
-39.83
-36.29
-33.69
-32.69
-31.93
-29.52
-23.27
-12.35
2.29
18.41
32.78
43.56
49.51
51.60
51.07
49.53
48.07
46.64
45.26
42.96
39.52
34.30
27.30
18.68
8.75
-1.36
-10.56
-17.19
-20.54
-20.35
-17.80
-14.56
-12.37
-12.58
-15.17
-19.85
-25.04
-29.64
-32.50
-33.34
-32.34
-29.81
-26.54
-22.37
-17.70
-12.20
-6.15
0.12
6.18
11.05
14.41
15.54
14.65
11.72
7.50
2.82
-1.40
-3.93
-4.20
-1.88
1.84
5.83
8.32
8.76
7.42
5.55
4.97
6.15
9.14
12.13
13.76
12.98
9.95
5.88
1.39
-2.75
-6.83
-10.48
-13.15
-13.83
-11.51
-6.28
1.15
9.03
16.16
21.33
24.53
25.82
25.53
23.85
20.68
16.63
11.70
6.70
1.67
-3.10
-7.64
-12.06
-15.98
-19.57
-22.06
-23.20
-22.10
-18.31
-12.06
-3.97
4.15
10.96
15.10
16.62
16.08
14.66
13.46
12.98
13.42
14.04
14.50
13.64
10.99
5.97
-1.02
-8.80
-16.12
-21.26
-24.17
-24.97
-24.77
-24.04
-22.70
-20.72
-17.87
-15.15
-13.33
-13.39
-14.73
-15.82
-14.78
-10.17
-2.46
6.88
15.17
20.92
23.33
23.17
21.62
19.72
18.15
16.38
14.27
11.01
6.81
1.91
-2.84
-6.57
-9.29
-11.03
-12.88
-15.31
-18.67
-22.25
-24.71
-24.84
-21.76
-16.09
-8.81
-2.00
3.27
6.43
8.04
9.04
9.99
11.49
13.04
14.95
17.06
19.92
23.58
27.57
31.32
33.52
33.82
31.91
28.55
24.23
19.27
13.72
7.13
-0.31
-8.43
-16.17
-22.96
-28.06
-31.58
-33.79
-35.15
-36.42
-37.47
-38.59
-39.09
-38.73
-36.83
-33.12
-27.69
-20.55
-12.61
-4.19
3.73
10.88
16.96
22.07
26.90
31.71
37.02
42.08
45.93
46.87
43.82
36.89
27.15
16.92
7.66
0.32
-6.00
-12.50
-20.41
-29.72
-39.17
-47.22
-52.20
-54.08
-53.01
-50.32
-46.71
-42.87
-39.04
-34.85
-30.54
-25.56
-20.12
-13.80
-6.73
1.05
9.69
18.63
27.76
36.08
42.90
47.07
48.06
46.22
42.57
39.04
36.82
36.63
37.39
37.76
36.10
31.78
25.14
17.11
9.21
1.79
-4.59
-10.51
-15.94
-20.82
-24.66
-26.54
-26.61
-24.96
-22.82
-20.81
-19.43
-18.40
-16.53
-12.90
-6.45
2.62
13.71
25.07
34.98
41.83
44.76
43.96
39.95
34.21
27.24
19.75
11.40
2.42
-6.79
-15.35
-21.76
-25.85
-27.55
-28.13
-28.27
-28.41
-28.21
-26.44
-22.64
-16.21
-7.85
1.84
11.81
21.17
29.44
36.11
41.20
44.34
45.76
44.97
42.03
36.88
30.10
22.88
16.05
10.74
6.40
2.35
-2.86
-9.71
-17.63
-25.51
-31.67
-35.78
-37.84
-39.17
-40.30
-41.46
-41.79
-39.80
-34.76
-26.33
-16.08
-5.81
2.31
7.20
9.04
8.69
7.65
6.19
4.39
1.17
-3.78
-10.35
-17.60
-24.14
-29.52
-33.52
-36.87
-39.40
-40.81
-40.00
-36.21
-29.59
-21.01
-12.42
-4.90
0.48
4.15
6.74
9.26
12.60
16.48
20.65
23.78
25.16
24.03
20.66
15.85
10.47
5.62
1.62
-0.89
-2.12
-1.69
0.15
3.09
6.51
9.49
11.87
13.31
14.55
15.77
17.37
19.06
20.30
21.12
21.20
21.13
20.80
20.34
19.09
16.24
11.28
3.96
-4.89
-14.32
-22.50
-28.48
-31.54
-31.94
-30.59
-28.35
-26.43
-24.90
-23.75
-21.89
-18.59
-13.25
-6.00
2.26
10.99
19.25
27.28
34.92
42.46
49.46
54.93
57.97
57.35
53.16
45.71
36.33
26.12
16.01
6.75
-1.25
-7.15
-10.80
-11.64
-10.29
-7.30
-3.90
-1.22
0.12
-0.44
-2.36
-5.47
-8.74
-11.57
-13.16
-13.01
-11.33
-8.39
-5.53
-3.26
-2.35
-2.36
-2.65
-2.57
-1.42
0.33
2.19
2.81
1.65
-1.57
-6.15
-10.98
-15.03
-17.41
-18.35
-17.80
-16.72
-15.50
-14.93
-15.34
-16.58
-18.65
-20.48
-21.66
-21.20
-19.10
-15.49
-10.69
-5.44
0.14
5.32
9.75
12.27
12.29
9.55
4.92
0.04
-3.72
-5.34
-5.76
-6.07
-7.99
-11.90
-17.22
-22.56
-26.11
-27.47
-26.47
-24.12
-20.89
-17.18
-13.00
-8.25
-3.51
0.95
4.48
7.59
10.32
12.98
15.08
15.57
13.93
10.03
5.56
2.21
2.01
5.24
11.13
18.00
23.86
28.08
30.18
30.75
29.77
27.45
23.93
19.79
16.31
14.47
15.06
17.18
19.84
21.48
21.48
20.12
18.27
17.19
16.85
17.01
16.13
13.21
7.56
-0.48
-9.65
-18.81
-26.59
-32.82
-37.09
-40.01
-41.98
-43.39
-44.75
-45.84
-46.72
-46.57
-44.94
-41.02
-34.50
-25.62
-15.01
-3.97
6.75
16.12
24.27
30.94
36.44
40.73
43.66
45.56
46.28
46.38
45.71
44.47
42.57
40.01
37.08
33.94
31.14
28.32
25.49
21.86
17.38
12.10
6.58
1.71
-2.39
-5.57
-9.06
-13.77
-20.62
-29.70
-39.97
-50.11
-58.26
-63.53
-65.07
-63.09
-57.63
-49.35
-39.42
-29.09
-20.32
-14.11
-11.09
-10.12
-9.66
-7.92
-3.86
2.45
10.58
19.29
28.11
35.97
42.42
46.63
48.29
47.72
45.19
42.04
38.75
36.11
33.91
31.78
29.22
25.28
19.43
10.78
-0.65
-14.72
-30.07
-44.77
-56.87
-64.74
-68.16
-67.43
-64.25
-59.70
-55.14
-50.64
-45.97
-40.64
-34.06
-26.87
-19.42
-12.80
-7.09
-2.07
3.06
9.29
16.52
24.48
31.77
37.75
41.86
44.83
47.61
50.89
54.94
58.69
61.56
62.59
62.00
60.15
57.62
54.76
51.07
46.23
39.12
29.53
17.22
3.09
-11.46
-24.91
-35.68
-43.61
-48.93
-53.32
-57.72
-62.71
-67.48
-70.27
-69.64
-64.64
-56.51
-46.82
-37.92
-30.88
-25.87
-22.16
-18.35
-13.92
-8.06
-0.97
7.57
17.10
27.08
36.49
43.74
47.87
48.06
45.11
39.92
34.04
28.47
23.88
20.72
18.85
18.52
18.53
17.89
14.69
8.08
-1.80
-13.65
-24.77
-33.32
-37.68
-38.12
-35.49
-31.25
-26.93
-23.35
-21.38
-20.87
-21.62
-22.30
-21.76
-18.96
-13.87
-7.56
-1.27
3.54
7.03
9.47
12.14
15.43
19.38
23.45
26.55
28.68
29.69
30.43
31.15
32.19
33.35
33.97
33.81
32.14
28.92
23.67
16.92
9.12
1.27
-5.51
-10.73
-13.89
-15.66
-16.58
-17.63
-19.22
-21.45
-24.25
-27.34
-30.95
-34.61
-38.10
-40.21
-40.25
-37.80
-33.41
-28.59
-24.35
-21.64
-19.82
-18.37
-16.34
-13.39
-9.74
-5.33
-0.37
5.68
12.56
20.04
26.88
32.12
35.30
36.65
37.58
38.95
41.56
44.70
47.60
49.12
48.74
46.73
43.59
40.51
37.66
35.27
32.43
28.49
22.88
15.50
7.36
-0.94
-8.29
-14.61
-19.80
-24.33
-28.51
-32.29
-35.67
-38.06
-39.59
-40.01
-39.86
-39.19
-38.07
-36.40
-33.90
-31.13
-28.23
-26.31
-25.51
-25.89
-26.66
-26.61
-25.28
-22.42
-19.25
-16.68
-15.79
-16.14
-16.70
-16.03
-12.97
-7.69
-0.48
7.33
15.25
22.61
29.39
35.33
39.77
42.44
42.66
41.09
38.43
36.19
35.26
35.93
37.64
38.77
38.18
34.55
28.28
20.26
12.46
6.74
4.23
5.25
8.38
12.21
14.67
14.99
12.93
9.41
5.81
2.79
0.86
-0.89
-3.23
-7.41
-13.66
-21.63
-30.31
-38.10
-43.91
-46.57
-46.52
-44.52
-42.33
-41.33
-42.14
-44.60
-47.08
-48.18
-46.12
-40.29
-30.49
-17.60
-3.11
11.26
23.00
30.45
31.98
28.09
20.45
12.26
7.06
6.99
12.57
21.53
30.75
36.64
37.42
33.09
25.50
17.25
10.09
5.26
2.14
0.30
-1.21
-2.35
-2.71
-1.94
0.35
3.34
6.35
8.20
8.58
7.78
6.61
6.23
7.00
9.16
11.72
14.10
15.18
14.69
12.51
8.86
4.39
-0.76
-5.82
-10.91
-15.81
-20.68
-25.36
-29.40
-32.70
-34.68
-35.72
-35.79
-35.31
-33.91
-31.22
-26.97
-21.09
-14.69
-8.70
-4.66
-2.73
-2.46
-2.50
-1.25
1.96
7.28
13.31
19.08
23.46
26.71
29.43
32.37
36.11
39.91
43.27
45.12
45.50
44.52
42.74
40.70
38.36
35.80
32.58
29.04
24.83
20.03
14.21
7.26
-0.53
-8.88
-16.63
-23.60
-29.41
-34.64
-39.55
-44.09
-48.19
-51.24
-53.53
-55.26
-57.38
-59.93
-62.53
-63.91
-62.37
-57.08
-47.73
-35.87
-22.94
-10.70
0.15
9.68
18.15
26.02
32.75
38.13
41.44
43.08
43.49
43.58
44.03
44.38
44.18
42.18
38.30
32.78
26.70
21.22
16.50
12.21
7.05
0.26
-8.72
-18.76
-28.62
-36.54
-41.53
-43.92
-44.25
-44.21
-44.40
-45.40
-46.49
-46.50
-44.41
-39.22
-31.23
-20.98
-10.23
-0.03
8.45
15.33
21.21
26.50
31.70
35.76
37.85
36.57
31.66
23.72
14.09
4.83
-2.59
-6.93
-8.48
-7.75
-6.43
-5.88
-7.56
-12.19
-19.44
-28.70
-38.28
-47.13
-54.24
-59.37
-62.51
-63.92
-63.84
-62.38
-60.01
-56.49
-52.14
-46.41
-39.21
-30.58
-20.91
-11.34
-2.55
4.81
11.30
17.58
24.63
32.46
40.33
46.98
50.96
51.91
49.74
45.82
41.34
38.01
37.00
38.73
43.20
49.33
56.18
62.42
67.79
72.01
75.63
78.70
80.89
81.84
80.62
77.56
72.79
67.38
61.82
56.16
50.15
42.92
34.28
23.80
12.07
-0.56
-13.28
-25.59
-37.22
-47.88
-57.91
-67.14
-76.02
-84.05
-90.89
-95.61
-97.16
-95.06
-89.11
-80.56
-70.65
-61.15
-52.77
-45.67
-39.25
-32.38
-24.67
-15.46
-5.11
6.41
18.39
30.19
40.86
49.14
54.55
56.74
56.91
56.31
56.46
57.82
59.79
61.30
61.16
59.58
57.16
55.48
54.84
54.79
53.49
48.90
40.31
28.01
14.37
1.48
-8.82
-16.25
-21.65
-25.79
-29.51
-32.58
-35.09
-36.73
-38.18
-39.65
-41.39
-43.09
-43.57
-42.36
-38.77
-33.60
-27.71
-22.30
-18.13
-14.96
-12.48
-10.12
-8.32
-7.39
-8.16
-10.09
-12.06
-12.17
-8.63
-1.54
8.22
17.94
25.62
29.93
30.96
30.18
28.84
28.17
28.05
28.28
27.76
26.17
23.07
18.71
13.89
8.98
5.03
1.94
-0.27
-2.43
-5.22
-8.84
-13.34
-18.01
-22.83
-27.73
-33.55
-40.47
-48.40
-56.00
-61.36
-63.19
-60.55
-54.54
-46.61
-38.97
-33.12
-29.47
-27.76
-26.68
-25.39
-22.77
-18.78
-13.24
-6.55
0.89
8.75
16.10
22.42
26.59
28.53
28.24
26.97
26.22
27.09
30.07
34.02
37.76
39.71
39.62
37.64
34.59
31.23
27.37
22.85
16.87
9.74
1.84
-5.45
-11.05
-14.69
-16.46
-17.51
-18.19
-18.68
-18.10
-15.52
-10.33
-2.53
6.98
17.51
28.06
38.69
48.79
58.04
65.25
69.19
69.36
65.63
59.47
52.07
44.79
37.93
31.05
23.80
15.86
7.66
-0.70
-8.72
-16.88
-25.06
-33.13
-40.49
-46.03
-49.56
-50.85
-50.89
-50.17
-49.03
-47.23
-44.18
-40.13
-35.70
-32.60
-31.50
-32.70
-34.79
-36.35
-36.15
-33.67
-29.84
-25.17
-20.61
-16.01
-11.04
-5.30
1.50
8.74
15.58
20.28
21.89
19.53
14.13
7.39
1.90
0.11
2.68
9.31
17.56
25.36
30.68
32.88
32.38
29.89
26.81
23.78
21.99
21.79
23.64
27.03
30.83
33.74
34.22
32.00
27.03
20.62
13.87
8.04
4.01
1.93
1.79
2.43
2.73
0.88
-4.09
-12.57
-23.65
-35.41
-45.89
-52.85
-55.68
-54.12
-49.58
-43.28
-36.64
-30.57
-25.16
-20.68
-16.57
-12.99
-9.51
-5.83
-1.42
4.36
11.35
19.17
26.12
30.95
32.39
30.84
27.56
24.42
23.27
24.49
27.99
32.26
36.15
38.50
38.87
37.41
34.27
29.89
23.86
16.10
6.11
-5.67
-18.38
-30.48
-40.38
-47.55
-51.63
-53.69
-54.19
-53.82
-52.49
-49.87
-46.13
-41.49
-37.09
-33.32
-30.54
-27.71
-23.71
-17.54
-8.95
0.80
10.42
18.01
23.23
26.27
28.66
31.93
36.81
43.44
50.52
57.08
61.94
65.00
66.23
65.91
64.36
61.44
57.74
53.40
49.21
45.19
41.12
36.13
29.09
19.56
7.40
-5.91
-19.28
-31.32
-41.67
-50.42
-57.73
-63.93
-68.44
-71.35
-72.44
-72.40
-71.63
-70.42
-68.72
-65.87
-61.91
-56.70
-51.22
-45.75
-40.61
-35.36
-29.22
-22.09
-13.94
-5.92
1.49
7.77
13.30
18.51
23.55
28.44
32.29
34.90
35.94
36.16
36.15
36.69
37.97
39.40
40.40
39.78
37.58
33.97
30.09
26.98
25.38
25.61
26.81
28.37
28.97
28.08
25.12
20.28
14.17
7.66
2.23
-1.57
-3.08
-3.21
-3.09
-4.10
-7.09
-11.62
-16.90
-21.52
-25.07
-27.43
-29.26
-30.75
-31.70
-31.59
-29.67
-26.44
-22.16
-18.05
-14.34
-10.98
-7.34
-2.53
3.32
9.88
15.73
19.99
21.91
21.80
20.38
18.62
17.61
17.31
18.00
18.94
19.97
20.65
20.93
21.03
20.62
19.74
17.83
14.88
10.81
6.04
1.20
-3.06
-6.07
-8.14
-9.38
-10.98
-13.29
-16.56
-19.99
-22.05
-21.65
-17.93
-11.91
-5.09
0.19
2.49
1.45
-2.27
-7.10
-12.29
-17.23
-22.69
-28.91
-36.14
-43.30
-48.49
-50.36
-48.03
-42.79
-36.51
-31.45
-28.54
-27.37
-26.79
-25.71
-24.56
-24.11
-25.93
-30.01
-35.53
-40.36
-42.53
-41.26
-36.62
-30.17
-22.77
-15.35
-7.76
0.30
8.86
17.84
26.38
34.03
39.86
43.73
45.25
44.77
42.80
39.81
36.69
33.45
30.47
27.35
24.01
20.36
16.50
13.14
10.70
9.95
10.74
13.02
15.90
18.93
21.53
23.40
24.99
26.11
27.32
28.44
29.60
30.57
31.05
31.24
31.17
31.63
33.07
36.16
40.62
45.78
50.21
52.43
51.86
48.15
42.49
35.73
29.27
23.89
19.87
17.38
15.66
14.02
10.91
5.40
-3.42
-14.98
-28.09
-40.75
-50.47
-56.08
-56.77
-53.80
-48.70
-43.54
-39.80
-37.72
-37.08
-36.75
-36.27
-35.14
-33.79
-32.40
-31.33
-30.45
-29.04
-26.95
-23.49
-19.26
-14.76
-11.03
-8.89
-8.24
-8.77
-9.28
-9.29
-8.33
-7.20
-6.48
-7.05
-8.91
-11.02
-12.61
-12.33
-10.33
-6.99
-3.38
-0.38
2.14
4.52
7.72
11.62
15.94
19.29
21.23
21.80
22.20
24.23
28.47
35.10
42.54
49.31
53.95
55.84
55.36
52.91
49.17
43.88
37.15
28.38
18.01
6.64
-4.53
-14.00
-21.36
-26.18
-29.45
-31.89
-34.21
-36.40
-37.61
-37.31
-35.11
-31.90
-28.67
-27.05
-27.42
-29.67
-32.51
-34.15
-33.61
-30.19
-24.97
-19.19
-14.54
-11.84
-11.06
-11.79
-13.16
-15.21
-17.69
-20.89
-24.19
-26.74
-27.45
-25.48
-21.29
-15.32
-8.96
-2.46
3.86
10.41
17.54
24.83
31.96
38.07
43.19
47.22
50.77
53.83
56.25
57.48
56.48
53.10
46.87
38.66
29.25
20.21
13.14
8.80
7.53
7.94
8.43
6.89
2.36
-5.09
-14.02
-22.75
-30.35
-36.25
-41.50
-46.43
-51.43
-55.54
-57.29
-55.72
-50.40
-42.68
-34.11
-26.68
-21.15
-17.53
-14.77
-11.86
-8.49
-4.53
-1.13
1.39
2.40
2.40
2.34
3.00
5.22
8.61
12.70
16.31
19.17
21.32
23.86
27.70
32.87
39.05
44.42
47.99
48.88
47.64
45.48
43.35
42.01
41.07
40.34
39.10
37.59
35.77
33.88
31.76
28.78
24.93
19.89
14.32
8.32
2.30
-3.79
-9.99
-16.05
-21.91
-26.94
-31.52
-35.63
-39.97
-44.73
-49.65
-54.33
-57.49
-58.70
-57.46
-54.48
-50.49
-46.25
-42.23
-38.36
-34.73
-30.92
-27.43
-24.19
-21.69
-19.81
-17.86
-15.14
-10.34
-3.03
6.87
18.17
29.55
39.53
47.36
53.06
56.65
58.76
58.93
57.25
53.64
48.87
44.41
41.16
39.66
38.78
37.29
33.81
28.30
21.59
15.18
10.17
6.39
3.46
-0.00
-4.26
-9.36
-14.66
-19.39
-23.56
-27.30
-31.37
-35.68
-40.17
-43.85
-46.00
-46.23
-44.52
-41.90
-38.82
-36.25
-34.25
-33.10
-32.72
-32.81
-32.90
-31.92
-29.29
-24.22
-17.41
-9.90
-3.44
0.58
1.78
0.17
-3.03
-6.97
-10.40
-12.78
-13.88
-13.77
-12.76
-10.72
-7.86
-3.44
2.28
9.04
15.71
20.80
23.67
24.12
23.31
22.24
21.98
22.30
22.70
22.45
21.40
20.48
20.23
21.71
24.63
28.54
32.52
35.72
38.05
39.50
40.69
41.44
41.95
41.62
40.34
38.23
35.69
33.71
32.12
30.63
27.61
21.94
13.09
1.93
-9.68
-20.24
-28.67
-35.77
-42.25
-49.01
-55.56
-60.62
-63.07
-62.10
-58.64
-53.76
-49.03
-44.74
-40.54
-35.56
-29.18
-21.81
-13.81
-6.37
0.47
6.53
12.10
17.42
22.04
25.92
28.74
31.20
33.60
36.56
39.63
42.14
43.40
42.69
40.81
38.35
36.46
35.20
33.99
31.85
27.63
21.16
12.42
2.35
-8.76
-20.02
-31.04
-40.91
-48.41
-52.81
-53.24
-50.40
-45.28
-39.72
-35.17
-32.28
-31.03
-30.82
-31.49
-32.70
-35.10
-38.39
-42.27
-45.41
-46.12
-43.61
-37.58
-29.47
-20.77
-12.96
-6.26
0.09
6.72
13.79
19.88
23.51
22.98
18.80
12.73
7.71
6.51
9.88
17.41
27.00
36.93
45.88
53.59
60.22
65.96
70.78
73.97
75.47
74.55
71.48
66.41
59.99
53.15
46.26
39.79
33.29
26.51
19.07
11.25
3.69
-2.95
-8.23
-12.79
-16.99
-21.87
-27.31
-33.01
-38.27
-42.26
-45.10
-46.83
-48.12
-49.02
-49.56
-49.33
-48.05
-45.72
-42.53
-39.44
-36.68
-35.04
-34.30
-34.28
-34.57
-34.65
-34.68
-34.82
-35.79
-37.51
-39.87
-41.71
-41.94
-39.68
-34.54
-27.59
-19.72
-12.39
-6.07
-1.01
3.07
6.69
10.24
14.68
20.52
28.66
38.79
49.91
60.21
67.77
71.78
71.98
69.37
64.35
57.41
48.23
37.01
24.78
13.32
4.95
0.42
-0.33
0.66
1.58
1.19
-0.63
-2.60
-3.67
-2.89
-0.52
2.97
6.35
8.76
9.40
7.75
4.26
-1.01
-6.98
-13.25
-19.25
-24.85
-30.28
-35.20
-39.34
-41.66
-41.56
-38.25
-32.23
-24.26
-15.83
-8.78
-4.11
-2.85
-4.51
-8.26
-12.40
-15.37
-16.42
-15.44
-13.38
-11.00
-9.15
-7.36
-5.33
-2.33
1.53
5.36
8.50
9.94
10.02
9.11
8.22
7.77
7.58
7.32
6.51
5.57
4.82
5.48
7.79
11.85
16.88
21.50
24.75
25.48
23.79
20.01
15.46
11.42
8.86
8.06
8.35
8.99
8.69
7.53
5.62
4.14
3.97
5.21
7.61
9.82
11.09
10.74
9.35
7.74
6.83
6.89
7.09
6.54
3.69
-1.33
-7.83
-13.66
-16.67
-15.74
-10.71
-3.32
4.58
10.82
14.56
15.82
15.56
14.79
13.89
12.92
10.71
7.12
2.12
-2.72
-5.27
-3.94
1.98
10.89
20.35
27.08
29.36
26.86
21.42
15.55
10.96
8.65
7.32
5.78
2.69
-1.81
-6.38
-9.58
-10.30
-8.99
-6.46
-4.33
-3.06
-2.77
-2.82
-2.71
-2.60
-2.25
-2.00
-1.12
0.87
4.45
9.54
14.97
19.42
21.09
19.41
14.07
6.30
-2.61
-11.02
-17.57
-22.02
-24.06
-24.38
-23.15
-20.81
-17.55
-13.68
-9.72
-6.23
-4.12
-3.38
-4.36
-6.22
-8.41
-10.25
-11.14
-11.42
-11.15
-11.00
-10.75
-10.29
-9.05
-6.86
-4.02
-1.03
0.99
2.04
1.85
1.04
-0.20
-1.76
-3.40
-5.17
-6.64
-8.14
-9.72
-12.28
-15.97
-20.22
-23.44
-23.37
-19.06
-10.73
-1.21
6.30
8.80
5.42
-2.31
-11.52
-18.57
-21.60
-19.97
-15.25
-9.35
-4.16
-0.63
1.68
3.51
6.40
10.79
16.99
24.05
30.75
35.93
38.69
39.33
37.87
35.14
31.23
26.48
21.16
15.66
10.89
7.30
5.61
5.27
5.95
6.64
7.12
7.53
8.03
9.17
10.37
11.04
9.90
6.37
0.49
-6.79
-14.01
-20.35
-25.08
-28.85
-31.80
-34.29
-35.86
-36.00
-34.95
-33.27
-32.44
-32.96
-34.85
-36.56
-36.50
-33.57
-27.79
-20.60
-12.96
-5.94
0.87
7.84
15.47
23.50
31.01
37.06
40.42
40.95
38.31
33.12
26.04
18.07
10.52
3.99
-0.82
-4.37
-6.73
-8.52
-9.84
-10.90
-12.07
-13.47
-15.52
-17.61
-19.35
-19.85
-19.12
-17.60
-16.03
-15.05
-13.97
-12.00
-7.78
-1.26
6.70
13.94
18.37
19.13
16.60
13.26
11.36
12.95
18.14
25.40
32.59
37.35
38.79
36.54
31.34
23.35
13.10
0.86
-12.28
-24.04
-32.34
-35.22
-33.18
-28.43
-24.50
-24.25
-28.52
-36.10
-44.01
-50.12
-53.02
-53.50
-52.63
-51.22
-49.02
-44.95
-38.61
-29.90
-20.33
-11.05
-2.96
4.03
10.80
17.82
25.32
32.19
37.66
40.59
41.20
40.22
38.88
38.62
39.69
42.10
44.39
45.54
44.69
42.03
38.84
36.40
36.09
37.86
41.28
44.88
47.75
49.04
48.68
47.09
44.20
40.38
35.18
28.78
21.50
14.20
7.85
2.84
-0.67
-3.70
-6.61
-10.06
-13.69
-16.99
-19.55
-21.07
-22.01
-22.22
-21.92
-20.54
-18.03
-14.60
-10.79
-7.47
-4.78
-2.98
-1.51
-0.65
-0.53
-1.83
-4.91
-9.21
-14.14
-18.56
-22.52
-26.22
-30.67
-36.17
-42.19
-47.54
-50.44
-50.55
-47.91
-43.93
-39.64
-35.64
-31.95
-28.19
-24.61
-21.42
-19.50
-18.67
-18.56
-18.00
-16.07
-12.55
-7.58
-2.63
1.30
2.90
1.78
-1.83
-6.97
-11.99
-15.26
-14.85
-10.32
-1.77
8.73
18.83
26.29
29.68
29.69
27.79
26.40
26.90
29.82
34.28
39.00
42.98
45.50
47.07
47.70
47.89
47.46
46.48
45.09
43.26
41.15
37.99
33.40
26.53
17.63
7.53
-2.24
-10.08
-15.61
-18.76
-20.60
-21.44
-21.41
-19.95
-16.80
-12.63
-8.53
-6.23
-6.03
-7.63
-9.25
-9.44
-7.46
-3.58
0.46
3.20
2.98
-0.34
-6.44
-13.95
-21.37
-27.43
-30.96
-32.21
-31.35
-29.74
-28.36
-28.28
-29.90
-32.79
-35.98
-37.59
-36.55
-31.84
-24.17
-14.76
-5.38
2.37
8.08
11.45
12.95
12.36
9.76
4.91
-1.62
-8.74
-15.28
-20.01
-23.21
-25.24
-27.33
-29.93
-32.87
-35.57
-36.80
-35.99
-32.47
-26.60
-18.58
-9.51
-0.33
7.74
13.69
17.65
19.50
20.20
20.07
19.40
18.24
16.34
14.18
12.30
12.11
14.35
19.77
27.45
35.84
42.78
46.28
46.03
42.50
37.55
32.50
28.22
24.53
20.80
16.74
12.18
7.99
4.37
1.87
0.20
-0.80
-1.41
-2.21
-3.60
-6.70
-11.83
-19.31
-28.03
-36.23
-42.07
-44.03
-42.25
-37.33
-30.90
-23.77
-16.64
-9.36
-1.80
5.75
13.22
19.93
26.07
31.41
36.08
39.72
41.88
42.53
41.54
39.62
36.77
33.25
28.48
22.28
14.93
7.29
0.99
-3.24
-4.85
-4.87
-4.26
-4.29
-5.52
-7.52
-9.74
-10.86
-10.40
-7.91
-3.93
1.02
6.12
10.53
13.58
13.89
10.87
3.62
-6.96
-18.97
-29.69
-36.19
-37.17
-32.67
-24.86
-16.00
-8.56
-3.44
-0.74
0.02
-0.24
-1.38
-2.86
-4.70
-6.29
-7.39
-7.75
-7.09
-5.85
-4.14
-2.69
-1.65
-1.46
-1.90
-2.65
-3.17
-2.81
-1.82
-0.02
1.87
3.82
5.79
7.87
10.39
13.21
16.34
18.98
21.00
21.65
20.99
19.16
16.57
14.27
12.47
11.59
10.93
9.99
8.14
5.26
1.76
-1.83
-4.54
-6.30
-6.69
-6.23
-5.05
-3.53
-1.87
0.25
2.67
5.70
8.78
11.62
13.59
14.60
14.97
15.19
16.08
17.28
18.56
18.84
17.76
15.38
12.28
9.51
7.65
7.42
8.48
10.85
13.86
17.09
19.96
21.71
22.32
21.59
20.21
18.22
15.92
12.99
9.13
4.68
0.04
-3.63
-6.01
-7.16
-8.33
-10.60
-14.78
-20.78
-27.42
-33.75
-38.33
-40.90
-41.27
-39.93
-37.41
-34.32
-31.30
-28.49
-26.68
-25.79
-26.26
-27.83
-29.74
-31.13
-30.76
-28.58
-24.97
-21.62
-19.54
-19.34
-20.17
-20.53
-19.62
-17.25
-14.77
-13.16
-13.11
-13.98
-14.72
-14.46
-12.86
-10.72
-8.22
-5.74
-2.69
1.29
6.19
11.40
15.67
18.24
18.28
16.41
12.98
9.02
5.31
2.33
0.90
1.16
3.53
7.43
12.47
17.52
21.95
25.30
27.27
28.52
29.20
30.12
31.61
33.98
37.10
40.61
43.83
45.40
44.77
41.17
35.31
28.15
21.03
15.27
11.18
8.80
7.27
6.39
5.62
5.52
6.37
8.19
10.82
13.22
15.04
15.82
16.10
16.06
15.97
15.57
14.13
11.35
6.60
0.37
-7.03
-14.57
-21.41
-26.61
-29.35
-29.97
-28.93
-27.93
-28.19
-30.75
-35.33
-40.79
-45.64
-48.23
-48.07
-44.86
-39.61
-33.10
-26.47
-20.51
-15.39
-11.27
-7.65
-4.84
-2.64
-1.50
-1.27
-1.45
-1.31
0.34
3.45
7.64
11.13
12.61
11.02
6.73
1.28
-3.83
-7.11
-8.77
-9.44
-10.40
-11.84
-13.35
-14.01
-12.96
-10.72
-7.85
-5.80
-4.93
-5.13
-5.68
-5.80
-5.49
-4.80
-4.59
-4.92
-6.02
-7.24
-8.08
-8.38
-8.00
-7.55
-7.01
-6.69
-6.05
-4.92
-2.90
0.03
3.65
8.14
13.20
19.14
25.45
31.54
36.44
39.44
40.48
39.50
37.14
32.99
27.21
19.65
11.21
3.63
-1.51
-2.71
-0.28
4.67
9.86
13.73
15.12
14.17
11.93
9.18
6.91
4.87
2.79
0.05
-3.29
-6.96
-10.40
-13.21
-16.23
-20.07
-25.84
-33.21
-40.74
-46.44
-48.44
-46.63
-42.00
-37.09
-33.36
-31.57
-30.50
-28.16
-23.30
-15.42
-6.02
3.13
10.17
14.99
18.18
21.19
25.10
29.44
33.39
35.14
33.97
29.88
24.35
18.94
15.05
13.15
12.04
10.53
6.73
0.25
-8.15
-16.78
-23.47
-27.29
-28.19
-27.66
-26.50
-25.29
-23.04
-18.67
-11.89
-3.32
4.87
10.98
13.80
13.97
12.51
10.70
9.11
7.42
5.60
3.36
1.44
0.08
-0.48
-0.90
-2.00
-4.08
-6.96
-9.00
-9.00
-5.62
0.68
8.48
15.90
21.11
23.70
23.67
22.14
19.82
17.64
15.78
14.29
13.01
11.32
9.09
5.68
1.31
-3.80
-8.96
-13.50
-17.18
-19.73
-21.50
-21.99
-21.13
-18.31
-13.69
-8.12
-2.93
0.12
0.44
-1.90
-5.09
-7.32
-6.82
-3.34
1.83
6.90
9.64
9.39
6.14
1.38
-3.42
-6.81
-7.97
-7.14
-4.68
-1.96
0.46
1.82
2.27
2.29
2.47
3.34
4.28
4.80
3.76
1.19
-2.58
-6.31
-8.78
-9.49
-8.08
-5.18
-0.88
4.47
10.98
18.25
25.51
32.06
37.18
41.59
45.79
50.67
55.76
59.61
60.63
57.64
51.22
42.50
33.55
25.02
17.20
9.48
1.43
-6.31
-13.04
-17.39
-19.15
-18.46
-16.63
-14.86
-14.19
-15.09
-16.92
-19.15
-20.46
-20.42
-18.93
-16.71
-14.77
-13.93
-14.96
-17.59
-21.82
-26.57
-31.04
-34.05
-34.47
-31.81
-25.72
-17.07
-6.59
4.12
14.15
22.52
28.96
33.94
37.84
41.46
44.49
46.33
45.48
41.08
33.01
22.50
11.74
2.03
-5.57
-11.79
-17.34
-22.74
-27.76
-31.62
-33.80
-34.09
-33.70
-33.44
-34.40
-36.30
-37.94
-37.99
-35.03
-29.24
-21.66
-14.80
-10.48
-10.04
-12.67
-16.06
-17.70
-15.38
-9.29
-0.74
7.78
14.91
20.14
24.32
28.58
32.84
36.75
38.81
38.62
36.52
33.88
32.19
31.95
32.80
32.97
31.55
27.65
21.94
15.42
8.97
3.32
-1.73
-6.06
-10.02
-13.16
-15.56
-17.07
-18.07
-19.28
-20.86
-23.20
-25.63
-27.93
-29.58
-30.75
-31.72
-32.49
-33.37
-34.02
-35.05
-36.78
-40.05
-44.86
-50.12
-54.03
-54.38
-50.72
-43.71
-36.02
-29.59
-25.54
-23.12
-20.63
-17.08
-12.14
-7.07
-2.67
0.62
3.58
7.18
11.81
17.05
21.40
24.31
25.34
25.60
26.11
27.30
28.96
29.85
29.43
27.44
25.20
23.92
24.80
27.84
31.98
35.97
38.34
38.82
37.14
33.89
29.34
24.22
19.29
15.04
11.87
8.85
5.08
-1.04
-9.81
-20.22
-30.01
-36.32
-37.86
-34.47
-28.24
-21.14
-15.01
-10.26
-6.40
-3.04
0.19
2.57
3.80
3.71
3.47
4.29
7.26
12.42
18.17
23.03
25.36
25.34
23.91
22.67
22.53
23.49
24.60
23.99
21.04
15.22
7.84
0.58
-5.04
-7.84
-8.16
-6.71
-4.98
-3.38
-2.38
-1.48
-0.49
0.19
0.42
-0.39
-1.70
-2.98
-3.20
-2.47
-1.39
-1.12
-3.03
-7.04
-12.69
-18.24
-22.29
-23.47
-21.70
-17.64
-12.63
-8.85
-7.34
-8.89
-12.46
-16.44
-18.93
-18.61
-15.33
-9.54
-3.01
3.25
7.83
10.68
12.28
13.42
15.43
18.74
23.59
28.93
34.12
38.02
40.42
41.67
41.92
41.75
40.77
38.89
35.51
31.08
25.97
21.18
17.66
15.34
14.15
12.88
10.95
8.02
5.08
3.20
3.09
4.61
5.80
5.06
0.81
-6.41
-14.82
-22.10
-26.42
-27.69
-26.84
-26.14
-26.80
-29.74
-34.09
-38.23
-40.67
-40.29
-37.72
-34.09
-31.28
-29.77
-29.41
-28.75
-26.55
-22.85
-18.32
-14.91
-13.49
-14.27
-15.89
-17.02
-16.80
-15.36
-14.00
-13.38
-14.30
-16.09
-17.97
-19.03
-18.79
-17.56
-15.64
-13.75
-11.31
-8.00
-3.04
3.30
9.55
13.94
14.63
11.50
5.35
-1.52
-7.56
-11.58
-13.40
-13.52
-11.93
-9.04
-4.80
0.20
5.61
10.92
16.15
21.25
25.69
29.25
31.10
31.68
31.83
32.87
35.41
38.92
41.89
42.22
39.38
33.67
27.26
22.39
20.42
21.34
23.43
24.77
23.49
19.86
14.73
10.10
7.11
5.48
4.25
1.65
-2.92
-9.30
-15.91
-21.62
-25.56
-28.00
-29.98
-31.83
-33.95
-35.55
-36.19
-35.44
-33.83
-31.98
-30.39
-29.23
-27.06
-22.74
-14.95
-4.12
7.57
16.89
20.97
19.02
12.08
3.70
-3.14
-6.20
-5.54
-2.94
-0.23
1.13
1.18
0.35
-0.15
-0.28
0.04
0.45
0.46
0.43
0.30
0.50
0.67
0.84
0.55
0.00
-0.16
0.33
2.06
4.30
6.28
6.78
5.45
2.58
-0.76
-3.01
-3.72
-2.54
-0.50
1.76
3.48
4.48
4.88
4.89
5.26
6.16
8.47
12.15
16.97
22.11
26.11
27.97
27.03
24.27
20.72
18.30
17.71
18.87
21.01
22.51
22.36
19.66
14.81
8.02
0.49
-6.85
-13.14
-17.23
-18.93
-18.09
-15.74
-12.76
-10.62
-9.90
-10.79
-13.20
-16.19
-19.41
-21.89
-23.19
-22.46
-19.43
-14.21
-7.73
-2.00
1.71
2.19
0.11
-3.47
-7.05
-9.77
-11.56
-12.68
-14.07
-15.74
-18.21
-21.25
-24.91
-29.19
-33.65
-37.70
-40.00
-39.95
-36.71
-30.87
-23.10
-14.44
-6.08
1.52
8.01
13.97
19.63
25.89
32.55
39.29
45.43
49.71
51.65
50.45
46.32
39.32
30.65
21.43
13.10
6.99
3.03
0.86
-1.25
-4.60
-10.27
-17.71
-25.49
-31.69
-34.26
-32.98
-28.29
-22.37
-17.22
-14.45
-14.30
-15.82
-17.57
-17.77
-16.08
-12.24
-7.15
-1.51
4.20
9.45
14.11
17.75
20.79
23.10
25.31
27.05
27.59
26.11
21.54
14.27
5.28
-3.24
-9.85
-13.47
-14.55
-14.40
-14.06
-14.56
-15.35
-15.68
-14.24
-10.74
-5.42
0.47
5.54
9.62
12.83
16.73
22.11
29.01
36.31
42.36
46.02
46.84
45.84
43.56
40.91
37.69
33.63
28.87
23.64
18.82
14.96
13.07
13.14
15.45
19.22
23.05
25.57
25.02
20.99
13.82
5.15
-3.78
-11.73
-18.67
-25.00
-30.47
-34.94
-37.20
-36.89
-34.20
-30.46
-27.15
-25.19
-24.52
-23.25
-19.80
-12.70
-2.64
8.08
16.32
19.61
17.36
10.37
1.39
-7.62
-14.88
-20.07
-23.62
-25.96
-27.62
-28.67
-29.90
-31.50
-34.11
-37.19
-39.68
-40.31
-37.67
-31.73
-22.86
-12.74
-2.56
6.30
13.45
19.27
23.93
27.99
30.71
31.40
28.72
22.54
13.52
3.69
-4.19
-8.57
-8.72
-6.00
-2.02
1.65
4.70
7.41
10.12
13.24
15.91
17.71
17.78
16.11
12.91
8.73
4.23
-0.12
-3.25
-5.01
-4.75
-2.82
0.20
3.55
6.36
8.12
8.19
6.93
4.36
1.48
-1.08
-2.97
-3.96
-4.61
-5.32
-7.00
-9.61
-13.40
-17.65
-21.33
-23.64
-23.66
-21.77
-18.69
-16.13
-14.80
-14.88
-14.93
-13.07
-8.34
-0.50
8.64
17.25
23.40
26.73
27.74
27.77
28.37
29.86
32.38
34.72
36.04
35.31
32.40
27.72
22.25
17.68
14.81
14.58
16.52
20.01
23.99
27.43
29.78
30.46
29.88
28.09
25.84
23.05
19.76
15.68
10.51
4.46
-2.71
-10.63
-19.67
-29.46
-39.61
-49.06
-56.15
-59.74
-58.95
-54.70
-48.24
-41.56
-35.59
-30.60
-26.27
-21.98
-17.81
-13.45
-9.13
-4.42
0.59
5.59
9.81
12.00
11.57
7.97
2.16
-4.75
-10.88
-14.90
-15.89
-13.64
-9.09
-3.25
2.06
5.97
8.12
9.32
10.89
13.65
17.93
22.84
27.96
32.51
36.48
39.57
41.19
40.57
36.59
29.16
18.35
5.61
-7.50
-19.11
-27.61
-32.27
-32.70
-30.00
-25.46
-21.20
-18.45
-17.63
-17.70
-17.02
-14.73
-10.55
-6.11
-2.99
-2.75
-5.62
-10.72
-16.36
-20.57
-22.81
-23.12
-23.18
-24.35
-27.44
-31.88
-36.10
-38.37
-37.09
-32.44
-24.76
-15.48
-5.77
3.53
11.50
17.75
21.84
24.41
25.88
27.21
28.27
28.32
26.30
21.08
12.75
1.65
-10.95
-24.14
-36.49
-46.67
-53.27
-54.97
-51.81
-44.53
-35.55
-26.92
-20.13
-14.97
-10.24
-4.75
2.52
11.29
21.73
33.54
46.52
59.69
71.28
79.27
81.89
79.35
72.62
64.08
55.61
48.36
42.76
38.69
36.41
35.75
36.85
38.51
39.59
39.00
36.57
33.16
29.50
26.13
21.90
15.92
7.17
-4.00
-16.00
-26.90
-34.63
-38.72
-39.34
-38.10
-36.17
-34.53
-33.32
-32.25
-31.52
-31.20
-32.25
-34.73
-38.44
-42.02
-43.86
-42.97
-39.15
-33.94
-28.77
-25.21
-23.10
-21.66
-19.81
-16.99
-13.92
-11.31
-10.27
-10.36
-11.09
-11.17
-9.87
-7.28
-3.57
0.23
3.72
5.95
6.58
4.73
0.31
-6.00
-12.93
-17.90
-19.05
-14.97
-6.58
4.27
14.62
22.00
25.35
24.44
20.73
15.34
9.87
5.00
1.53
0.02
0.58
3.17
6.19
8.06
6.69
1.55
-6.65
-15.71
-22.86
-26.14
-24.19
-17.63
-7.49
4.08
15.25
24.43
30.35
32.55
30.69
25.79
18.81
11.50
4.87
-0.44
-4.43
-7.92
-11.35
-15.56
-20.12
-24.71
-28.14
-29.59
-28.99
-26.62
-23.84
-21.51
-20.54
-20.41
-20.29
-18.80
-15.02
-9.35
-2.46
4.06
9.63
13.92
17.65
21.32
25.28
29.64
33.68
37.30
39.72
40.70
39.54
36.00
30.19
22.93
16.23
11.68
11.12
14.58
21.37
29.72
37.69
44.02
47.92
50.12
51.20
52.30
53.38
53.92
52.90
49.36
43.31
34.86
24.97
13.70
1.42
-11.78
-25.06
-36.75
-45.21
-49.07
-49.01
-46.40
-43.52
-41.27
-39.34
-36.59
-31.69
-24.82
-16.72
-9.22
-3.19
0.75
2.85
3.78
3.55
2.41
-0.03
-3.34
-7.39
-11.37
-14.96
-18.17
-20.95
-23.93
-26.89
-29.76
-31.52
-31.47
-29.04
-24.68
-19.89
-15.78
-13.41
-12.06
-10.63
-7.62
-2.56
3.74
9.70
13.24
13.69
10.79
5.84
-0.04
-5.97
-11.25
-15.57
-18.11
-18.58
-16.41
-12.35
-7.20
-2.25
1.33
3.24
3.47
2.94
2.29
2.64
4.19
6.76
9.64
11.50
11.60
9.43
5.98
2.11
-0.83
-2.46
-3.23
-3.62
-4.36
-5.39
-7.13
-9.57
-13.43
-18.72
-24.44
-28.85
-29.73
-26.34
-19.25
-11.29
-5.02
-2.28
-3.16
-6.05
-9.06
-10.26
-8.87
-4.02
4.19
15.36
28.15
40.31
49.46
53.28
51.30
43.80
32.73
20.23
8.33
-1.45
-8.41
-12.11
-13.26
-12.23
-10.15
-7.69
-5.54
-3.99
-3.14
-3.26
-3.91
-5.15
-6.23
-6.70
-6.34
-5.34
-4.41
-4.08
-5.19
-7.34
-10.24
-12.85
-14.29
-13.81
-11.10
-6.68
-1.00
4.49
9.05
11.89
13.06
12.90
12.01
11.24
10.70
11.00
12.05
14.37
17.97
23.11
29.41
35.60
40.49
42.16
40.04
34.34
26.58
18.61
12.11
8.26
7.15
9.20
13.99
21.17
29.37
37.03
42.31
43.62
40.91
34.39
25.49
15.23
4.96
-4.52
-12.43
-17.91
-20.98
-21.75
-21.38
-20.53
-19.80
-18.60
-15.79
-10.61
-2.59
6.96
16.46
23.57
26.90
25.89
21.19
14.53
7.47
1.76
-2.14
-3.97
-4.52
-4.49
-4.53
-5.24
-6.45
-8.31
-10.37
-13.10
-16.75
-21.85
-28.53
-35.82
-42.41
-46.51
-47.76
-46.32
-43.78
-41.41
-39.69
-38.34
-36.35
-33.48
-29.47
-25.20
-20.97
-16.91
-12.84
-8.55
-4.50
-1.40
-0.91
-3.67
-9.98
-18.60
-27.33
-33.66
-35.41
-32.08
-24.12
-13.82
-3.33
5.59
12.39
17.47
21.23
24.14
25.52
25.28
23.28
20.31
17.39
15.38
14.71
14.61
14.39
12.68
9.26
4.56
0.08
-2.64
-2.74
-0.17
3.48
7.08
9.42
10.55
11.28
12.62
15.28
18.86
22.89
25.93
27.39
26.75
24.19
20.15
15.16
10.23
5.73
2.61
0.93
0.88
2.03
3.82
5.68
6.70
6.94
6.22
5.24
4.17
3.16
1.52
-1.73
-7.01
-14.84
-24.33
-34.74
-44.72
-53.32
-59.61
-62.68
-62.16
-57.42
-49.03
-37.56
-24.59
-11.38
0.64
10.43
18.00
23.35
27.44
30.49
32.78
33.51
32.08
28.50
23.18
17.73
13.26
10.85
10.23
11.17
12.91
14.68
16.24
16.84
16.47
14.80
12.40
9.63
7.21
5.80
5.56
7.14
10.39
15.46
21.30
26.83
30.36
30.71
28.14
23.58
19.19
16.26
15.69
16.77
18.66
20.54
21.47
21.14
18.79
14.50
8.33
1.73
-3.93
-7.59
-9.06
-9.88
-11.35
-14.85
-19.94
-25.73
-30.54
-33.28
-33.94
-32.60
-30.21
-27.16
-24.59
-23.31
-24.65
-29.37
-36.98
-46.46
-55.56
-62.79
-66.91
-68.27
-67.35
-64.81
-61.28
-56.70
-51.48
-45.43
-38.87
-31.25
-22.41
-12.46
-1.95
7.45
14.63
18.58
19.94
19.54
18.73
18.49
19.24
21.52
25.21
30.23
34.96
37.73
36.62
31.12
22.69
13.90
7.81
5.59
7.26
11.05
15.76
20.69
25.84
31.24
36.03
39.59
40.95
40.71
39.88
39.76
40.86
42.35
43.00
41.02
36.14
28.75
20.72
14.02
10.40
10.74
14.60
21.57
30.30
39.97
49.18
56.57
60.46
59.48
53.69
43.78
31.94
19.87
9.23
0.39
-6.46
-11.39
-14.80
-16.59
-17.57
-18.19
-19.23
-20.47
-21.52
-22.22
-22.67
-24.18
-27.40
-32.75
-38.79
-43.85
-46.51
-46.56
-45.54
-44.84
-45.46
-46.12
-45.00
-40.26
-31.88
-22.08
-13.57
-8.79
-7.82
-9.74
-12.48
-15.07
-17.12
-18.84
-20.58
-21.84
-22.57
-22.27
-21.32
-19.76
-17.52
-14.30
-9.75
-4.40
1.23
5.80
8.92
10.46
10.85
10.39
8.84
5.94
0.93
-5.68
-13.10
-19.67
-23.85
-24.84
-22.78
-18.86
-13.82
-8.69
-3.44
1.66
6.48
10.25
11.82
10.62
5.90
-1.81
-11.88
-22.74
-32.92
-40.55
-43.98
-42.55
-35.83
-24.98
-11.35
2.89
16.20
27.14
34.42
37.61
36.10
30.84
23.20
15.77
10.76
9.80
12.94
18.21
23.51
26.42
26.71
25.47
25.32
28.29
34.62
42.89
49.77
52.77
50.34
43.65
34.86
26.82
21.67
19.80
20.76
22.80
24.78
25.40
24.64
23.03
21.04
19.20
16.99
14.10
9.86
4.94
0.21
-3.03
-4.03
-3.39
-2.16
-1.95
-2.92
-4.77
-6.14
-6.29
-5.70
-5.42
-7.08
-11.09
-17.35
-24.42
-31.22
-36.81
-40.70
-42.86
-43.11
-41.86
-38.92
-34.87
-30.00
-24.76
-19.67
-15.31
-12.79
-12.83
-16.57
-23.68
-33.11
-42.63
-49.91
-53.38
-52.49
-48.58
-42.85
-36.77
-30.22
-22.48
-12.69
-0.77
11.79
23.47
32.53
39.00
43.33
46.46
48.44
48.51
46.08
40.37
32.13
22.10
11.79
2.26
-5.33
-9.81
-10.60
-7.01
0.14
9.78
19.90
29.21
36.85
42.46
46.42
48.47
48.93
47.50
44.72
40.67
35.59
29.67
22.52
14.64
6.29
-1.30
-7.59
-11.99
-14.94
-17.42
-19.98
-23.12
-26.10
-28.47
-29.29
-28.70
-27.25
-25.58
-24.51
-24.01
-24.26
-24.75
-25.69
-26.81
-28.00
-28.77
-28.48
-27.29
-25.73
-25.90
-29.26
-36.52
-46.07
-54.59
-58.76
-56.38
-48.36
-37.09
-26.00
-16.70
-9.34
-2.79
4.13
11.36
18.57
24.56
29.10
31.92
33.13
32.75
30.73
27.46
23.19
18.67
13.76
8.55
2.81
-2.99
-8.09
-11.88
-13.66
-13.83
-12.31
-9.32
-4.55
1.90
9.30
16.54
21.85
24.54
24.17
21.86
18.68
16.13
15.21
15.83
17.48
18.35
17.33
13.60
8.34
3.65
1.91
4.59
10.97
19.58
27.96
35.11
40.64
45.12
48.82
51.37
52.50
51.44
48.45
43.68
37.66
30.40
21.98
12.87
3.54
-4.64
-11.02
-14.71
-16.07
-15.43
-13.71
-12.20
-11.71
-13.46
-17.45
-23.39
-29.48
-34.21
-36.37
-35.85
-34.30
-33.18
-34.17
-37.02
-40.81
-43.51
-43.54
-40.55
-34.86
-28.00
-21.23
-16.10
-13.24
-13.25
-15.90
-19.86
-23.63
-25.09
-23.51
-18.70
-12.11
-4.95
1.81
7.50
12.17
15.14
16.19
14.90
12.30
9.88
9.49
12.21
17.02
22.15
25.17
25.31
22.81
19.52
17.25
16.89
18.65
21.66
25.32
28.65
31.40
32.90
32.82
31.25
28.36
25.01
21.54
18.61
15.74
12.88
9.95
7.00
4.44
2.00
-0.37
-3.31
-6.41
-9.26
-11.05
-11.33
-10.45
-8.99
-7.93
-7.06
-6.39
-5.47
-4.55
-4.57
-6.50
-11.10
-17.78
-26.05
-34.68
-43.31
-51.46
-58.48
-63.31
-64.70
-62.56
-57.19
-50.18
-42.48
-34.61
-26.14
-16.50
-6.00
4.67
13.91
21.21
26.52
30.91
35.15
39.30
42.85
44.54
44.42
43.06
42.46
44.18
48.93
55.80
62.50
67.12
68.25
66.48
62.67
57.88
52.27
45.51
37.68
29.07
20.92
13.47
6.68
-0.60
-8.93
-17.93
-26.46
-32.95
-37.21
-39.65
-41.84
-44.42
-47.22
-49.16
-49.06
-47.16
-44.48
-43.39
-45.08
-49.79
-55.69
-60.25
-61.34
-58.13
-52.07
-44.95
-38.90
-34.38
-30.74
-26.45
-20.44
-12.94
-4.40
3.83
11.43
17.98
23.44
27.19
28.22
25.93
19.60
9.98
-2.05
-14.49
-25.50
-33.19
-36.19
-34.59
-29.13
-22.04
-15.10
-10.03
-6.99
-5.34
-4.06
-2.06
0.50
3.28
5.02
5.28
3.90
1.88
0.39
0.06
1.25
3.02
5.25
7.81
11.75
17.63
25.13
33.26
40.17
45.45
49.34
53.52
58.70
64.42
69.18
71.11
70.06
66.90
63.82
61.81
60.77
59.23
55.43
48.73
39.48
29.55
20.27
13.18
8.56
6.52
6.41
7.33
8.58
8.75
7.55
4.68
1.09
-2.48
-5.22
-6.66
-7.29
-7.13
-6.84
-6.27
-5.80
-5.38
-5.27
-6.36
-9.49
-15.91
-25.50
-37.37
-48.79
-56.84
-59.54
-56.66
-50.21
-42.61
-36.21
-31.24
-27.22
-22.92
-18.34
-14.18
-11.10
-9.68
-8.91
-8.14
-6.79
-5.80
-6.19
-8.35
-11.74
-14.29
-14.62
-11.90
-7.49
-3.21
-0.85
-1.30
-3.92
-7.97
-12.38
-17.26
-22.52
-28.42
-34.54
-39.71
-42.66
-42.15
-38.44
-32.36
-26.09
-21.12
-18.32
-17.14
-16.04
-14.21
-11.41
-9.20
-8.86
-11.20
-15.03
-18.01
-18.04
-13.85
-6.43
3.07
13.22
24.00
35.44
47.04
57.45
64.46
67.21
65.89
62.68
59.19
56.15
52.65
46.90
37.99
25.74
11.62
-3.30
-17.88
-31.79
-44.55
-55.02
-61.86
-63.30
-59.15
-50.01
-38.13
-25.81
-15.13
-7.16
-1.67
1.63
3.54
3.81
2.44
-0.67
-4.69
-8.08
-9.62
-8.22
-4.41
1.44
8.38
16.34
25.03
33.85
42.15
48.74
53.79
57.62
61.36
65.06
67.74
67.87
63.89
56.04
45.40
34.21
23.67
14.39
6.13
-1.51
-8.38
-14.48
-19.39
-23.74
-27.74
-31.59
-34.68
-35.80
-33.86
-28.03
-19.12
-8.25
2.26
10.64
15.53
16.98
16.36
14.97
14.14
13.40
11.94
8.49
3.39
-1.60
-4.51
-4.00
-1.34
1.18
0.74
-3.15
-8.92
-13.59
-14.47
-11.23
-5.02
1.52
7.03
11.00
14.06
16.76
18.65
19.02
16.57
11.29
3.58
-5.06
-13.46
-20.66
-26.10
-30.00
-32.37
-33.87
-34.63
-35.30
-35.89
-36.29
-36.11
-34.56
-31.63
-27.36
-23.12
-19.98
-18.92
-19.54
-20.26
-19.50
-16.16
-11.54
-7.52
-6.57
-9.24
-14.10
-18.30
-18.79
-14.48
-5.64
5.30
16.03
24.21
28.71
29.35
26.52
21.57
15.32
9.04
3.05
-2.08
-5.96
-7.84
-6.61
-2.01
5.84
15.12
23.84
29.80
32.29
31.99
30.80
31.14
33.82
38.71
43.54
45.90
43.87
37.56
28.81
19.60
11.49
3.46
-6.13
-19.11
-34.79
-50.35
-62.24
-67.71
-67.31
-63.48
-59.98
-58.57
-59.05
-59.40
-57.25
-51.85
-43.60
-34.38
-25.35
-17.38
-10.20
-3.28
3.68
10.87
17.73
24.13
29.38
33.44
36.10
37.79
38.99
39.81
40.36
39.76
37.93
34.77
31.48
29.30
29.12
31.09
33.63
35.12
33.60
28.72
20.90
11.96
3.93
-2.12
-5.87
-8.54
-11.05
-14.22
-17.27
-18.89
-18.05
-14.87
-11.32
-9.39
-10.94
-15.47
-21.26
-25.76
-27.25
-25.37
-20.60
-14.39
-7.51
-0.88
5.29
10.43
14.17
16.47
17.26
17.25
16.48
15.57
14.54
14.18
15.25
18.35
23.72
30.33
37.22
43.02
47.43
50.23
51.71
52.14
51.08
48.51
44.02
38.17
31.39
24.75
19.02
14.21
9.79
4.39
-2.70
-11.89
-21.70
-30.20
-35.50
-36.88
-35.22
-31.75
-27.93
-23.46
-17.84
-10.38
-2.00
5.51
10.45
11.81
10.75
8.59
6.52
3.77
-1.02
-8.76
-19.34
-30.77
-41.40
-50.00
-57.45
-64.82
-72.96
-81.50
-88.74
-93.30
-94.14
-91.94
-87.25
-80.75
-72.35
-61.80
-49.15
-34.90
-20.75
-7.68
3.32
12.43
19.90
26.45
32.81
39.10
45.97
53.30
61.16
68.42
73.87
76.11
73.88
67.22
56.61
44.03
31.33
20.93
14.24
11.62
12.71
16.30
21.71
28.17
35.69
43.53
50.71
55.62
57.23
56.09
53.41
51.31
50.07
48.55
44.07
35.06
22.30
8.64
-1.96
-7.96
-10.26
-12.59
-17.94
-27.18
-38.42
-48.03
-53.79
-55.21
-54.42
-53.35
-53.21
-53.52
-52.76
-49.75
-44.05
-36.78
-28.99
-22.23
-17.15
-14.09
-12.52
-11.37
-10.17
-8.48
-7.49
-8.45
-12.68
-19.55
-26.91
-32.35
-34.15
-33.36
-32.22
-33.68
-38.41
-45.00
-50.83
-53.44
-52.61
-49.32
-45.54
-41.56
-36.69
-29.44
-19.39
-7.65
3.83
12.71
18.76
22.59
25.98
29.60
33.35
36.54
38.25
38.98
39.30
40.28
41.58
42.46
41.92
39.51
36.21
33.22
31.95
32.11
33.07
33.58
32.92
31.35
29.47
28.20
27.24
26.51
25.29
23.82
22.34
21.32
21.21
21.41
21.79
21.76
21.52
20.70
19.00
16.03
11.09
4.36
-3.97
-12.83
-21.68
-29.72
-36.50
-41.81
-45.64
-48.70
-51.42
-54.84
-58.61
-61.86
-63.00
-61.05
-56.44
-50.44
-45.10
-40.59
-36.04
-29.10
-18.69
-5.62
7.70
18.12
24.79
28.59
32.40
37.74
44.19
49.19
49.55
44.34
34.77
24.48
16.32
11.70
9.54
7.67
4.77
0.87
-2.11
-2.78
-0.42
3.59
7.24
8.74
7.87
6.44
6.38
9.63
15.76
23.19
29.20
32.13
32.04
29.71
26.62
22.71
17.55
10.04
0.59
-9.09
-16.70
-20.17
-19.66
-16.54
-13.48
-11.72
-11.28
-10.91
-9.04
-5.25
0.17
5.83
11.32
16.34
21.35
26.06
29.78
32.01
32.41
32.67
34.59
39.96
48.04
56.14
60.69
58.78
50.56
38.34
26.13
16.47
10.14
5.75
1.36
-4.04
-10.40
-16.19
-20.88
-24.23
-27.27
-30.83
-35.12
-39.66
-43.22
-45.71
-47.26
-49.09
-51.67
-54.94
-57.99
-59.44
-58.95
-56.54
-53.52
-50.59
-48.47
-46.98
-45.29
-42.75
-38.81
-33.99
-28.89
-25.06
-23.41
-24.36
-26.98
-29.49
-30.66
-29.79
-28.48
-28.52
-31.53
-36.59
-40.94
-41.55
-36.49
-27.17
-16.53
-8.12
-2.87
0.74
5.62
14.14
26.09
39.42
50.82
58.61
62.47
63.57
63.33
62.72
62.46
62.52
63.47
64.60
64.94
62.63
56.64
47.58
37.20
28.27
21.83
17.52
12.92
6.31
-2.65
-12.61
-21.08
-26.81
-29.56
-30.75
-31.02
-30.52
-28.34
-23.38
-15.61
-5.84
3.89
12.17
17.65
20.26
20.43
19.54
19.42
21.09
25.06
29.78
33.24
33.24
29.43
23.38
17.48
14.06
13.08
13.54
13.28
11.73
9.59
8.37
9.41
12.23
15.67
17.82
18.31
17.38
15.92
14.53
12.99
10.89
7.38
2.49
-4.21
-12.66
-22.94
-34.17
-44.59
-52.36
-55.63
-54.77
-51.34
-48.18
-46.86
-47.31
-48.12
-47.19
-44.17
-39.82
-36.37
-34.94
-35.45
-36.20
-34.74
-29.68
-20.91
-10.49
-0.69
5.94
8.26
6.50
2.34
-1.73
-4.03
-3.39
-0.66
2.73
4.81
4.66
2.72
0.02
-1.93
-2.75
-2.31
-1.49
-0.52
0.70
2.47
4.95
7.14
7.95
5.87
0.71
-6.82
-14.86
-21.53
-26.19
-29.25
-32.63
-37.48
-44.13
-50.99
-56.03
-57.85
-56.79
-55.43
-56.55
-62.15
-71.09
-80.03
-84.81
-82.95
-75.56
-66.41
-60.73
-61.75
-69.38
-80.03
-88.63
-90.98
-85.38
-73.30
-57.87
-43.25
-33.96
-35.04
-50.77
-82.97
-129.08
-180.58
-224.51
-246.56
-236.95
-194.24
-126.14
-46.04
32.53
101.08
158.86
209.17
257.56
307.68
359.32
408.38
448.94
476.28
488.34
485.75
470.40
444.07
407.64
361.84
308.39
250.83
194.05
143.00
101.01
68.74
44.44
24.86
6.78
-11.72
-30.71
-48.66
-63.50
-73.72
-79.18
-80.98
-81.06
-81.26
-82.68
-85.33
-88.34
-90.51
-90.93
-89.37
-86.29
-82.52
-78.91
-75.99
-73.82
-72.08
-70.29
-68.10
-65.33
-62.09
-58.63
-55.21
-51.98
-49.01
-46.26
-43.64
-41.09
-38.54
-36.03
-33.59
-31.27
-29.07
-27.03
-25.14
-23.42
-21.85
-20.44
-18.96
-17.55
-16.25
-15.07
-13.98
-12.99
-12.08
-11.25
-10.48
-9.77
-9.15
-8.58
-8.07
-7.59
-7.14
-6.72
-6.34
-5.97
-5.62
-5.33
-5.06
-4.81
-4.58
-4.36
-4.16
-3.97
-3.78
-3.60
-3.45
-3.32
-3.19
-3.08
-2.97
-2.86
-2.76
-2.66
-2.55
-2.45
-2.37
-2.31
-2.29
-2.32
-2.35
-2.40
-2.41
-2.38
-2.32
-2.25
-2.18
-2.17
-2.20
-2.27
-2.33
-2.35
-2.32
-2.22
-2.15
-2.12
-2.19
-2.37
-2.61
-2.83
-2.94
-2.89
-2.74
-2.60
-2.60
-2.85
-3.39
-4.11
-4.75
-5.16
-5.20
-4.93
-4.65
-4.64
-5.18
-6.29
-7.77
-9.18
-10.11
-10.36
-10.03
-9.55
-9.49
-10.29
-12.02
-14.32
-16.52
-18.07
-18.63
-18.33
-17.70
-17.35
-17.80
-19.39
-22.28
-26.37
-31.02
-34.94
-36.21
-32.92
-24.10
-10.52
5.32
19.99
30.49
35.43
35.39
32.30
28.29
24.63
21.50
18.38
14.84
11.04
7.66
5.51
4.92
5.55
6.53
6.74
5.47
2.61
-1.27
-5.17
-8.12
-9.54
-9.55
-8.80
-8.20
-8.41
-9.55
-11.20
-12.72
-13.67
-13.90
-13.34
-11.67
-8.31
-2.62
5.46
15.05
24.51
32.01
36.48
38.01
37.69
36.85
36.36
36.24
35.95
34.95
33.30
31.62
30.82
31.54
33.73
36.64
39.22
40.56
40.34
39.19
37.96
37.68
38.89
41.34
44.37
47.24
49.38
50.12
48.35
42.88
32.65
18.17
1.72
-13.20
-23.58
-28.21
-28.39
-27.14
-27.21
-29.88
-34.31
-38.60
-41.09
-41.48
-40.62
-39.77
-39.58
-39.67
-39.20
-37.40
-34.23
-30.14
-26.24
-23.36
-21.84
-21.43
-21.40
-21.04
-19.79
-17.64
-14.99
-12.48
-10.63
-9.66
-9.40
-9.41
-9.22
-8.57
-7.41
-5.98
-4.65
-3.68
-3.17
-3.03
-3.04
-2.98
-2.70
-2.22
-1.63
-1.09
-0.69
-0.49
-0.44
-0.44
-0.45
-0.40
-0.30
-0.19
-0.09
-0.03
0.01
0.02
0.02
0.02
0.02
0.02
0.02
0.02
0.02
0.02
0.02
0.02
0.02
0.02
0.02
0.02
0.02
0.03
0.02
0.02
0.03
0.03
0.03
0.03
0.03
0.03
0.03
0.03
0.03
0.03
0.03
0.03
0.04
0.03
0.03
0.04
0.04
0.03
0.04
0.04
0.04
0.04
0.04
0.04
0.05
0.04
0.05
0.05
0.05
0.05
0.05
0.05
0.05
0.06
0.05
0.06
0.06
0.06
0.06
0.06
0.06
0.06
0.07
0.07
0.08
0.08
0.07
0.06
0.05
0.04
0.06
0.11
0.19
0.31
0.43
0.54
0.62
0.66
0.68
0.70
0.74
0.82
0.94
1.07
1.19
1.28
1.35
1.38
1.43
1.52
1.68
1.90
2.14
2.34
2.44
2.47
2.44
2.48
2.68
3.13
3.79
4.53
5.21
5.64
5.84
5.88
6.01
6.46
7.38
8.73
10.27
11.72
12.76
13.33
13.53
13.72
14.27
15.47
17.34
19.58
21.88
23.66
24.76
25.04
24.87
24.60
25.02
26.90
30.42
35.35
40.13
42.71
40.42
31.64
16.39
-3.20
-23.77
-41.95
-55.16
-63.07
-66.60
-67.63
-67.51
-67.14
-67.12
-67.88
-70.29
-74.53
-80.25
-85.52
-88.03
-85.92
-79.02
-68.68
-56.63
-44.82
-33.57
-22.63
-11.18
0.66
11.47
19.94
25.04
27.62
28.99
31.00
34.23
38.13
41.11
41.52
39.32
35.01
30.29
26.23
23.87
23.01
22.66
21.94
19.91
16.90
13.29
10.49
9.39
10.32
12.36
13.75
13.38
10.51
6.07
1.37
-1.68
-2.43
-1.52
0.06
1.12
1.69
1.91
2.56
3.59
4.47
4.29
2.51
-0.09
-2.66
-4.01
-4.31
-4.13
-4.69
-6.53
-8.86
-10.50
-9.88
-6.90
-2.24
2.40
5.80
7.45
7.61
7.31
7.01
7.21
7.54
8.12
9.07
10.80
13.63
16.90
19.57
19.78
16.39
9.21
-0.07
-8.68
-14.01
-14.47
-10.81
-5.02
0.01
2.58
2.31
0.31
-1.85
-3.45
-4.31
-5.14
-5.82
-5.78
-3.73
1.04
7.68
14.08
17.16
15.24
8.36
-0.79
-8.85
-13.06
-12.53
-8.66
-3.53
0.83
3.96
6.04
7.70
8.96
9.04
7.56
4.57
1.57
0.03
1.16
4.60
8.76
11.73
11.88
9.29
4.68
-0.40
-5.26
-9.60
-13.77
-18.08
-21.81
-23.99
-23.21
-19.31
-13.02
-6.40
-1.72
-0.24
-1.98
-5.14
-7.89
-8.63
-7.52
-5.46
-3.74
-3.11
-3.20
-3.46
-3.01
-2.19
-1.56
-1.90
-3.20
-4.37
-4.23
-1.78
2.29
6.66
9.29
9.30
7.09
4.39
3.44
5.33
10.18
16.39
22.39
26.59
28.52
28.84
28.23
27.29
25.50
22.49
17.64
11.29
4.54
-0.84
-3.36
-3.11
-1.06
0.53
0.10
-3.16
-8.18
-12.60
-14.42
-12.79
-9.09
-5.47
-4.33
-6.53
-11.24
-16.19
-19.08
-19.25
-17.17
-14.71
-13.14
-13.15
-13.94
-13.91
-12.10
-8.43
-4.62
-2.44
-3.51
-7.90
-14.20
-19.95
-22.83
-22.08
-17.82
-11.54
-4.48
2.21
8.29
13.89
18.65
22.10
23.03
20.97
15.96
9.57
4.02
1.43
3.02
7.92
14.21
18.91
20.16
17.19
11.05
3.78
-2.81
-7.16
-9.16
-8.79
-6.58
-2.74
2.22
7.59
12.42
15.30
15.58
12.82
7.72
1.16
-5.37
-10.68
-14.22
-15.57
-15.27
-13.64
-11.56
-9.31
-6.97
-4.63
-2.33
-0.62
0.34
-0.24
-2.43
-6.21
-10.72
-15.07
-18.70
-20.84
-21.33
-19.66
-15.79
-9.46
-1.06
8.35
17.34
24.36
28.87
30.40
29.30
25.87
20.87
14.95
8.72
3.39
-0.34
-1.62
-0.70
2.01
5.37
8.11
9.32
8.37
5.78
2.09
-1.66
-5.13
-8.13
-11.02
-14.26
-17.45
-19.99
-20.72
-19.35
-16.03
-11.78
-7.71
-4.46
-2.13
0.06
2.23
4.08
4.38
2.38
-2.10
-8.15
-13.52
-16.18
-14.66
-9.60
-2.48
4.45
9.40
11.63
11.34
9.80
7.79
6.16
5.05
4.85
5.49
6.55
7.74
8.41
8.59
8.22
8.00
8.55
10.25
12.80
15.34
17.26
17.73
16.58
13.68
9.69
5.27
0.90
-2.59
-4.78
-5.08
-3.87
-1.58
0.88
2.80
3.53
2.60
0.38
-2.92
-6.59
-10.22
-13.02
-14.63
-15.17
-14.74
-13.82
-12.35
-10.69
-8.88
-7.42
-6.88
-7.95
-11.00
-15.04
-18.63
-19.73
-17.41
-11.52
-3.28
5.27
12.29
16.40
17.78
16.89
15.09
13.52
13.37
15.08
17.99
21.21
23.21
23.17
20.59
16.24
11.35
7.08
3.98
1.54
-0.63
-3.14
-5.67
-7.69
-8.17
-6.68
-4.03
-1.55
-1.21
-3.85
-9.48
-16.45
-22.59
-25.97
-26.04
-24.11
-21.80
-20.86
-21.44
-22.69
-22.51
-19.06
-12.25
-3.56
3.96
8.00
7.47
3.67
-0.70
-2.72
-0.86
3.96
9.71
13.67
14.75
13.32
11.55
11.65
14.26
18.56
22.08
22.99
20.29
15.00
8.90
3.85
0.64
-1.42
-3.20
-5.67
-8.32
-10.10
-9.39
-5.48
0.65
7.00
10.77
10.54
6.14
-0.52
-6.71
-10.06
-9.61
-6.41
-2.22
0.65
1.14
-1.01
-4.73
-8.70
-12.13
-14.37
-15.37
-14.69
-12.51
-8.90
-4.48
0.03
3.75
5.80
6.38
5.92
5.59
6.17
8.57
12.96
18.46
23.68
26.61
26.16
21.71
14.22
5.61
-1.79
-6.35
-7.95
-7.11
-5.27
-3.31
-1.92
-0.84
0.42
1.80
2.81
2.24
-0.39
-5.33
-11.58
-17.64
-21.73
-22.98
-21.99
-19.94
-18.55
-18.37
-19.08
-19.13
-17.12
-12.74
-6.89
-1.84
0.90
0.64
-1.36
-2.99
-2.21
1.54
6.76
11.39
13.42
12.87
11.04
10.35
12.58
17.67
23.89
28.29
28.95
24.91
17.26
7.88
-0.95
-7.88
-12.83
-15.99
-18.16
-19.52
-20.15
-19.36
-16.80
-12.81
-8.06
-3.88
-0.81
0.82
1.73
2.66
4.31
6.56
8.56
9.84
10.06
10.10
10.81
13.13
17.07
21.41
24.29
23.73
19.39
11.96
3.79
-2.69
-5.41
-3.98
0.09
4.89
8.43
10.06
9.69
8.09
5.65
2.16
-2.79
-9.53
-16.96
-23.51
-27.14
-26.77
-22.23
-14.74
-6.67
-0.20
2.66
1.54
-3.13
-9.52
-15.38
-18.80
-18.98
-16.85
-13.60
-10.69
-8.34
-6.26
-3.32
1.34
7.27
13.20
17.01
17.59
14.51
8.88
2.45
-2.78
-5.53
-6.00
-4.83
-3.31
-1.92
-0.77
1.14
4.95
10.79
17.79
23.59
26.27
24.56
19.06
11.74
5.32
1.80
1.36
3.18
5.38
6.93
7.25
6.94
6.82
7.00
6.86
4.98
0.85
-5.44
-12.34
-17.94
-20.53
-19.80
-17.22
-14.76
-14.44
-16.46
-19.83
-22.31
-22.00
-18.57
-13.24
-8.46
-5.79
-5.92
-7.96
-10.47
-11.99
-11.99
-11.00
-9.39
-7.66
-5.29
-1.95
2.87
9.08
15.81
21.71
25.07
25.22
21.85
15.91
8.97
3.26
0.52
1.15
4.59
8.92
12.44
13.75
13.08
11.75
11.23
12.18
13.68
14.50
13.14
9.56
4.93
1.59
1.29
3.99
8.43
12.09
13.42
11.74
8.20
4.66
2.59
2.27
2.38
1.62
-1.23
-5.72
-10.46
-13.19
-12.57
-9.20
-4.95
-2.67
-3.88
-8.83
-15.49
-21.20
-23.81
-22.93
-20.22
-17.56
-16.69
-17.53
-18.94
-18.78
-15.78
-10.49
-4.52
-0.34
0.89
-0.91
-3.95
-6.08
-5.74
-2.90
0.80
3.65
3.95
1.58
-2.68
-6.80
-9.07
-8.95
-6.69
-3.69
-0.94
0.71
1.66
2.65
4.51
7.22
9.70
10.98
9.95
6.72
2.03
-2.18
-4.28
-3.62
-0.28
4.55
9.85
14.40
17.94
20.56
22.66
24.33
25.01
24.48
22.30
18.95
15.09
12.08
10.75
10.80
11.38
10.95
8.85
4.80
-0.21
-4.96
-8.38
-10.30
-11.55
-12.68
-14.32
-16.04
-17.28
-16.97
-14.65
-10.94
-6.87
-4.04
-3.13
-4.53
-7.51
-11.03
-13.94
-15.58
-16.20
-15.81
-14.73
-12.72
-9.90
-6.13
-1.65
2.84
6.55
8.44
8.38
6.24
2.80
-0.88
-3.27
-3.36
-1.31
2.09
4.99
6.14
4.79
1.87
-0.75
-1.52
0.03
2.59
4.64
4.83
3.58
2.40
3.34
7.50
13.75
19.77
22.71
21.53
16.66
10.23
4.60
1.22
0.10
-0.30
-1.03
-2.85
-5.21
-7.42
-8.53
-8.10
-6.66
-4.98
-4.39
-5.33
-8.07
-11.83
-15.32
-16.93
-15.40
-11.02
-4.91
0.53
3.48
2.73
-1.20
-6.08
-9.27
-8.51
-3.66
4.18
12.36
18.47
20.94
20.18
18.22
16.89
17.39
18.88
19.86
18.33
13.73
7.34
1.48
-1.51
-1.32
0.99
2.88
2.56
-0.55
-5.07
-8.51
-9.36
-7.60
-5.52
-5.57
-9.68
-17.68
-27.27
-35.12
-38.20
-35.82
-28.97
-20.44
-12.63
-7.22
-4.26
-2.40
-0.43
2.40
5.30
7.55
8.41
8.34
8.62
10.64
15.27
21.27
26.27
27.29
23.05
14.04
2.86
-6.80
-12.24
-12.35
-8.59
-3.22
1.09
2.82
1.70
-1.32
-4.32
-5.99
-5.33
-2.77
1.15
5.47
9.37
12.35
14.04
14.61
13.96
12.52
10.63
9.36
9.45
10.87
13.03
14.39
13.74
10.25
4.74
-1.33
-6.42
-9.82
-11.95
-13.13
-13.63
-12.72
-9.97
-5.41
-0.39
2.69
1.73
-4.20
-13.31
-22.64
-28.68
-29.60
-25.67
-19.02
-12.86
-9.64
-10.54
-14.29
-18.65
-20.80
-19.04
-13.31
-5.09
2.96
9.01
12.19
13.32
13.60
14.25
15.86
18.12
20.62
22.49
23.48
23.27
21.84
19.11
15.36
11.56
8.47
6.90
6.53
6.93
7.26
7.09
6.47
5.75
5.43
4.83
3.18
-0.56
-6.18
-12.66
-18.25
-21.11
-20.50
-16.62
-11.38
-6.79
-4.68
-5.59
-8.90
-13.16
-16.10
-16.20
-12.63
-6.23
1.61
9.08
14.61
17.62
18.18
17.46
16.25
15.40
14.96
14.99
15.14
14.73
13.27
10.08
5.46
-0.22
-5.74
-9.87
-11.59
-10.69
-8.21
-5.29
-3.50
-3.47
-5.46
-8.67
-11.95
-14.44
-15.69
-16.19
-16.13
-15.94
-15.28
-13.74
-10.60
-5.64
0.24
5.74
9.05
9.55
7.19
3.25
-0.49
-2.39
-1.60
1.18
4.86
7.54
8.17
6.27
2.85
-0.08
-0.69
2.08
7.27
13.10
17.13
17.85
14.97
9.72
4.25
0.11
-1.87
-2.39
-2.38
-3.22
-5.38
-8.47
-11.59
-13.38
-13.42
-11.70
-9.31
-7.10
-5.70
-4.94
-4.02
-2.41
0.27
3.17
5.44
6.04
4.74
1.98
-1.17
-2.83
-1.61
3.41
11.28
20.07
26.86
29.09
25.73
17.54
7.48
-1.33
-6.16
-6.48
-3.24
1.31
4.51
4.64
1.02
-5.30
-12.83
-19.38
-23.25
-23.43
-20.03
-14.67
-9.20
-5.71
-5.18
-7.71
-12.00
-16.10
-18.62
-18.98
-17.98
-16.18
-14.12
-11.21
-6.63
0.38
9.56
18.87
25.61
27.18
23.29
15.66
7.85
3.16
3.04
6.68
11.06
13.57
12.69
9.52
6.14
4.62
5.48
7.26
8.03
5.92
1.17
-4.76
-9.46
-11.36
-10.47
-8.24
-7.13
-8.57
-12.93
-18.24
-21.83
-21.29
-15.95
-7.58
0.92
6.35
7.55
4.99
1.16
-1.29
-0.72
3.04
8.36
13.48
16.44
16.60
13.96
9.73
5.48
2.67
2.45
4.45
7.69
10.13
10.30
7.54
2.54
-2.99
-7.32
-8.95
-8.05
-5.50
-3.28
-2.94
-5.09
-9.21
-13.54
-16.34
-15.95
-12.57
-7.44
-2.82
-0.29
0.12
-0.53
-0.35
1.35
4.24
6.51
6.88
5.22
2.93
2.33
4.55
9.40
14.68
18.09
17.94
14.26
8.62
2.88
-1.14
-3.16
-3.45
-3.25
-3.59
-5.21
-8.27
-11.85
-14.92
-15.82
-13.93
-9.19
-2.89
3.29
7.85
9.84
9.60
7.61
5.13
2.94
1.98
2.69
5.11
9.07
13.56
17.57
19.53
18.81
15.36
10.10
4.29
-1.10
-5.10
-7.62
-8.55
-8.18
-6.49
-3.92
-1.58
-0.92
-3.54
-9.44
-17.53
-25.05
-29.36
-28.82
-23.82
-16.80
-10.57
-7.53
-7.67
-9.63
-10.82
-9.39
-4.84
1.80
8.17
12.44
13.37
11.50
8.15
5.62
5.87
9.71
16.65
24.37
30.40
32.35
29.49
22.53
13.64
5.72
0.96
0.65
3.82
8.59
12.17
12.42
8.63
1.70
-5.79
-11.32
-12.94
-10.96
-7.12
-4.41
-5.23
-10.11
-17.64
-24.59
-28.06
-26.12
-19.26
-9.61
-0.25
5.91
7.51
4.48
-1.38
-7.82
-12.32
-13.38
-10.58
-4.85
1.51
6.34
7.71
5.55
0.89
-4.08
-7.32
-7.66
-4.95
-0.41
4.68
8.86
11.55
12.37
11.58
9.72
7.13
4.44
1.80
-0.17
-1.37
-1.76
-1.69
-1.45
-1.06
-0.96
-1.30
-2.55
-4.65
-7.51
-10.47
-12.49
-12.52
-9.71
-4.84
0.62
4.51
5.69
4.15
1.17
-1.01
-0.77
2.56
7.69
12.71
15.37
14.47
10.21
4.12
-1.01
-3.12
-1.04
4.33
11.02
16.30
18.03
15.61
9.73
2.74
-3.32
-6.80
-7.55
-6.28
-4.25
-2.75
-2.21
-2.71
-3.32
-3.46
-2.45
-0.18
3.05
6.82
10.11
12.21
12.13
9.58
4.63
-1.37
-6.49
-8.91
-7.46
-3.14
1.99
4.97
3.93
-1.53
-9.82
-18.00
-23.49
-24.55
-21.58
-16.02
-10.34
-6.65
-6.07
-8.19
-10.80
-11.62
-8.68
-2.09
6.64
14.64
19.40
19.89
16.69
12.14
8.16
6.16
5.89
6.51
6.68
5.38
2.43
-2.12
-7.22
-11.93
-14.91
-15.62
-14.41
-12.44
-11.30
-11.67
-13.56
-15.58
-16.40
-14.80
-10.76
-5.17
0.91
6.10
9.97
12.11
12.82
12.24
10.90
9.52
8.73
9.35
11.11
13.63
15.69
16.34
14.81
11.22
6.65
2.55
0.71
1.51
4.55
8.15
10.62
10.94
9.03
5.72
1.50
-2.95
-7.60
-11.98
-15.77
-18.34
-18.91
-17.48
-14.44
-11.17
-8.52
-7.10
-6.34
-5.27
-2.88
1.42
6.66
11.34
13.27
11.45
6.18
-0.34
-5.07
-5.71
-1.43
5.98
13.85
19.14
20.20
16.96
10.87
4.53
0.11
-0.74
1.62
5.76
9.05
9.22
5.34
-1.95
-10.13
-16.58
-19.03
-17.31
-12.73
-7.79
-4.80
-4.69
-7.17
-10.42
-12.74
-12.58
-9.60
-4.35
1.98
7.63
11.26
11.67
8.98
3.86
-1.92
-6.57
-8.97
-8.87
-7.62
-6.69
-7.51
-9.88
-12.67
-13.99
-12.67
-9.20
-4.90
-1.72
-0.17
0.42
1.93
5.75
11.91
19.01
24.54
26.90
25.62
22.21
18.52
16.04
14.92
14.21
13.24
11.73
10.71
10.94
12.82
15.30
16.31
13.95
7.23
-2.53
-12.97
-21.00
-24.99
-24.86
-22.20
-19.20
-17.15
-16.70
-17.32
-18.94
-21.38
-24.90
-29.18
-32.81
-33.91
-30.39
-21.89
-9.57
3.46
14.12
20.32
21.84
20.65
19.05
19.30
21.75
25.53
28.47
28.84
25.94
20.40
14.32
9.41
6.92
6.52
7.18
7.50
6.51
3.91
-0.51
-6.14
-12.40
-17.86
-21.39
-22.26
-20.42
-16.51
-11.16
-5.45
0.12
4.65
7.59
8.15
5.89
1.74
-2.37
-3.57
-0.51
6.43
14.34
19.98
21.10
17.26
10.21
2.01
-5.28
-11.07
-15.19
-17.73
-18.23
-15.91
-11.16
-5.27
-1.11
-0.94
-5.70
-13.73
-21.70
-26.05
-24.49
-17.75
-8.41
-0.45
3.43
2.58
-1.34
-5.33
-6.84
-4.39
1.21
8.37
14.79
19.08
20.75
20.12
18.33
16.40
15.55
15.97
17.59
19.30
19.75
17.93
13.30
6.68
-0.77
-7.40
-12.56
-15.96
-17.97
-18.95
-18.77
-17.55
-15.21
-12.55
-10.29
-9.19
-9.15
-9.21
-8.08
-4.43
1.67
9.28
16.20
20.53
21.00
17.56
11.67
5.38
1.29
0.58
3.41
8.04
12.19
13.90
12.02
7.13
0.47
-5.93
-11.10
-14.60
-16.94
-18.52
-19.21
-18.97
-17.44
-15.21
-12.94
-11.86
-12.54
-14.53
-16.35
-15.85
-11.96
-4.68
3.91
11.24
14.95
14.47
11.34
8.16
7.78
10.92
16.71
22.42
25.48
24.54
19.90
13.58
7.79
4.64
4.37
6.28
8.46
9.32
8.14
4.75
-0.07
-5.70
-11.14
-16.01
-19.80
-22.29
-23.25
-22.42
-20.22
-16.93
-13.43
-10.14
-7.65
-6.04
-4.88
-3.55
-0.88
3.51
9.82
16.81
22.81
25.89
24.74
19.70
12.43
5.98
2.50
3.08
6.35
9.74
10.67
7.53
0.93
-7.27
-14.26
-18.59
-20.07
-19.93
-19.36
-18.52
-17.08
-14.21
-10.37
-6.70
-5.05
-6.16
-8.99
-10.87
-8.57
-1.12
10.05
20.71
26.83
26.21
19.85
11.39
4.93
3.55
7.05
13.28
18.60
20.22
17.11
10.06
1.53
-6.00
-10.33
-11.20
-9.51
-7.37
-6.39
-6.84
-8.22
-9.42
-10.47
-11.93
-14.83
-19.12
-23.56
-25.83
-23.51
-16.33
-5.75
4.81
12.51
15.84
15.38
12.93
10.28
8.93
8.79
9.63
10.67
11.77
13.02
14.19
14.58
12.54
7.14
-1.79
-12.25
-21.36
-26.17
-25.14
-19.20
-10.99
-4.25
-1.30
-2.77
-7.00
-11.83
-15.55
-17.00
-16.20
-13.14
-8.40
-2.34
4.01
9.54
13.04
13.74
12.54
11.02
11.54
15.06
21.02
27.09
30.59
29.86
24.66
16.92
8.89
2.86
-0.45
-1.65
-2.18
-3.19
-4.49
-5.61
-5.68
-5.08
-4.53
-5.16
-7.48
-10.64
-13.02
-12.52
-8.73
-2.52
3.58
7.49
8.63
7.92
7.18
7.25
8.29
9.16
9.28
8.48
7.52
7.39
8.06
8.71
7.46
3.32
-3.65
-11.58
-18.29
-22.20
-22.61
-20.42
-16.67
-12.79
-9.41
-6.97
-5.51
-5.20
-6.56
-9.29
-12.80
-15.33
-15.43
-12.30
-6.59
0.33
7.12
12.50
16.35
18.51
19.37
18.89
17.15
14.54
11.87
10.46
10.51
11.46
11.43
9.16
4.53
-1.23
-6.35
-10.10
-12.57
-15.05
-18.09
-21.58
-24.08
-23.88
-20.33
-14.05
-7.32
-2.03
0.67
1.39
1.23
1.10
1.57
2.75
5.39
9.70
15.68
21.99
26.89
28.70
26.64
21.64
15.27
9.62
5.46
2.66
0.22
-2.36
-4.59
-6.02
-6.40
-6.87
-8.57
-12.22
-16.78
-20.11
-20.03
-15.38
-7.67
0.18
4.65
4.21
-0.21
-5.49
-8.35
-7.33
-2.77
3.06
8.37
12.12
14.83
17.46
20.24
22.26
21.45
16.65
7.93
-2.24
-10.75
-14.94
-13.87
-9.08
-3.47
-0.52
-2.03
-8.05
-16.32
-23.92
-28.41
-28.26
-23.57
-15.11
-4.70
5.73
13.99
18.63
19.05
15.63
10.42
5.67
3.67
4.99
8.72
12.80
15.49
16.25
15.04
12.32
7.56
0.57
-8.58
-18.38
-26.34
-30.06
-28.04
-21.04
-10.96
-0.61
8.37
15.53
21.22
25.65
27.88
27.03
22.39
14.98
6.51
-0.65
-4.89
-5.93
-4.38
-2.05
-0.54
-1.25
-4.16
-8.60
-13.42
-17.53
-20.49
-21.66
-21.02
-18.21
-13.34
-6.37
2.23
11.34
19.44
24.20
24.32
19.35
10.73
0.71
-8.22
-14.23
-16.84
-16.20
-13.79
-10.85
-8.81
-8.16
-8.93
-10.63
-12.20
-12.70
-10.99
-7.30
-2.37
2.30
5.92
8.93
12.13
16.11
19.67
21.00
18.04
10.76
0.82
-8.70
-14.72
-15.97
-12.76
-7.37
-1.87
2.14
4.37
5.00
4.03
1.79
-1.55
-4.75
-6.85
-6.82
-4.47
-0.16
5.48
11.32
16.29
18.73
18.01
14.18
8.53
2.90
-1.45
-4.03
-5.64
-6.96
-8.73
-10.43
-11.17
-10.01
-6.62
-2.16
1.76
3.32
2.28
-0.65
-3.57
-4.71
-3.20
1.03
6.52
11.79
15.25
16.78
16.94
16.57
15.71
13.16
8.03
0.09
-8.76
-16.02
-19.38
-18.13
-13.25
-6.55
-0.43
3.73
5.06
4.07
1.67
-1.06
-3.16
-4.27
-3.86
-1.87
1.98
7.09
12.74
17.62
20.33
20.25
17.06
11.54
4.45
-3.15
-10.99
-18.83
-26.33
-32.72
-36.23
-35.77
-30.91
-22.87
-13.42
-4.69
1.80
5.38
5.69
3.63
0.35
-2.32
-3.32
-2.19
0.82
5.12
10.52
16.29
21.85
25.74
27.00
25.09
20.48
14.64
9.07
5.22
3.02
1.99
1.14
0.41
0.34
1.20
2.51
2.33
-0.79
-7.37
-15.65
-22.96
-26.77
-25.88
-21.31
-14.94
-9.05
-4.47
-1.07
2.19
5.71
8.83
10.78
10.96
10.47
10.67
13.03
17.35
22.14
25.01
23.66
17.67
7.96
-2.79
-12.18
-18.52
-21.58
-21.97
-20.45
-18.18
-15.64
-13.66
-12.45
-12.17
-12.50
-12.52
-11.06
-6.83
0.09
8.68
16.46
21.27
21.95
18.87
13.64
7.78
2.64
-1.59
-4.66
-6.55
-6.66
-4.41
-0.35
3.94
5.65
3.03
-4.12
-13.41
-21.55
-25.68
-24.32
-18.36
-9.69
-0.93
6.35
11.25
13.85
14.39
13.02
10.63
8.36
8.19
11.04
16.50
22.27
25.52
24.46
18.76
10.18
0.75
-7.33
-13.18
-16.64
-18.06
-17.71
-15.43
-11.84
-7.78
-4.86
-3.80
-4.40
-5.47
-5.58
-4.26
-1.58
1.38
4.09
6.08
7.75
9.58
11.80
14.23
15.65
14.94
10.95
3.86
-5.50
-15.60
-24.66
-31.04
-33.58
-32.43
-28.65
-24.47
-21.50
-20.71
-21.75
-23.46
-24.92
-25.49
-25.08
-23.34
-20.29
-15.67
-9.94
-4.19
0.25
2.01
1.24
-0.80
-1.64
0.28
5.23
11.94
18.42
23.37
25.88
26.05
23.96
20.28
15.46
10.60
6.75
4.81
5.60
8.95
14.40
20.34
25.31
27.92
27.68
24.65
19.18
12.40
5.31
-0.59
-4.69
-6.55
-6.45
-4.87
-2.25
0.54
3.09
4.58
4.85
3.56
1.01
-1.89
-3.76
-2.77
1.71
9.24
17.39
23.67
26.07
24.20
19.15
12.11
4.55
-3.00
-9.89
-15.90
-20.49
-23.20
-23.87
-22.56
-20.30
-18.00
-16.76
-16.48
-16.54
-15.84
-13.33
-8.93
-3.00
3.01
7.91
10.46
10.97
10.68
11.26
14.03
18.48
23.30
26.36
26.53
23.34
17.50
10.45
3.63
-1.37
-4.24
-5.30
-5.81
-6.59
-7.97
-9.72
-11.26
-12.67
-13.74
-14.61
-14.72
-13.53
-10.47
-5.27
1.41
8.71
14.86
18.70
19.29
17.20
13.64
10.18
8.11
7.20
6.77
5.21
1.65
-4.10
-10.74
-16.27
-19.00
-18.00
-14.24
-9.40
-5.58
-3.71
-3.80
-5.02
-6.39
-7.73
-8.66
-9.23
-8.75
-6.67
-2.40
3.97
11.26
18.02
22.30
23.32
21.02
16.66
11.46
6.30
1.50
-3.30
-7.83
-11.85
-14.55
-15.66
-14.89
-12.21
-7.89
-2.07
4.29
10.18
14.16
15.62
14.52
11.79
8.82
6.48
5.60
5.88
6.96
8.04
8.85
9.26
9.13
8.41
6.30
2.58
-2.98
-9.70
-16.80
-23.30
-28.16
-30.60
-29.76
-26.05
-20.31
-14.33
-9.27
-5.58
-3.18
-1.54
-0.64
-0.36
-0.97
-1.93
-2.38
-0.90
3.69
10.98
19.23
25.12
26.26
21.76
13.44
4.30
-2.81
-6.20
-6.12
-3.40
0.34
4.06
6.81
8.10
7.50
4.55
-0.58
-7.38
-14.09
-18.98
-20.49
-18.17
-12.81
-5.69
1.63
8.52
14.26
18.81
21.70
22.43
20.67
16.46
10.99
5.57
1.69
-0.77
-2.71
-5.42
-9.18
-12.63
-14.24
-13.01
-10.04
-7.15
-6.29
-7.91
-11.00
-14.01
-15.20
-13.89
-9.72
-3.46
4.12
11.92
18.95
24.31
26.75
25.54
19.98
11.02
0.47
-8.94
-14.90
-16.61
-14.82
-11.92
-9.92
-10.39
-12.89
-16.03
-17.94
-17.27
-14.07
-9.10
-4.05
0.07
2.39
2.95
2.29
1.29
1.36
3.39
7.90
13.82
19.61
23.30
23.61
20.24
13.58
5.18
-3.41
-10.15
-13.99
-14.62
-12.87
-10.10
-7.15
-4.66
-2.16
0.59
4.33
9.09
14.46
19.32
22.04
21.69
18.02
12.31
5.83
-0.07
-4.80
-8.16
-9.89
-10.12
-8.88
-7.07
-5.30
-4.28
-4.10
-4.58
-5.80
-7.76
-10.73
-13.91
-16.11
-15.38
-10.73
-2.78
6.40
13.93
18.29
18.98
17.16
13.76
9.53
4.77
-0.22
-4.49
-7.58
-9.03
-9.61
-10.09
-11.25
-13.09
-14.78
-15.45
-14.03
-10.56
-5.23
1.12
7.81
14.04
18.93
21.80
21.76
19.09
14.38
9.07
4.47
1.51
0.44
0.58
1.18
0.90
-0.87
-4.41
-8.82
-12.85
-15.38
-15.66
-14.16
-11.39
-8.41
-5.53
-3.13
-1.09
0.72
2.15
3.54
5.01
7.29
10.69
15.32
20.29
24.05
25.23
22.42
15.56
5.14
-7.06
-18.91
-28.12
-33.07
-33.65
-30.50
-25.11
-18.19
-10.44
-2.31
5.05
10.21
12.60
12.94
13.62
16.38
21.52
26.67
28.81
25.97
18.25
7.94
-2.78
-12.11
-19.68
-25.06
-27.96
-28.05
-25.34
-21.04
-16.11
-11.41
-6.63
-1.73
2.96
6.39
7.60
7.14
6.32
7.06
9.64
13.03
15.21
14.83
12.09
8.09
4.64
2.44
1.80
2.14
3.22
4.88
6.87
9.03
10.30
9.97
7.34
2.98
-2.15
-6.71
-9.55
-10.54
-9.81
-8.22
-6.12
-4.05
-2.04
-0.17
1.39
2.88
4.37
6.54
9.48
13.23
16.90
19.24
19.18
16.00
10.35
3.22
-3.71
-9.57
-13.85
-16.76
-18.86
-20.08
-20.12
-17.88
-13.28
-6.86
-0.55
3.69
5.05
4.08
2.67
1.96
2.45
3.15
3.24
2.33
0.73
-0.92
-2.70
-4.60
-7.03
-9.38
-10.71
-9.91
-6.55
-1.38
4.41
9.07
11.87
12.54
11.76
10.43
9.19
8.13
6.28
3.01
-2.29
-8.73
-14.73
-18.21
-17.91
-14.17
-8.33
-2.83
0.83
1.66
-0.08
-3.83
-8.73
-13.53
-17.05
-17.65
-14.74
-8.40
-0.00
8.80
16.44
21.52
23.38
21.44
16.35
9.18
1.76
-4.29
-7.79
-8.28
-6.47
-3.26
-0.39
1.02
0.22
-2.36
-5.68
-8.84
-11.13
-12.83
-13.88
-14.31
-13.45
-10.89
-6.61
-1.27
3.82
8.09
11.37
14.52
18.06
21.84
24.67
25.19
23.03
18.33
12.08
4.59
-3.98
-13.52
-22.90
-29.97
-32.71
-29.88
-22.61
-13.12
-4.25
2.62
7.62
11.90
16.74
21.96
26.67
29.27
28.91
25.19
18.70
10.62
2.24
-4.42
-7.97
-7.48
-3.60
2.08
7.14
9.49
8.48
4.24
-1.84
-8.70
-15.24
-20.94
-25.10
-26.62
-24.63
-18.67
-10.18
-1.32
5.28
8.81
10.15
11.28
13.95
17.88
21.57
22.63
19.82
12.95
3.47
-6.33
-14.24
-18.10
-17.16
-11.80
-4.23
2.87
6.96
7.19
5.02
2.52
1.54
1.53
1.03
-1.30
-4.74
-6.73
-5.08
0.30
6.02
8.18
4.30
-4.16
-13.31
-19.24
-20.36
-18.18
-15.03
-12.94
-11.82
-10.82
-8.90
-5.94
-2.79
-0.18
1.16
1.63
1.75
2.48
4.28
7.13
10.59
13.71
15.89
16.15
14.42
10.92
6.63
2.62
-0.39
-2.00
-2.74
-2.89
-3.09
-3.36
-3.55
-2.99
-0.72
3.56
9.71
16.02
20.59
21.52
18.56
12.67
5.53
-1.17
-7.09
-12.15
-16.79
-20.69
-23.17
-23.21
-20.27
-14.92
-8.11
-1.59
3.87
7.92
11.20
14.24
16.96
18.78
18.29
14.70
7.61
-1.96
-12.43
-21.83
-28.70
-32.69
-33.80
-32.62
-29.05
-23.09
-14.38
-3.52
8.04
18.50
25.69
28.44
26.23
20.15
12.00
4.18
-1.32
-3.91
-3.83
-2.52
-0.99
-0.29
-0.53
-1.73
-3.75
-5.91
-7.50
-7.24
-4.71
0.09
5.78
10.76
13.66
13.80
11.73
8.12
4.17
0.41
-2.41
-3.86
-3.73
-2.03
0.19
1.83
1.58
-0.46
-3.53
-6.11
-6.96
-5.69
-2.36
2.22
7.71
13.09
17.56
19.97
19.59
16.59
12.00
7.79
5.09
4.43
4.71
4.51
2.68
-1.14
-6.44
-12.95
-19.87
-26.45
-30.93
-31.56
-27.28
-18.61
-7.99
1.89
8.55
11.46
11.17
9.42
7.66
6.68
6.60
6.38
5.12
1.77
-3.65
-10.62
-17.86
-24.10
-28.58
-30.36
-29.11
-24.21
-15.97
-5.57
4.78
12.86
17.78
19.72
20.19
19.97
19.42
18.06
15.85
13.53
11.97
12.02
13.11
14.40
14.43
12.78
9.56
5.46
1.56
-1.62
-3.57
-4.58
-4.75
-4.72
-4.99
-5.97
-8.02
-10.78
-13.97
-16.67
-18.32
-18.13
-15.77
-11.32
-5.20
1.32
7.22
11.29
13.62
14.47
14.48
13.85
12.21
9.39
5.19
0.52
-3.94
-7.09
-8.44
-7.70
-4.70
0.34
7.32
15.02
22.10
26.60
27.03
22.89
14.78
4.42
-6.54
-16.16
-23.39
-27.21
-27.41
-24.49
-19.53
-14.03
-8.72
-4.28
-0.39
2.84
5.15
5.97
5.05
3.07
0.96
0.24
1.19
3.47
5.81
7.28
7.87
8.19
9.47
11.69
14.18
15.31
13.93
9.67
3.10
-4.53
-12.42
-19.49
-25.15
-28.40
-28.68
-25.79
-20.44
-14.31
-8.66
-4.59
-1.88
-0.13
1.45
3.23
5.50
8.83
12.99
17.26
19.55
18.11
12.25
3.61
-4.63
-9.64
-9.98
-6.65
-1.38
3.81
7.95
10.48
11.09
9.79
6.70
3.01
-0.29
-2.09
-2.49
-2.11
-1.59
-1.39
-1.41
-2.01
-3.26
-5.51
-8.10
-9.73
-8.87
-4.46
2.93
11.73
19.18
23.27
22.79
18.18
10.79
2.10
-6.46
-14.46
-21.19
-26.09
-28.02
-26.24
-20.86
-13.23
-5.86
-0.58
1.53
1.56
1.49
3.45
8.23
14.98
21.78
26.05
26.50
22.73
15.90
7.41
-1.22
-8.76
-14.55
-17.64
-17.62
-14.09
-8.06
-1.33
3.71
5.51
4.59
2.64
1.97
3.10
5.36
7.17
7.82
7.98
8.53
9.90
10.62
9.13
4.27
-3.04
-10.90
-17.48
-21.69
-23.75
-23.64
-21.62
-17.57
-12.39
-7.49
-4.22
-3.27
-3.78
-4.69
-4.63
-3.34
-0.94
1.99
4.95
7.72
9.74
11.06
11.47
11.56
11.67
12.06
12.57
12.78
12.90
12.84
12.79
11.84
8.96
3.19
-5.31
-14.93
-23.76
-29.64
-31.68
-29.59
-24.31
-17.08
-9.38
-2.63
2.64
6.07
8.14
9.06
9.31
9.17
9.30
10.87
14.30
19.10
22.96
23.48
19.02
10.60
1.15
-5.90
-8.08
-5.58
-0.02
5.85
10.28
12.45
12.86
12.50
11.64
10.05
6.28
-0.39
-9.74
-19.55
-26.79
-29.24
-26.83
-22.30
-18.74
-18.23
-19.75
-20.53
-17.82
-10.72
-0.63
10.23
19.51
26.32
30.26
31.58
30.29
26.35
20.13
11.93
2.94
-5.73
-12.30
-15.77
-15.97
-14.05
-12.24
-11.92
-13.27
-14.20
-12.67
-7.73
-0.82
5.56
9.88
12.29
14.82
18.62
23.31
26.39
25.44
19.50
9.45
-2.42
-14.45
-25.21
-33.90
-39.13
-39.80
-35.72
-27.98
-18.97
-10.45
-3.60
2.09
7.09
11.64
15.32
17.35
17.67
16.34
14.24
11.68
8.96
5.75
1.56
-3.93
-10.90
-18.27
-24.42
-26.77
-23.82
-15.65
-4.48
6.34
14.52
19.21
21.73
23.39
25.22
27.09
28.49
29.22
28.92
27.34
23.32
16.12
5.52
-7.02
-19.12
-28.49
-33.41
-33.72
-29.68
-22.52
-13.47
-4.18
3.81
9.54
12.39
12.76
10.91
7.87
4.42
1.69
0.43
0.54
1.24
0.93
-0.95
-4.30
-7.61
-9.62
-9.98
-9.19
-8.13
-6.43
-3.52
1.19
6.57
10.68
11.88
10.32
8.34
7.97
9.71
11.08
9.13
2.27
-7.97
-17.78
-23.73
-24.16
-20.41
-14.70
-9.43
-5.53
-2.97
-1.15
0.72
2.72
4.88
6.41
6.90
6.08
4.63
3.78
4.33
6.41
8.59
9.36
7.33
2.96
-2.07
-5.65
-6.14
-3.64
0.90
5.35
8.14
8.13
5.70
2.41
0.07
0.13
1.99
4.12
4.49
2.89
0.71
-0.14
1.04
2.20
0.40
-6.46
-16.68
-26.00
-29.84
-26.55
-18.69
-10.74
-6.41
-5.55
-5.67
-3.73
0.91
6.61
11.29
14.16
17.04
21.67
28.42
34.64
37.05
33.92
26.59
18.93
13.61
10.54
6.22
-2.44
-15.69
-29.79
-39.10
-40.37
-34.31
-25.71
-19.09
-16.48
-16.09
-14.58
-10.10
-3.42
2.45
5.74
6.61
7.50
10.21
14.49
18.05
18.06
14.10
7.67
1.69
-2.19
-3.56
-3.22
-1.83
0.96
5.12
9.96
13.14
12.75
8.13
0.90
-6.01
-10.50
-11.71
-10.77
-8.69
-6.39
-4.01
-1.95
-0.98
-1.60
-3.92
-6.58
-8.32
-7.98
-5.81
-2.70
0.28
2.26
3.13
2.54
0.95
-1.10
-2.21
-1.52
0.61
2.57
2.05
-1.38
-6.36
-9.62
-8.93
-4.30
1.90
6.67
8.79
8.57
7.68
6.62
5.22
2.83
-0.30
-2.60
-2.70
-0.09
3.60
6.48
6.97
5.15
2.06
-1.30
-4.01
-5.94
-6.49
-5.57
-3.27
-0.79
0.55
0.34
-0.67
-0.34
2.41
7.43
12.71
16.22
16.89
14.92
11.26
6.05
-0.53
-8.56
-16.72
-23.25
-26.62
-26.38
-23.53
-18.90
-13.12
-5.75
2.68
10.74
16.25
17.88
16.73
15.14
15.63
17.85
19.37
16.85
9.49
-0.17
-7.93
-10.44
-8.41
-5.06
-4.24
-6.94
-11.25
-13.95
-13.01
-9.57
-5.94
-4.11
-3.45
-2.22
0.96
5.31
8.18
7.48
2.87
-3.11
-7.56
-8.39
-5.72
-0.94
4.70
10.17
15.09
18.32
19.04
16.61
11.89
6.67
2.52
0.22
-0.97
-1.56
-1.84
-1.10
1.02
3.92
6.36
6.91
5.72
3.40
1.02
-1.52
-4.64
-8.34
-11.52
-12.07
-9.20
-3.85
0.80
1.93
-1.54
-8.13
-14.83
-19.38
-20.54
-18.66
-13.93
-6.76
2.28
11.67
19.06
22.85
22.47
19.54
15.92
13.24
11.61
10.32
8.66
5.90
2.00
-3.59
-10.79
-19.23
-27.29
-33.05
-35.14
-33.07
-27.71
-19.49
-8.86
4.06
17.60
28.48
33.16
29.73
20.18
8.88
0.77
-2.32
-1.66
-0.33
-0.26
-0.33
1.88
8.16
16.70
23.61
24.94
19.98
11.70
4.29
0.60
-0.59
-2.25
-6.90
-13.34
-17.66
-15.97
-7.52
3.53
11.29
11.01
2.93
-8.90
-19.21
-25.13
-27.78
-29.90
-33.61
-37.46
-38.37
-33.51
-23.13
-10.53
0.41
7.45
11.74
15.35
19.78
23.89
25.71
24.30
21.04
19.34
21.07
25.46
28.47
26.34
17.79
5.25
-6.69
-14.87
-18.55
-19.93
-21.29
-23.92
-27.01
-28.93
-28.45
-24.83
-18.41
-9.32
1.46
12.79
22.95
30.68
35.80
38.58
39.57
37.93
32.60
22.85
10.15
-2.31
-11.55
-16.45
-19.10
-22.14
-27.04
-31.88
-33.31
-28.89
-19.26
-8.27
0.36
4.83
6.75
8.44
11.25
14.11
14.71
12.10
7.14
2.57
0.00
-0.41
-0.29
-0.85
-1.62
-1.38
0.72
3.05
3.18
-0.77
-7.76
-14.50
-17.67
-16.17
-12.48
-9.84
-10.25
-12.38
-13.52
-11.75
-7.83
-4.79
-4.71
-7.36
-9.30
-7.39
-0.74
8.07
15.00
17.86
17.35
16.92
18.90
23.22
26.95
27.29
24.20
20.60
20.79
26.11
34.05
38.84
35.93
24.87
10.14
-1.45
-5.93
-4.22
-1.99
-4.78
-14.31
-26.72
-35.12
-34.76
-25.98
-14.83
-7.98
-8.99
-15.58
-22.14
-23.90
-20.17
-14.93
-12.62
-15.20
-20.02
-22.64
-19.95
-12.74
-5.04
-0.31
0.60
0.62
3.07
9.71
18.93
27.40
32.71
34.43
34.19
32.91
30.55
25.76
18.11
8.87
0.24
-5.97
-10.60
-15.48
-22.22
-29.58
-34.61
-34.60
-29.37
-22.35
-17.42
-16.62
-17.83
-17.23
-11.93
-2.54
7.16
13.65
15.78
16.28
18.34
23.35
29.12
31.80
29.18
22.29
15.31
11.46
11.19
11.15
7.74
-0.17
-9.97
-16.69
-17.28
-11.93
-4.47
1.26
3.31
2.44
0.83
-0.66
-2.36
-5.55
-9.79
-13.57
-14.89
-13.49
-11.37
-10.97
-13.38
-16.38
-16.80
-12.51
-4.80
2.68
6.79
7.20
7.21
10.20
17.24
25.07
29.01
26.26
18.49
11.20
9.18
13.56
20.04
22.78
18.10
7.53
-3.43
-9.69
-9.73
-7.23
-7.04
-12.02
-20.19
-26.68
-27.41
-22.08
-14.95
-10.77
-11.94
-15.89
-17.81
-14.08
-5.42
3.05
5.95
0.83
-9.18
-18.38
-21.74
-18.66
-12.75
-8.55
-8.45
-10.33
-10.20
-4.81
4.95
15.04
21.01
21.21
18.49
17.29
20.96
28.22
34.53
34.83
27.53
16.20
7.04
5.58
12.03
21.79
27.74
25.33
15.21
2.43
-6.71
-9.55
-7.60
-5.60
-6.93
-11.54
-16.03
-16.48
-12.17
-5.74
-1.99
-3.38
-8.82
-14.02
-15.03
-11.35
-5.89
-3.38
-5.95
-12.36
-18.43
-20.84
-19.19
-16.13
-15.48
-18.34
-22.68
-24.13
-20.02
-11.22
-2.20
1.94
-0.32
-6.00
-8.53
-3.08
10.60
27.06
38.66
40.53
33.39
23.47
17.47
18.77
24.71
29.35
27.68
19.25
8.78
1.85
1.59
5.90
10.02
9.58
4.05
-3.39
-9.12
-11.49
-12.60
-15.12
-20.08
-24.87
-25.20
-18.72
-7.24
3.27
7.23
2.47
-7.74
-17.73
-22.96
-22.84
-20.41
-18.73
-18.79
-18.28
-14.63
-7.04
2.12
9.05
11.78
11.16
10.68
12.72
17.32
21.58
22.72
20.26
16.31
14.27
15.23
17.93
19.12
16.49
9.92
1.30
-6.83
-13.36
-17.82
-20.44
-20.61
-17.98
-12.79
-6.58
-1.66
0.95
1.56
2.18
4.00
6.99
9.83
11.57
12.99
15.50
20.18
25.51
28.71
27.19
20.99
12.67
5.05
-0.69
-6.58
-14.90
-26.28
-37.92
-45.64
-46.77
-42.07
-35.68
-31.16
-29.41
-27.59
-22.43
-12.80
-1.09
8.41
13.25
14.11
14.76
18.13
24.60
31.45
35.45
35.65
33.75
32.95
34.10
35.30
32.61
23.82
10.44
-2.86
-10.75
-11.65
-7.86
-4.32
-4.31
-7.72
-11.35
-11.74
-8.68
-5.06
-5.47
-11.68
-21.80
-30.93
-34.75
-32.59
-27.37
-23.72
-23.65
-25.77
-25.94
-21.17
-11.89
-1.89
4.00
4.24
1.03
-0.48
3.20
11.83
21.15
25.84
23.74
16.75
10.08
7.58
9.63
12.42
11.27
4.58
-4.86
-10.86
-9.02
0.69
12.91
20.86
20.52
13.40
5.65
2.94
7.23
14.74
19.85
18.80
12.98
7.86
8.26
14.85
22.43
24.26
16.01
-0.38
-18.34
-31.00
-35.33
-34.06
-32.06
-32.96
-35.72
-36.54
-31.96
-22.09
-11.09
-3.63
-1.98
-3.73
-4.62
-1.51
4.54
9.21
8.58
2.09
-5.83
-9.50
-5.09
5.96
18.47
27.07
29.48
28.06
26.59
27.68
29.97
30.09
25.38
16.77
8.74
5.61
8.71
14.31
16.75
11.80
0.15
-13.24
-22.83
-25.91
-24.92
-24.23
-27.07
-32.23
-35.34
-32.22
-22.29
-9.92
-0.85
0.99
-3.08
-8.49
-10.66
-8.57
-5.50
-5.71
-11.46
-19.99
-26.05
-24.98
-16.52
-4.87
4.36
7.63
6.31
4.63
7.01
14.04
22.75
28.63
29.18
26.20
23.77
25.81
32.14
39.11
41.58
36.87
26.68
15.38
7.34
3.06
0.21
-4.76
-12.92
-22.06
-28.23
-28.28
-22.72
-14.36
-6.83
-1.56
1.97
5.01
7.63
7.87
4.10
-3.69
-11.93
-16.01
-12.71
-3.23
6.88
11.05
5.04
-9.48
-26.50
-38.44
-41.14
-35.51
-26.39
-19.10
-15.30
-13.13
-8.35
1.10
13.98
25.93
32.56
32.56
27.68
21.80
17.20
14.24
11.35
7.68
4.45
4.07
8.52
16.38
23.64
24.92
17.51
3.01
-12.87
-22.99
-23.08
-13.30
1.02
13.15
18.14
15.92
10.87
8.50
12.10
19.48
24.92
22.24
9.86
-8.12
-23.90
-30.62
-27.05
-17.43
-9.25
-7.36
-11.76
-17.62
-19.36
-14.93
-6.82
-0.85
-0.99
-7.46
-15.96
-21.44
-21.48
-17.77
-15.06
-16.66
-22.42
-27.98
-28.41
-21.38
-9.30
1.93
7.39
5.91
1.54
-0.25
4.10
13.14
21.88
25.51
22.67
16.92
13.04
14.12
18.63
22.42
21.80
16.58
10.41
7.22
8.59
11.70
12.43
8.36
1.27
-3.90
-3.30
3.13
10.53
13.16
7.88
-3.01
-13.74
-19.22
-18.40
-15.36
-15.12
-20.28
-28.02
-32.50
-28.78
-16.69
-1.73
8.88
10.04
2.71
-7.64
-14.24
-13.83
-8.58
-3.94
-5.20
-12.87
-22.91
-28.54
-25.49
-14.39
-0.50
9.35
11.68
7.65
2.67
1.65
6.22
13.25
17.43
15.50
8.13
0.26
-3.14
0.32
8.30
15.79
18.51
15.53
10.39
8.05
12.38
22.86
35.04
42.50
40.37
28.43
10.76
-5.31
-13.74
-12.01
-3.27
5.90
8.95
2.87
-9.59
-22.09
-27.56
-23.41
-12.30
-0.97
4.22
1.56
-5.58
-10.41
-8.17
1.37
13.05
20.25
19.35
11.86
3.93
1.44
6.74
16.15
22.78
20.44
8.02
-9.29
-23.31
-26.77
-18.38
-2.84
11.13
16.53
11.76
1.46
-6.31
-5.89
3.11
14.95
22.50
21.56
13.92
5.78
2.79
6.36
11.91
13.11
5.68
-8.93
-24.91
-36.15
-39.81
-38.12
-35.04
-33.52
-32.69
-29.74
-22.46
-11.59
-0.87
6.37
8.95
9.24
10.15
13.24
17.17
19.14
17.60
13.08
8.26
4.89
3.23
1.78
-0.25
-1.75
-0.52
5.05
13.13
19.71
20.51
14.90
6.19
-0.40
-1.32
2.17
5.44
3.40
-4.96
-16.09
-23.79
-23.76
-16.83
-7.99
-3.64
-6.27
-13.53
-19.26
-18.37
-10.35
0.26
6.29
3.51
-7.22
-19.53
-26.39
-24.23
-15.50
-7.03
-4.70
-9.99
-18.01
-21.64
-15.71
-1.29
15.01
25.14
24.35
14.55
2.09
-5.75
-6.08
-1.16
3.64
3.95
0.16
-3.53
-1.44
8.42
23.26
36.21
40.79
35.09
22.61
10.88
6.02
9.79
17.82
22.93
19.50
7.12
-8.57
-19.78
-20.40
-10.44
4.82
17.62
22.82
20.68
16.00
14.90
19.67
27.71
32.46
28.55
15.46
-1.60
-14.43
-17.55
-11.00
-0.98
5.08
2.78
-6.06
-15.09
-18.15
-13.10
-3.91
2.86
1.92
-6.39
-16.68
-21.83
-17.52
-5.77
6.90
12.49
7.25
-6.60
-21.54
-29.35
-25.94
-13.11
1.92
11.54
11.39
3.36
-6.47
-11.64
-9.27
-2.21
3.71
2.93
-5.21
-16.43
-23.45
-20.88
-8.89
7.04
18.54
19.99
11.16
-1.97
-11.30
-11.09
-1.27
12.11
20.97
19.01
6.08
-12.48
-28.16
-34.29
-29.40
-17.33
-5.22
1.36
0.61
-4.00
-7.01
-4.30
4.15
13.84
19.13
16.18
6.40
-4.95
-11.20
-8.78
0.54
10.97
15.62
11.45
0.55
-10.21
-13.87
-7.24
6.85
20.56
25.80
17.72
-1.63
-24.95
-42.70
-48.28
-41.22
-26.92
-14.09
-9.09
-13.28
-21.72
-27.05
-23.96
-12.62
1.16
10.31
10.39
3.28
-5.05
-8.15
-3.94
4.12
9.86
8.36
0.12
-9.99
-15.44
-13.18
-5.17
2.90
5.37
1.03
-6.75
-11.45
-8.59
1.89
15.02
24.04
24.86
17.94
8.55
2.55
3.35
9.28
15.23
15.98
9.57
-0.77
-9.29
-10.34
-2.73
10.21
22.22
28.22
27.23
22.14
18.09
18.18
22.14
25.80
24.40
15.61
1.30
-12.86
-21.08
-19.84
-10.70
1.18
9.31
9.68
2.96
-6.41
-11.86
-9.05
2.46
17.83
29.83
32.35
23.55
7.37
-9.10
-18.62
-18.49
-11.18
-3.11
-0.21
-4.06
-11.19
-14.76
-9.80
3.87
20.29
31.29
31.25
20.78
7.02
-1.20
2.14
15.71
32.16
42.01
39.55
26.04
8.25
-5.25
-10.04
-7.31
-3.06
-3.07
-9.15
-17.82
-22.85
-20.22
-10.40
0.93
7.45
5.83
-1.69
-9.03
-10.80
-5.44
2.92
8.14
5.38
-4.88
-17.28
-24.75
-22.52
-11.60
2.62
12.43
12.74
3.12
-11.42
-23.35
-26.68
-19.42
-5.46
8.34
15.07
12.19
2.26
-8.31
-13.20
-10.59
-3.53
1.11
-1.89
-12.94
-26.36
-33.90
-29.91
-14.63
5.05
20.48
25.32
19.69
8.86
-0.29
-3.65
-2.43
-0.92
-3.76
-11.55
-21.02
-26.60
-24.56
-15.73
-4.77
1.89
0.54
-8.40
-19.95
-27.76
-27.28
-18.03
-4.20
8.26
13.61
9.75
-1.73
-15.78
-26.55
-29.97
-24.98
-14.40
-2.68
5.47
8.06
6.03
2.87
2.52
6.95
15.62
24.93
30.95
30.75
24.66
15.81
8.65
6.81
10.58
17.44
22.51
21.88
14.36
2.69
-7.69
-11.73
-6.91
4.53
17.46
25.53
25.18
17.05
5.55
-3.36
-6.01
-2.21
4.02
7.48
4.10
-6.33
-20.08
-31.50
-35.20
-29.28
-15.37
1.21
14.59
20.47
18.14
10.94
3.78
1.19
3.94
9.26
11.76
7.27
-4.38
-19.04
-29.55
-30.36
-19.85
-2.33
14.85
24.68
24.33
16.60
7.40
3.01
5.67
13.29
20.15
20.92
13.70
1.02
-11.12
-17.32
-14.92
-6.32
3.31
8.59
7.35
1.98
-2.71
-1.87
5.37
15.93
23.68
23.44
14.08
-0.78
-14.13
-19.95
-15.50
-3.53
10.12
19.07
19.97
13.88
4.98
-1.10
-0.89
6.30
17.37
27.49
31.91
27.96
16.66
1.58
-11.77
-19.39
-19.94
-15.96
-12.12
-12.29
-17.55
-24.49
-27.91
-22.84
-8.56
11.16
29.16
38.28
35.10
20.69
0.75
-17.92
-29.49
-31.90
-26.84
-18.84
-13.36
-13.78
-20.75
-30.73
-38.39
-38.70
-30.10
-15.51
-0.69
8.23
9.06
3.84
-1.82
-3.16
1.01
7.55
11.14
8.81
1.53
-5.20
-5.90
1.90
15.08
26.53
29.50
21.09
4.77
-12.20
-21.62
-19.22
-6.24
11.13
24.61
28.37
20.76
5.99
-8.95
-17.11
-15.76
-7.64
0.83
2.67
-4.80
-19.07
-32.87
-38.97
-33.98
-20.53
-5.77
3.40
3.58
-2.33
-8.15
-7.74
0.46
12.67
22.27
23.51
15.85
3.41
-6.72
-9.63
-4.87
3.43
9.47
10.22
6.61
3.54
5.35
13.51
24.75
33.33
34.89
28.84
19.43
12.19
11.30
16.11
22.10
23.25
15.78
1.02
-15.79
-27.22
-28.34
-18.27
-1.34
15.62
26.40
27.65
20.56
8.86
-2.29
-9.33
-10.77
-7.75
-3.19
-0.13
-1.27
-7.11
-16.59
-26.27
-32.47
-32.36
-25.83
-16.05
-7.48
-4.38
-7.29
-13.34
-17.11
-14.41
-4.86
7.74
17.01
18.47
11.52
0.93
-6.66
-6.15
2.78
15.16
24.37
25.27
17.92
6.55
-2.45
-4.97
-1.34
4.17
5.74
0.40
-10.87
-22.60
-28.54
-24.49
-10.91
7.13
23.00
30.64
27.85
16.19
0.65
-13.34
-22.03
-24.74
-24.06
-23.27
-24.89
-27.90
-29.00
-24.22
-12.35
3.14
15.65
18.22
8.57
-9.71
-27.77
-36.64
-31.89
-16.10
2.02
12.87
10.10
-5.50
-27.41
-45.92
-52.99
-45.67
-26.26
-1.53
21.18
35.94
40.86
37.36
29.31
21.10
15.46
13.46
13.74
14.40
13.24
9.42
3.57
-2.44
-5.73
-4.38
2.54
13.41
25.15
33.66
35.78
30.75
20.24
8.34
-1.00
-5.04
-4.43
-2.22
-2.26
-6.81
-14.44
-21.21
-21.94
-14.34
-0.02
15.16
24.61
24.50
15.69
3.78
-4.87
-6.03
-0.76
6.12
8.83
4.43
-4.77
-13.32
-15.24
-8.76
3.22
14.15
18.43
14.97
7.71
3.92
8.67
22.27
38.74
49.50
47.72
32.41
9.48
-11.84
-22.76
-20.00
-6.25
10.69
22.39
23.39
13.20
-3.51
-20.19
-30.54
-31.80
-24.84
-13.71
-3.52
1.88
0.65
-5.83
-14.78
-22.40
-25.95
-24.28
-18.38
-11.10
-5.51
-4.44
-8.37
-16.14
-24.46
-29.77
-29.68
-23.81
-14.38
-4.59
2.10
4.35
2.61
-0.73
-3.04
-3.01
-0.78
1.45
1.47
-2.35
-9.10
-15.96
-19.04
-15.27
-4.70
9.95
23.22
30.18
28.13
18.63
6.48
-2.64
-4.70
0.16
8.70
15.43
16.12
9.58
-1.62
-12.36
-17.91
-15.81
-7.97
1.13
6.19
4.86
-1.01
-6.22
-4.81
5.66
22.97
39.95
48.73
44.41
28.16
6.92
-10.58
-17.43
-12.71
-0.77
10.40
13.95
7.34
-6.38
-19.83
-25.62
-19.28
-2.56
18.13
34.04
38.82
31.64
17.23
3.96
-1.22
4.58
17.98
31.97
38.96
34.58
19.84
-0.27
-18.39
-28.77
-28.64
-19.64
-6.12
6.52
13.78
14.01
7.78
-1.88
-11.75
-19.05
-22.66
-22.94
-21.03
-18.89
-17.75
-18.85
-21.89
-25.64
-27.70
-25.83
-19.35
-9.51
0.14
6.37
7.31
4.51
1.40
1.23
4.73
8.91
9.53
3.23
-8.89
-21.98
-29.38
-26.90
-15.66
-1.55
7.17
4.97
-8.59
-27.77
-43.90
-49.40
-41.26
-22.92
-1.67
14.10
19.56
14.77
4.89
-3.16
-4.06
3.77
17.19
30.98
39.62
40.42
33.78
22.89
12.03
4.35
1.31
1.57
2.70
1.91
-1.57
-6.04
-7.94
-3.53
7.99
23.97
37.96
43.31
35.96
17.15
-6.53
-26.40
-34.90
-29.82
-14.25
4.17
17.58
20.96
14.35
2.78
-6.97
-8.91
-1.56
12.14
25.50
31.52
26.23
10.33
-10.27
-27.83
-35.22
-29.86
-14.26
4.59
18.36
21.16
11.29
-7.46
-28.50
-44.45
-50.80
-47.03
-36.11
-23.07
-12.05
-5.76
-4.13
-5.97
-9.11
-11.64
-12.06
-9.10
-2.51
7.34
18.05
26.82
30.81
29.32
24.29
19.15
17.47
19.78
23.73
24.69
19.48
8.30
-4.35
-11.62
-8.51
5.89
26.53
45.28
54.00
48.65
30.75
6.37
-16.25
-30.67
-33.44
-25.56
-10.76
5.60
18.51
24.57
22.21
12.63
-1.65
-16.55
-28.35
-34.30
-33.74
-28.50
-21.85
-17.91
-18.97
-25.09
-32.96
-37.90
-35.81
-25.23
-9.08
7.13
16.85
16.48
6.48
-8.14
-20.55
-25.30
-20.32
-8.34
5.73
16.39
20.82
19.08
14.05
9.68
8.62
11.99
18.15
24.52
28.01
26.93
21.28
12.93
5.19
0.78
1.63
7.00
14.61
21.01
23.47
21.25
15.69
10.07
7.18
8.70
13.22
17.52
17.63
11.10
-1.13
-15.39
-25.99
-28.68
-22.02
-9.06
4.47
12.62
11.75
2.86
-10.04
-20.96
-25.60
-22.56
-14.25
-5.40
-0.34
-1.61
-8.05
-16.36
-21.84
-21.49
-15.14
-5.96
0.76
0.66
-8.12
-22.76
-37.65
-46.09
-43.96
-31.44
-12.74
5.43
17.65
21.18
17.66
11.26
6.86
7.23
11.63
16.73
17.81
12.25
0.41
-13.38
-23.28
-24.71
-16.84
-3.83
7.73
11.37
5.13
-7.82
-20.06
-23.92
-15.74
2.33
22.44
35.64
35.45
22.00
1.67
-15.69
-21.41
-12.75
6.56
27.22
39.66
37.95
23.12
2.30
-14.72
-19.73
-10.31
10.36
34.29
53.04
60.35
54.47
38.16
16.84
-2.78
-15.76
-19.38
-14.55
-4.70
5.13
10.02
7.28
-3.26
-18.40
-33.64
-44.06
-46.54
-40.61
-28.55
-14.99
-4.53
-0.92
-4.74
-13.90
-23.89
-29.94
-29.03
-20.74
-8.20
4.15
11.56
12.05
6.70
-0.29
-3.64
0.23
12.03
28.32
43.83
52.87
52.30
42.01
24.93
6.03
-10.02
-19.28
-20.60
-15.01
-6.09
1.65
4.42
0.65
-7.60
-16.17
-19.80
-15.65
-4.03
11.11
23.90
29.28
24.30
9.81
-10.97
-32.60
-49.82
-58.37
-56.00
-43.34
-23.10
-0.47
19.17
30.91
32.56
24.95
11.94
-0.54
-7.18
-4.18
8.24
26.82
45.35
57.24
57.88
46.18
25.84
3.23
-14.04
-21.11
-17.00
-5.60
6.34
12.34
8.68
-3.13
-18.11
-29.24
-31.59
-24.04
-9.86
4.71
13.76
13.24
2.98
-14.57
-34.80
-52.97
-64.77
-66.76
-57.48
-37.14
-9.33
20.25
44.21
56.47
54.36
39.93
19.92
2.37
-5.73
-2.18
10.46
25.46
35.26
34.74
22.81
3.54
-16.48
-29.89
-32.20
-22.92
-6.01
11.54
22.75
22.57
10.66
-9.45
-30.79
-46.21
-50.78
-43.36
-27.26
-8.07
7.63
15.63
14.58
7.10
-1.84
-7.17
-5.51
2.42
12.94
20.21
19.97
11.15
-2.76
-15.23
-20.01
-13.38
3.15
24.32
42.45
51.35
48.13
34.23
14.89
-3.60
-15.40
-17.97
-11.93
-1.14
9.41
15.41
14.46
7.40
-3.18
-13.17
-19.36
-19.99
-15.71
-9.30
-4.28
-4.29
-10.67
-22.57
-36.06
-46.11
-48.18
-40.37
-24.82
-6.45
8.26
15.10
13.19
6.11
-0.50
-1.79
4.03
14.18
23.54
26.44
20.53
7.33
-7.74
-17.92
-18.45
-8.02
9.73
28.67
41.92
45.24
38.22
24.37
9.71
-0.37
-2.32
3.24
12.95
21.58
24.60
20.05
9.14
-3.62
-13.08
-14.75
-7.81
4.97
17.74
24.22
20.60
6.72
-13.15
-33.08
-47.06
-51.79
-47.21
-35.99
-22.36
-10.09
-2.30
0.02
-2.67
-7.94
-12.41
-12.88
-7.52
2.18
12.47
17.90
15.07
4.05
-10.62
-22.11
-24.89
-16.88
-1.31
15.98
28.55
33.08
29.59
20.95
11.08
2.75
-2.08
-3.15
-0.52
4.67
10.74
15.34
16.12
12.26
4.41
-4.31
-10.46
-10.96
-4.99
5.76
17.85
26.69
28.75
21.65
5.78
-16.42
-40.10
-59.23
-68.29
-63.35
-44.42
-14.86
18.31
47.33
65.19
68.03
56.28
33.84
7.53
-15.93
-30.71
-34.17
-26.76
-12.30
3.21
13.70
14.50
5.20
-10.93
-27.16
-36.58
-34.90
-22.30
-3.86
13.33
22.24
19.66
6.40
-12.59
-30.53
-41.33
-40.98
-29.32
-8.84
15.23
37.35
52.20
56.31
48.74
31.12
8.20
-14.01
-28.88
-32.19
-23.14
-5.51
13.60
26.64
27.99
17.03
-2.72
-24.43
-41.31
-48.69
-45.03
-32.22
-13.61
6.18
23.16
33.61
35.33
27.94
13.67
-2.29
-13.75
-14.86
-3.63
17.54
41.43
59.03
63.00
50.32
24.27
-7.69
-35.72
-51.97
-52.38
-38.23
-15.37
8.23
24.52
28.63
19.34
0.14
-22.80
-42.26
-52.23
-50.16
-36.97
-17.51
2.03
15.53
19.79
15.25
5.90
-2.18
-3.98
3.04
17.00
33.21
45.36
48.66
41.70
26.87
9.99
-2.98
-7.44
-3.04
6.96
16.71
20.52
15.50
2.26
-14.79
-30.24
-39.00
-38.83
-30.45
-16.99
-3.02
7.37
10.80
6.13
-6.20
-23.22
-40.42
-52.55
-54.83
-45.49
-26.01
-1.95
19.85
33.13
35.30
28.14
16.54
6.65
2.33
4.71
11.23
18.03
21.12
18.15
9.24
-3.70
-16.75
-26.19
-28.62
-22.77
-9.28
9.32
29.20
46.71
58.20
61.47
54.95
38.97
15.66
-10.73
-34.11
-48.73
-50.17
-37.96
-15.11
11.96
35.96
50.65
52.58
42.13
22.34
-1.36
-23.64
-39.66
-46.69
-44.32
-34.30
-20.73
-8.17
-1.31
-2.39
-11.22
-24.33
-36.35
-42.01
-37.47
-22.69
-0.45
23.53
43.15
53.08
50.64
36.61
14.80
-8.05
-25.15
-30.85
-23.38
-5.05
17.94
37.77
47.82
44.19
27.63
2.11
-25.59
-48.38
-60.57
-59.22
-45.65
-24.56
-3.48
10.65
13.36
5.24
-8.43
-19.91
-22.00
-12.03
7.84
30.50
47.81
53.43
45.79
28.49
8.25
-7.28
-13.30
-8.46
4.35
20.26
33.71
40.40
38.40
27.79
11.46
-6.77
-22.21
-31.19
-31.92
-25.14
-14.32
-3.95
1.29
-0.93
-10.48
-23.94
-36.29
-42.56
-39.31
-26.77
-7.91
11.43
25.32
29.18
21.76
5.77
-13.36
-28.46
-33.94
-26.68
-8.14
16.66
40.15
55.00
56.88
45.25
24.32
0.33
-19.85
-31.38
-32.36
-24.01
-10.37
3.60
12.60
13.37
4.93
-9.90
-25.53
-35.36
-34.00
-20.54
1.56
24.51
40.14
42.53
30.83
9.39
-14.48
-32.75
-40.47
-36.00
-21.91
-2.79
15.78
28.99
34.11
30.36
20.02
6.66
-5.03
-11.41
-10.80
-4.29
4.41
10.81
10.76
3.06
-10.87
-26.34
-37.60
-39.81
-30.83
-12.91
8.71
26.58
34.80
30.56
15.70
-4.22
-22.15
-31.62
-29.73
-16.88
2.56
22.80
37.91
43.99
40.27
28.77
14.29
1.68
-4.99
-4.50
1.53
9.15
13.51
11.18
0.82
-15.22
-32.67
-45.75
-49.88
-43.00
-26.22
-4.14
17.49
32.64
37.65
31.37
15.86
-4.47
-24.15
-37.42
-40.53
-31.82
-13.45
9.87
31.42
45.10
47.34
37.87
20.20
-0.67
-18.88
-30.09
-31.78
-24.06
-9.79
6.42
18.51
21.70
13.45
-4.35
-26.26
-44.58
-52.20
-45.79
-26.26
0.84
28.32
48.86
57.70
53.43
38.26
17.80
-1.34
-12.68
-13.20
-3.72
10.51
22.58
26.79
21.05
8.31
-6.04
-16.03
-18.63
-14.13
-5.73
2.27
6.62
5.27
-1.54
-12.59
-24.82
-34.70
-38.36
-32.92
-18.17
3.48
26.33
44.15
51.39
45.89
29.11
5.72
-17.69
-35.30
-42.61
-38.35
-23.63
-2.40
20.01
37.68
45.44
40.85
24.39
0.49
-24.37
-42.87
-49.74
-43.33
-26.06
-4.08
15.66
26.91
27.20
17.77
3.45
-9.55
-16.48
-15.04
-6.88
4.51
14.57
20.27
20.23
14.88
5.78
-5.50
-16.67
-25.62
-29.53
-26.33
-15.17
2.26
21.47
36.64
41.72
33.64
12.87
-15.41
-43.23
-62.05
-65.65
-52.81
-27.09
3.51
30.38
46.24
47.96
36.84
17.44
-3.65
-20.57
-28.71
-26.60
-15.33
1.11
17.24
27.76
28.90
20.67
6.02
-9.41
-20.09
-22.10
-14.72
-0.75
15.08
26.87
30.30
23.09
6.58
-15.14
-36.00
-49.68
-51.97
-41.24
-19.88
7.54
34.66
55.51
65.52
62.38
46.98
22.55
-5.08
-29.88
-46.18
-50.93
-44.00
-28.03
-8.05
10.84
23.75
28.06
23.10
10.97
-4.30
-17.78
-24.66
-22.53
-11.23
6.24
25.70
42.43
52.81
54.81
47.69
32.73
12.10
-10.05
-29.13
-40.26
-40.45
-29.81
-11.55
8.25
23.83
30.71
27.85
16.62
0.13
-17.95
-34.46
-46.08
-50.46
-45.47
-31.14
-9.53
14.72
35.55
47.61
47.30
34.77
12.73
-13.49
-38.17
-55.85
-62.68
-57.54
-41.73
-19.75
2.79
19.83
27.57
25.23
15.49
3.71
-4.72
-5.53
1.97
15.62
30.46
41.00
42.94
34.42
17.23
-4.65
-25.34
-39.86
-44.84
-39.72
-26.49
-8.68
9.01
22.55
28.34
24.98
13.05
-4.04
-20.65
-30.61
-28.78
-14.03
10.92
39.18
62.69
74.37
70.69
52.86
25.70
-3.24
-27.07
-40.46
-41.57
-31.81
-15.38
1.83
14.27
17.48
10.38
-5.18
-24.02
-39.62
-46.21
-40.78
-24.97
-3.91
14.75
24.70
22.68
10.36
-6.77
-21.72
-28.28
-23.93
-9.56
10.46
30.88
46.76
54.84
53.79
43.38
24.96
0.42
-26.63
-51.63
-69.17
-74.67
-66.00
-44.09
-13.59
19.42
47.99
66.95
73.04
65.65
46.83
20.42
-7.61
-31.21
-44.73
-45.37
-33.63
-13.83
7.20
22.61
27.13
19.52
1.93
-20.05
-39.91
-51.81
-52.26
-41.41
-22.15
-0.00
19.58
31.86
34.73
28.60
16.05
1.39
-11.34
-18.42
-18.38
-11.42
-0.09
11.79
20.30
22.33
17.36
6.68
-6.22
-17.74
-24.53
-24.77
-18.17
-5.57
10.74
28.28
43.54
53.55
55.58
48.54
33.41
12.98
-8.00
-25.09
-34.24
-33.86
-24.55
-9.55
6.07
17.06
18.97
10.45
-7.02
-28.46
-47.59
-58.24
-56.57
-42.61
-19.49
6.62
29.59
44.08
47.88
41.43
27.54
10.54
-5.55
-17.00
-21.90
-19.40
-10.63
1.84
14.07
21.46
20.71
10.45
-6.98
-26.74
-42.33
-48.34
-42.31
-25.60
-3.57
17.10
29.72
30.80
20.31
2.40
-16.36
-29.43
-31.95
-23.14
-5.35
15.91
34.91
46.71
48.76
41.30
26.50
8.41
-9.05
-22.00
-28.16
-26.49
-17.59
-3.41
13.47
29.42
41.33
46.08
42.38
30.62
13.58
-4.16
-18.17
-24.89
-23.78
-16.29
-5.74
4.83
13.33
18.77
21.20
20.11
15.27
5.99
-7.05
-22.21
-36.54
-46.75
-50.59
-46.80
-36.21
-20.37
-2.21
15.11
28.02
33.31
29.39
16.37
-2.61
-23.12
-39.65
-48.00
-45.86
-33.51
-13.84
9.19
30.64
46.73
54.50
53.03
42.91
26.16
6.27
-12.95
-26.91
-32.25
-26.95
-12.03
8.70
29.44
43.90
48.04
40.35
22.94
-0.47
-25.10
-46.66
-61.71
-67.44
-62.53
-46.70
-22.12
7.39
36.03
57.87
68.11
64.20
47.08
20.23
-10.10
-37.25
-54.85
-59.15
-50.10
-31.30
-9.54
8.32
16.76
14.47
3.61
-10.75
-23.16
-29.90
-29.35
-22.68
-11.64
1.53
15.57
29.41
41.78
51.04
54.73
51.19
39.53
21.27
-0.65
-21.90
-38.35
-47.15
-46.89
-38.51
-23.88
-6.44
10.38
23.01
28.71
26.44
16.69
2.40
-12.81
-24.47
-29.48
-26.20
-15.38
0.08
16.40
29.24
35.98
35.13
27.45
14.67
-0.92
-16.75
-30.54
-39.79
-42.95
-38.84
-28.08
-12.33
5.79
23.32
38.00
47.46
50.20
44.70
30.97
10.60
-12.32
-32.00
-43.05
-41.72
-28.35
-6.33
18.16
39.01
51.33
52.64
43.28
25.11
1.76
-23.19
-45.55
-61.64
-68.19
-63.11
-46.71
-21.51
6.98
32.61
49.20
53.30
44.63
26.28
3.94
-16.65
-30.32
-34.71
-29.50
-16.85
0.02
17.46
31.69
40.00
40.09
31.55
15.19
-5.90
-27.20
-43.54
-50.29
-45.53
-29.87
-7.28
17.23
38.33
52.35
57.66
54.27
43.78
27.73
8.26
-13.00
-33.61
-50.75
-61.15
-61.86
-51.97
-32.58
-7.67
17.83
38.74
51.62
54.97
48.85
34.81
14.60
-8.83
-32.08
-50.39
-59.31
-55.83
-39.76
-14.88
12.84
36.01
49.18
49.56
38.22
19.21
-1.85
-18.99
-28.12
-26.99
-16.56
0.20
18.25
32.14
37.50
31.96
16.71
-4.55
-25.69
-40.89
-45.67
-38.78
-22.45
-1.21
18.77
32.43
36.08
29.25
13.77
-6.41
-26.34
-41.72
-49.21
-48.06
-38.89
-24.13
-6.49
11.23
26.53
37.47
41.98
39.02
28.05
10.55
-10.40
-29.93
-42.66
-44.61
-34.08
-13.27
13.30
39.23
59.09
69.11
67.90
56.46
36.88
12.88
-11.68
-32.06
-44.46
-46.37
-37.88
-22.03
-3.25
13.21
23.97
27.30
23.65
14.37
1.30
-13.35
-27.54
-38.56
-44.55
-43.91
-36.64
-23.74
-7.19
10.19
25.72
36.32
40.12
35.93
24.83
9.17
-7.58
-21.72
-30.91
-33.66
-30.42
-21.96
-10.09
3.32
16.06
25.58
30.06
28.00
19.69
6.15
-10.14
-26.42
-39.57
-46.69
-45.96
-36.45
-19.54
2.29
24.83
43.84
55.56
57.62
50.15
34.79
15.30
-4.54
-20.74
-30.77
-33.27
-28.14
-16.86
-1.42
14.95
29.32
38.45
40.45
34.90
23.09
8.11
-6.67
-17.50
-22.14
-19.36
-10.06
3.28
16.95
26.63
29.46
24.01
11.79
-4.45
-21.06
-35.26
-45.44
-50.73
-51.14
-46.14
-35.99
-21.23
-3.95
12.65
25.06
30.07
26.43
14.37
-3.45
-23.63
-41.68
-53.47
-55.91
-47.56
-29.86
-6.14
18.25
38.38
50.27
52.26
44.91
30.14
11.24
-8.66
-25.70
-36.75
-39.09
-32.01
-17.04
2.38
21.42
36.34
44.53
45.76
40.74
31.01
18.32
4.58
-7.63
-16.24
-19.36
-17.00
-10.18
-1.02
8.59
17.63
25.29
31.17
33.84
32.13
24.90
12.75
-2.25
-17.28
-29.34
-37.04
-39.63
-37.57
-31.08
-20.84
-8.00
5.62
17.22
24.67
26.50
23.42
16.83
8.56
-0.46
-9.95
-19.20
-26.99
-30.65
-28.17
-18.69
-4.05
12.27
26.82
37.23
43.48
46.06
45.82
42.19
34.45
22.28
6.77
-9.24
-23.02
-32.20
-36.43
-35.96
-31.75
-24.40
-14.41
-3.18
7.48
14.57
16.12
10.95
0.04
-14.35
-29.09
-40.73
-46.81
-45.40
-36.63
-21.54
-2.72
16.81
34.05
46.27
52.03
50.22
41.22
25.87
6.56
-13.86
-32.31
-46.10
-54.25
-56.55
-54.28
-48.36
-39.93
-29.56
-17.70
-5.12
7.86
20.50
32.71
43.77
52.83
57.94
56.78
47.57
29.85
6.19
-18.99
-39.56
-50.57
-49.22
-36.21
-15.43
8.00
28.48
42.27
46.95
42.47
30.10
12.65
-5.81
-21.26
-29.75
-29.60
-20.97
-6.64
9.58
23.59
31.85
32.35
24.10
8.22
-12.84
-34.54
-51.70
-59.52
-55.24
-39.69
-16.37
8.88
30.86
45.45
50.94
47.32
35.85
19.19
0.34
-16.69
-28.71
-33.19
-29.71
-19.29
-3.99
13.39
30.58
44.93
54.50
57.10
51.63
38.20
18.81
-2.49
-21.10
-32.24
-33.41
-24.20
-7.37
12.42
29.83
40.04
40.81
31.77
15.17
-6.12
-28.67
-49.39
-65.50
-74.33
-74.30
-64.49
-46.22
-22.21
2.92
24.16
37.14
39.12
30.28
12.77
-8.99
-30.31
-46.35
-53.66
-50.43
-36.60
-14.59
12.02
38.07
58.93
70.49
70.70
59.65
39.27
13.48
-13.40
-36.17
-50.59
-53.41
-43.89
-24.27
0.54
23.47
38.19
40.06
28.60
7.00
-18.32
-40.01
-52.03
-50.93
-37.27
-14.20
12.78
38.13
56.56
64.33
59.91
44.06
20.61
-5.08
-26.39
-38.37
-38.55
-28.02
-11.03
6.98
20.41
25.94
22.16
10.44
-6.14
-23.18
-35.86
-40.46
-34.75
-19.67
1.68
23.87
41.34
49.39
45.63
31.01
8.86
-15.11
-35.52
-47.67
-49.46
-41.09
-25.02
-5.58
12.66
24.88
28.29
21.95
8.04
-9.15
-24.30
-32.49
-31.52
-21.60
-5.90
11.84
27.73
39.25
45.00
44.29
37.63
25.81
11.38
-2.66
-12.67
-16.13
-12.41
-2.98
8.67
19.46
26.78
30.30
30.39
27.69
22.22
13.43
1.90
-10.72
-20.61
-24.24
-19.49
-7.89
5.77
15.57
16.60
7.96
-8.00
-26.19
-41.99
-52.27
-56.11
-54.11
-46.71
-34.79
-18.83
-0.85
16.25
28.67
33.46
29.94
19.77
6.98
-4.62
-11.67
-12.95
-8.57
0.08
10.76
21.19
28.28
29.91
24.43
12.45
-3.76
-20.46
-33.51
-40.17
-38.96
-30.75
-17.16
-0.96
15.21
28.77
37.56
40.67
37.76
30.16
19.24
6.96
-5.44
-16.93
-26.88
-34.94
-40.34
-42.88
-41.86
-37.18
-28.52
-16.03
-0.73
15.57
29.47
37.67
37.13
27.56
11.15
-7.36
-22.46
-30.17
-28.69
-19.58
-5.49
10.04
24.44
35.73
42.16
42.49
35.58
22.20
4.37
-14.02
-29.14
-37.80
-38.69
-32.44
-20.36
-4.66
12.90
29.83
43.53
50.93
49.56
38.91
20.43
-1.80
-23.32
-39.64
-48.16
-47.90
-39.44
-24.68
-5.79
14.02
31.90
44.48
49.39
45.37
32.92
14.48
-6.64
-26.45
-42.20
-51.89
-55.19
-52.25
-43.65
-30.31
-13.02
6.10
24.54
38.63
45.41
43.01
31.81
14.52
-5.05
-22.41
-34.43
-38.88
-35.54
-25.14
-9.66
7.95
24.56
36.58
41.74
38.66
28.07
12.03
-6.43
-24.01
-37.96
-45.78
-46.21
-38.38
-23.18
-2.68
19.55
39.13
52.46
56.77
51.71
38.14
18.73
-3.30
-23.99
-39.17
-45.66
-41.43
-27.45
-6.71
15.39
33.31
42.49
40.75
29.02
10.34
-10.32
-28.40
-39.83
-42.49
-35.83
-21.06
-1.16
20.13
37.95
48.41
48.61
38.37
19.93
-2.51
-23.76
-39.93
-48.40
-49.10
-42.97
-31.86
-17.39
-0.93
15.94
31.90
45.08
54.28
58.43
57.34
50.99
39.68
24.05
4.82
-16.04
-36.19
-52.10
-60.67
-59.63
-48.69
-29.88
-6.64
16.39
35.57
48.09
53.15
51.08
42.94
30.32
14.44
-2.78
-19.72
-34.15
-44.48
-49.50
-48.97
-43.60
-34.16
-22.10
-8.47
5.17
17.38
26.39
30.68
29.48
22.55
11.10
-3.36
-18.12
-30.53
-37.78
-37.94
-30.58
-16.65
0.80
18.38
32.11
39.40
38.89
31.00
17.87
2.42
-11.44
-20.66
-22.76
-17.55
-6.67
6.35
17.15
22.32
19.82
10.37
-3.98
-19.64
-33.16
-41.39
-41.99
-34.25
-18.74
1.52
22.42
38.75
46.44
43.39
30.32
10.95
-10.00
-27.30
-37.81
-39.85
-34.09
-22.25
-6.60
10.13
25.62
37.09
42.66
40.68
31.22
15.76
-2.77
-20.65
-34.65
-42.10
-42.17
-34.91
-22.01
-5.85
10.60
24.13
32.57
34.22
29.22
18.26
3.49
-12.53
-26.68
-35.71
-37.54
-31.15
-18.09
-1.14
15.77
29.49
38.13
40.99
38.55
30.95
18.91
3.10
-14.23
-29.90
-40.05
-41.60
-33.88
-18.37
0.81
19.36
33.09
39.64
38.18
29.24
14.78
-2.77
-19.69
-32.65
-38.43
-35.76
-25.39
-10.04
6.04
19.12
26.10
26.16
19.79
9.21
-2.74
-13.24
-19.60
-20.54
-15.46
-5.58
7.43
21.04
32.88
40.96
43.52
39.96
29.94
14.73
-3.87
-22.68
-38.30
-47.64
-48.58
-41.32
-27.45
-10.46
6.18
19.16
26.49
27.39
21.90
11.24
-3.06
-18.13
-30.89
-37.84
-36.75
-27.43
-11.80
6.11
22.51
34.08
39.70
39.41
34.22
25.26
13.32
-0.36
-14.78
-28.15
-39.19
-46.47
-49.18
-46.77
-38.78
-25.70
-8.51
10.29
27.83
40.69
46.39
43.68
32.77
15.69
-4.65
-23.97
-38.27
-43.80
-38.82
-24.14
-3.06
18.93
36.67
45.80
44.97
34.90
18.36
-1.10
-20.12
-35.42
-44.91
-46.77
-40.88
-27.92
-10.24
9.03
26.81
40.17
47.59
48.03
41.85
29.63
13.01
-5.79
-23.92
-38.06
-45.78
-45.28
-36.86
-21.79
-2.68
17.66
36.73
52.02
61.98
64.86
60.19
47.95
29.82
8.59
-12.06
-28.17
-37.18
-37.60
-30.34
-17.33
-1.64
13.64
25.90
32.91
33.73
27.67
15.52
-1.48
-20.71
-39.07
-53.29
-60.41
-59.08
-48.95
-31.69
-9.48
14.38
36.46
53.38
62.06
61.09
50.23
31.71
8.52
-15.40
-36.86
-53.45
-63.33
-65.75
-59.89
-46.44
-26.76
-3.98
18.38
37.05
49.72
56.01
56.20
51.65
43.20
32.01
18.93
5.06
-8.37
-20.61
-30.79
-38.93
-44.36
-46.44
-43.77
-35.42
-21.88
-5.26
10.12
20.09
21.24
13.34
-1.30
-18.32
-33.07
-42.65
-45.78
-43.57
-37.27
-28.48
-17.84
-5.79
6.99
19.70
30.81
39.65
45.70
49.46
51.14
50.54
46.71
38.21
24.64
6.30
-14.46
-34.65
-50.53
-59.01
-58.24
-47.70
-29.17
-5.48
19.04
40.52
55.53
62.33
60.69
51.22
35.69
15.73
-6.12
-27.30
-44.52
-54.88
-56.24
-47.70
-30.57
-7.42
17.34
39.06
53.09
56.34
47.91
29.33
4.90
-20.11
-39.75
-49.87
-48.19
-35.39
-14.42
10.49
34.25
52.89
63.18
64.07
55.72
39.97
19.53
-2.69
-23.63
-41.30
-54.04
-61.55
-63.74
-61.20
-54.48
-44.13
-31.11
-16.17
-0.88
13.61
25.93
35.41
41.71
44.74
44.94
42.38
37.95
32.20
26.23
20.46
14.76
8.48
0.32
-10.11
-22.93
-36.89
-50.67
-62.54
-70.94
-74.70
-72.65
-64.77
-51.36
-34.32
-15.50
3.06
20.31
36.09
50.16
62.23
70.60
73.64
69.62
58.45
41.45
21.06
0.43
-18.25
-33.08
-43.56
-49.03
-49.34
-44.26
-33.96
-19.76
-3.46
12.18
25.38
34.96
41.43
45.93
49.43
52.34
53.45
51.41
44.45
32.23
15.37
-4.03
-23.23
-39.77
-51.55
-57.99
-58.70
-54.09
-44.06
-28.80
-9.19
12.80
33.23
48.12
53.61
48.68
34.50
14.80
-5.95
-23.82
-35.81
-40.87
-38.50
-29.75
-16.11
-0.19
14.73
25.56
29.58
25.96
15.05
-0.88
-19.14
-36.51
-50.20
-58.22
-59.05
-52.68
-39.48
-21.33
-0.44
20.19
37.73
50.24
56.54
57.29
53.44
46.77
38.33
28.87
18.48
7.05
-4.97
-17.28
-28.77
-38.95
-46.96
-52.18
-53.63
-50.02
-40.70
-25.51
-6.18
14.83
33.94
48.04
54.91
53.57
44.75
29.72
10.88
-9.84
-30.06
-47.72
-60.43
-65.68
-61.74
-47.63
-24.96
3.03
31.32
55.08
70.55
75.83
71.13
57.31
36.47
10.78
-16.18
-40.19
-56.59
-61.75
-54.72
-37.09
-13.39
11.65
33.61
50.08
60.12
63.51
60.49
50.73
34.84
13.86
-9.56
-32.44
-51.73
-65.33
-72.59
-73.38
-68.46
-58.21
-43.57
-25.57
-6.12
12.44
28.14
39.42
46.59
50.30
51.95
52.04
50.38
46.09
38.05
26.17
10.64
-6.98
-25.26
-41.96
-54.79
-61.29
-59.09
-47.42
-26.96
-1.14
25.56
47.83
61.49
64.21
55.58
37.62
13.44
-12.46
-36.04
-53.63
-63.25
-64.35
-57.46
-44.27
-26.12
-5.11
16.94
37.34
53.54
63.21
64.87
58.80
46.02
29.02
9.94
-8.84
-25.65
-39.15
-48.23
-52.54
-51.78
-46.96
-39.12
-30.10
-21.09
-12.67
-4.67
3.93
13.43
24.01
34.53
43.98
51.03
54.90
55.14
50.91
41.89
27.45
8.47
-13.60
-35.93
-55.48
-69.61
-76.12
-74.24
-63.57
-45.32
-21.28
5.32
30.91
51.93
65.31
69.71
64.48
50.80
30.40
6.34
-17.94
-38.91
-53.42
-60.06
-58.41
-50.00
-36.60
-20.61
-4.06
11.42
24.35
34.29
40.74
44.29
45.06
43.33
38.78
30.98
20.12
6.71
-7.53
-21.23
-32.78
-41.78
-48.12
-51.74
-52.43
-49.01
-40.76
-26.97
-8.60
12.65
33.96
52.43
65.84
72.36
71.57
63.28
48.55
28.74
6.23
-16.01
-35.17
-48.57
-55.28
-55.14
-49.50
-39.68
-27.01
-12.39
3.68
20.01
35.53
48.23
56.76
59.83
57.07
48.72
35.37
18.39
-0.98
-20.62
-38.90
-53.85
-64.02
-68.11
-64.94
-54.17
-35.95
-12.33
13.74
37.96
56.33
66.03
65.99
57.54
42.87
25.23
7.06
-9.46
-23.29
-33.95
-41.36
-46.25
-48.99
-50.43
-50.45
-48.66
-43.93
-35.22
-22.35
-6.01
11.27
26.87
37.73
42.27
40.08
32.15
20.42
6.88
-6.38
-18.44
-28.38
-36.16
-41.30
-43.00
-40.19
-31.60
-17.23
2.11
23.77
44.83
62.10
73.33
77.42
73.77
62.91
45.40
22.99
-2.20
-26.97
-48.02
-62.63
-68.89
-67.15
-58.76
-46.78
-33.96
-22.45
-12.78
-4.03
4.99
15.34
26.28
36.52
44.03
47.76
47.67
44.51
39.62
33.54
26.80
18.99
10.16
0.21
-10.66
-21.91
-33.12
-43.08
-50.73
-54.25
-52.50
-44.66
-31.05
-12.97
7.86
28.93
48.33
63.73
73.63
76.62
71.97
59.96
41.60
19.48
-3.71
-24.66
-41.31
-52.29
-57.53
-57.64
-53.18
-45.09
-33.81
-20.53
-6.13
8.00
20.72
31.04
37.72
39.88
36.27
26.75
11.78
-6.43
-24.75
-39.48
-47.27
-46.50
-36.82
-20.17
0.70
21.98
40.09
52.11
56.07
51.91
40.48
24.31
5.86
-12.03
-27.45
-39.33
-47.24
-51.68
-52.87
-51.55
-47.71
-41.63
-33.16
-22.14
-8.73
6.75
22.70
37.30
47.75
52.00
48.75
38.26
22.41
3.63
-14.80
-30.48
-41.10
-45.64
-43.76
-36.09
-24.15
-9.37
6.49
22.75
38.50
53.09
64.83
71.38
70.29
59.70
40.11
13.72
-15.02
-41.62
-62.06
-74.03
-77.05
-71.68
-59.72
-42.73
-23.01
-2.48
16.60
32.37
43.66
49.77
51.36
49.17
44.89
39.64
34.41
29.34
23.78
17.08
8.30
-2.32
-14.52
-27.04
-38.84
-48.67
-55.14
-57.20
-53.58
-44.23
-29.58
-11.58
7.54
25.51
40.66
52.36
59.93
63.31
61.77
55.20
43.58
27.77
9.50
-9.37
-26.38
-39.90
-48.11
-50.28
-45.91
-35.30
-19.54
-0.10
20.47
39.87
55.17
64.29
65.49
58.26
43.44
22.69
-1.02
-25.04
-46.49
-63.72
-75.47
-81.44
-81.83
-77.10
-68.48
-56.92
-43.96
-30.37
-16.88
-3.62
9.57
22.52
35.16
46.48
55.73
61.65
63.58
61.15
54.43
44.16
30.81
15.45
-1.46
-18.69
-35.07
-48.77
-57.71
-60.47
-56.17
-45.67
-30.31
-12.44
6.02
23.25
37.86
48.92
55.32
56.60
52.23
42.73
28.83
12.02
-5.95
-23.48
-38.60
-49.96
-55.64
-54.40
-45.28
-28.73
-7.02
16.19
36.07
48.90
52.08
45.93
32.34
14.45
-4.50
-22.07
-36.08
-45.50
-49.21
-47.23
-39.93
-28.74
-15.64
-2.36
9.44
19.34
27.09
33.34
38.30
42.03
44.16
43.62
39.65
31.21
18.45
1.82
-17.02
-35.98
-52.58
-64.12
-68.67
-64.62
-52.10
-32.17
-7.51
18.59
42.75
61.61
73.01
75.19
68.11
52.49
30.90
6.70
-16.37
-34.90
-47.18
-52.44
-51.67
-45.79
-36.23
-24.11
-10.55
2.99
15.45
25.55
33.22
38.43
41.72
43.12
42.14
38.24
30.77
20.18
7.23
-6.46
-19.81
-32.14
-43.20
-53.11
-61.05
-66.08
-66.28
-60.56
-48.32
-30.53
-9.25
13.21
34.23
52.44
66.58
76.49
81.62
81.54
75.74
63.96
47.26
27.24
6.76
-12.01
-27.36
-39.08
-47.76
-53.97
-58.33
-60.46
-60.39
-57.66
-52.35
-44.33
-33.41
-19.93
-4.49
10.86
24.16
33.19
37.30
36.98
33.51
28.34
21.73
13.68
3.30
-9.16
-22.95
-36.16
-46.62
-52.79
-53.57
-49.39
-40.82
-29.23
-15.46
-0.37
15.45
31.42
46.24
58.78
67.28
71.03
69.73
64.25
55.95
45.93
35.24
23.77
11.68
-1.44
-15.26
-29.29
-42.63
-53.98
-62.56
-67.27
-67.89
-63.94
-55.54
-42.76
-25.99
-6.34
14.88
35.28
52.82
65.01
70.31
67.73
57.35
40.45
19.00
-3.91
-25.60
-43.36
-56.04
-63.34
-65.88
-64.54
-59.43
-50.63
-37.56
-20.68
-0.87
19.88
39.45
56.30
69.28
78.45
83.71
85.48
83.60
78.23
69.78
58.90
46.92
34.47
22.32
10.17
-2.02
-14.31
-26.20
-36.67
-45.22
-51.47
-56.42
-60.90
-65.86
-70.95
-74.72
-75.03
-69.57
-57.59
-39.35
-17.14
6.57
28.94
47.94
62.35
71.25
74.57
72.01
64.36
52.45
37.82
22.01
6.28
-8.15
-20.91
-31.31
-39.51
-45.48
-49.65
-52.32
-53.28
-52.36
-48.72
-42.50
-33.91
-24.18
-14.23
-4.50
5.33
16.50
29.47
44.36
59.42
72.40
80.31
80.79
72.76
56.39
33.86
7.85
-18.08
-41.41
-60.41
-74.40
-83.48
-87.45
-86.51
-80.38
-69.95
-56.49
-42.13
-28.77
-17.33
-7.89
0.76
9.39
18.75
28.32
37.44
45.38
51.81
57.19
61.59
65.35
67.76
68.14
65.40
58.86
48.34
33.72
15.62
-5.60
-28.36
-50.64
-69.13
-80.22
-80.99
-69.98
-48.70
-20.52
9.19
35.62
54.85
65.01
66.09
58.92
45.60
28.07
9.13
-8.99
-24.26
-35.83
-44.05
-49.66
-53.95
-57.02
-58.81
-58.28
-54.78
-47.90
-37.68
-24.87
-10.02
5.60
21.23
35.61
48.15
58.09
64.72
67.56
65.89
59.94
50.01
37.51
23.53
9.07
-5.21
-19.07
-31.40
-41.07
-46.06
-45.43
-39.18
-28.97
-17.37
-6.45
2.56
10.59
18.90
29.22
41.70
55.33
68.15
77.79
82.92
82.55
76.98
66.38
51.46
32.92
11.93
-9.55
-29.71
-46.50
-59.20
-67.41
-71.87
-73.28
-72.29
-69.64
-65.78
-61.93
-58.86
-57.59
-58.16
-59.94
-61.57
-61.13
-57.39
-49.40
-37.87
-23.74
-8.75
5.71
18.70
29.60
38.58
45.51
50.93
54.87
57.74
59.63
60.37
59.64
56.28
49.57
38.43
23.06
4.31
-15.66
-34.09
-48.53
-56.94
-59.11
-55.50
-47.77
-37.21
-24.88
-11.37
3.05
17.45
31.25
43.35
53.72
62.50
70.45
77.87
84.03
87.67
86.72
80.43
68.66
52.93
35.01
16.45
-1.73
-19.47
-36.20
-51.52
-63.99
-72.54
-76.32
-75.34
-70.71
-63.58
-55.67
-47.80
-40.99
-35.43
-31.16
-27.69
-23.93
-19.00
-11.73
-2.08
9.96
23.39
37.17
49.76
59.03
62.99
59.44
47.85
28.90
5.44
-18.84
-40.30
-56.09
-65.31
-67.75
-64.61
-56.97
-46.71
-35.82
-26.32
-19.85
-16.37
-14.85
-12.57
-7.27
2.84
17.58
35.15
52.69
66.63
74.47
74.29
66.15
50.96
30.92
8.68
-13.15
-31.78
-45.44
-52.56
-52.98
-47.10
-36.43
-22.94
-8.55
4.75
16.02
24.37
30.06
33.46
35.54
37.26
39.19
41.63
43.77
44.98
44.07
40.58
34.10
24.45
11.66
-4.36
-22.71
-42.28
-60.66
-75.54
-84.66
-86.70
-81.52
-69.65
-52.92
-33.22
-13.40
4.33
18.07
27.23
32.70
35.89
38.80
42.25
46.83
52.18
58.02
63.69
67.94
69.08
64.55
52.81
33.33
8.24
-18.73
-42.98
-60.53
-69.57
-70.07
-64.36
-54.96
-44.66
-35.09
-27.00
-20.48
-14.96
-10.28
-5.73
-1.14
4.38
11.52
20.99
32.92
46.10
58.92
68.88
74.57
75.08
70.94
63.02
52.04
38.73
23.10
6.05
-11.48
-27.42
-40.07
-48.34
-52.31
-53.61
-54.12
-56.00
-59.88
-65.66
-71.86
-76.59
-77.99
-74.45
-65.67
-51.81
-34.48
-15.27
3.74
21.04
35.57
46.52
53.94
57.82
59.10
58.53
57.15
55.31
52.61
48.44
41.67
32.20
20.01
6.08
-8.92
-24.31
-39.45
-53.54
-64.88
-72.09
-73.64
-69.59
-60.70
-48.53
-34.46
-19.02
-2.86
13.75
29.33
42.48
51.65
56.55
57.99
57.39
56.43
55.51
54.78
53.38
50.84
46.67
40.30
31.23
18.41
1.63
-19.06
-41.85
-64.19
-82.61
-93.78
-95.79
-88.14
-73.04
-53.80
-34.87
-19.43
-9.04
-3.07
0.73
4.34
9.37
15.64
22.87
30.45
38.55
47.50
57.10
66.67
74.29
78.55
78.18
73.33
64.96
54.50
43.60
33.06
23.64
14.96
6.74
-1.94
-11.68
-22.71
-35.02
-47.65
-59.93
-70.54
-78.86
-83.87
-84.86
-81.14
-72.19
-58.61
-41.38
-22.79
-4.63
11.34
24.56
35.00
42.60
47.38
48.63
46.72
42.44
37.94
35.10
34.77
36.08
36.19
32.58
23.42
9.55
-6.93
-23.33
-37.84
-50.17
-60.45
-69.19
-75.61
-78.92
-77.90
-72.35
-62.84
-50.34
-36.29
-21.51
-7.25
5.86
16.99
26.21
34.21
42.14
51.40
61.99
73.39
83.65
91.28
95.00
94.45
89.94
81.66
70.33
56.24
40.64
24.70
9.78
-3.51
-15.55
-27.10
-39.39
-52.46
-65.91
-78.20
-87.96
-93.98
-95.55
-92.93
-86.42
-77.20
-65.88
-53.37
-39.98
-26.08
-12.28
0.89
12.25
21.38
27.92
32.77
37.07
42.08
48.54
55.87
63.06
68.18
70.05
67.64
60.89
49.95
35.18
17.42
-2.76
-23.99
-45.04
-63.87
-78.63
-87.50
-89.30
-84.42
-74.12
-61.24
-48.15
-36.91
-27.84
-20.11
-12.40
-3.38
6.98
18.45
29.86
40.78
50.86
60.17
68.61
75.34
79.41
79.25
74.40
64.94
52.54
39.57
28.75
22.50
21.51
25.36
31.66
37.97
41.74
41.77
38.08
31.35
22.99
13.70
4.40
-4.83
-13.64
-21.89
-29.43
-35.90
-41.63
-46.55
-51.38
-56.27
-61.53
-66.95
-72.04
-76.28
-78.61
-78.60
-75.54
-69.60
-60.96
-50.28
-38.36
-25.91
-13.99
-3.09
5.96
13.20
18.79
23.73
29.20
36.13
45.24
55.84
66.93
76.21
81.63
81.13
73.34
58.22
36.63
11.21
-15.16
-38.87
-57.28
-68.68
-72.85
-71.02
-64.82
-56.49
-47.37
-38.67
-30.38
-21.98
-12.37
-0.24
14.92
33.03
52.18
70.00
83.47
90.68
91.14
85.70
76.51
65.32
53.86
42.60
31.88
21.59
11.53
1.49
-9.33
-21.25
-34.86
-49.44
-63.89
-76.24
-84.67
-88.17
-86.24
-79.80
-69.73
-57.66
-44.62
-31.64
-19.22
-7.44
3.58
14.27
24.47
34.51
44.11
53.29
61.74
68.85
73.89
75.32
72.05
62.86
47.91
28.21
5.90
-16.28
-36.19
-52.06
-63.72
-71.31
-75.73
-77.36
-76.19
-72.18
-65.28
-56.69
-47.74
-40.44
-35.41
-32.20
-28.98
-23.45
-14.38
-1.48
13.62
29.30
43.75
56.33
66.82
75.10
81.02
83.59
82.50
77.62
70.44
62.85
56.80
53.22
51.04
48.19
41.63
29.77
12.27
-9.01
-31.20
-51.62
-68.13
-80.25
-87.69
-90.99
-90.02
-84.95
-75.96
-63.65
-49.26
-33.79
-18.68
-4.61
7.57
17.81
26.33
33.80
41.36
49.49
58.53
67.33
74.54
78.18
76.93
70.36
58.95
44.49
28.82
14.38
2.70
-5.22
-9.69
-12.25
-14.89
-20.06
-28.83
-41.49
-56.27
-70.79
-82.23
-88.32
-88.29
-82.31
-72.25
-59.91
-47.50
-36.04
-26.01
-17.43
-10.00
-4.06
0.60
3.96
7.33
12.16
20.08
31.64
45.62
59.96
71.64
78.99
81.19
79.19
74.41
68.19
61.64
54.95
48.82
43.32
38.85
34.75
29.74
21.89
9.24
-8.53
-30.50
-53.62
-74.63
-90.10
-97.99
-97.71
-89.90
-76.68
-60.14
-43.13
-27.54
-14.96
-5.54
1.53
7.71
14.92
24.05
35.67
48.85
62.40
74.38
82.87
86.35
83.66
75.23
62.08
46.74
31.52
18.67
9.30
3.24
-0.20
-2.57
-4.67
-7.58
-11.58
-17.23
-24.90
-34.67
-46.54
-59.34
-72.01
-82.70
-90.20
-93.50
-92.45
-87.85
-80.82
-73.38
-66.84
-62.49
-60.06
-58.46
-55.54
-48.92
-37.28
-20.23
0.46
22.59
43.24
60.41
72.87
80.17
82.90
81.60
77.91
73.36
70.19
69.90
73.00
78.65
84.36
87.63
85.98
78.87
66.73
51.25
34.27
17.13
1.05
-13.72
-26.56
-37.61
-46.66
-54.02
-60.00
-64.73
-68.49
-70.98
-72.52
-72.91
-72.57
-71.37
-68.89
-64.44
-56.87
-46.11
-32.51
-18.12
-5.05
4.40
9.09
9.53
7.35
5.43
5.80
10.04
17.80
27.89
38.45
47.65
54.79
59.35
61.99
62.91
62.85
62.12
61.22
60.61
60.21
60.11
59.50
58.05
54.94
49.85
42.26
31.73
18.41
2.55
-14.17
-30.24
-43.58
-53.31
-59.46
-63.08
-65.91
-69.00
-73.36
-78.66
-84.70
-90.55
-95.41
-98.48
-98.70
-95.67
-88.87
-78.89
-66.25
-52.05
-36.98
-21.46
-6.04
9.03
22.66
34.42
43.78
51.44
58.52
66.24
75.30
84.85
93.73
100.04
103.03
102.43
98.97
93.44
86.21
77.83
68.50
59.26
50.62
43.00
35.82
27.87
18.19
6.15
-7.38
-21.41
-34.23
-44.83
-52.28
-55.84
-54.99
-49.21
-39.24
-26.33
-13.16
-2.18
4.43
5.64
1.76
-6.37
-16.93
-28.47
-39.07
-47.51
-52.78
-54.62
-53.76
-51.21
-48.87
-47.87
-49.40
-53.52
-59.71
-66.70
-72.61
-75.80
-74.55
-68.69
-58.59
-45.99
-32.61
-19.84
-8.35
2.29
12.44
22.87
33.15
42.92
51.42
58.47
64.62
70.45
76.86
83.55
90.13
95.31
98.21
98.23
94.96
88.57
78.68
65.69
49.79
32.43
15.51
1.48
-7.53
-11.01
-9.64
-6.15
-3.21
-3.34
-7.24
-14.12
-22.29
-29.69
-35.61
-39.80
-43.28
-46.57
-50.08
-53.59
-56.73
-59.89
-63.47
-68.61
-75.28
-82.95
-89.63
-93.02
-91.26
-83.34
-70.19
-53.41
-35.78
-19.41
-6.00
3.97
11.10
16.30
21.09
26.19
32.50
40.02
48.93
58.95
69.33
79.19
86.79
91.12
91.38
88.54
84.21
80.42
78.55
78.47
79.40
79.62
78.38
74.88
68.95
59.94
46.91
29.44
7.78
-15.72
-38.18
-56.22
-68.05
-73.60
-74.48
-73.34
-72.06
-72.13
-73.45
-75.83
-78.47
-80.72
-82.11
-81.79
-79.29
-73.69
-64.94
-52.97
-38.60
-22.69
-6.06
10.34
26.08
40.15
52.04
60.86
66.67
70.04
72.35
75.40
80.04
