1679652308.00
64.000000
-0.00
-0.00
-0.00
-0.00
-0.00
-0.00
-0.00
-0.00
-0.00
-0.00
0.00
0.01
0.01
-0.00
-0.03
-0.05
-0.05
0.00
0.13
0.36
0.66
1.01
1.37
1.72
2.06
2.40
2.79
3.24
3.80
4.42
5.06
5.66
6.20
6.68
7.15
7.68
8.31
9.14
10.09
11.04
11.88
12.56
13.14
13.76
14.65
15.96
17.91
20.32
22.90
25.38
27.58
29.57
31.68
34.32
37.81
42.54
48.15
54.10
59.83
64.97
69.58
74.14
79.34
85.71
93.76
103.00
112.62
121.73
129.77
136.75
143.30
150.75
157.77
166.64
177.95
191.79
206.97
220.57
228.25
225.36
208.53
176.87
132.76
80.05
23.07
-34.94
-92.44
-149.16
-205.23
-260.37
-313.74
-363.87
-409.83
-450.91
-486.50
-515.74
-537.23
-549.22
-549.96
-538.37
-514.21
-478.67
-433.88
-382.45
-327.02
-269.84
-212.63
-156.66
-102.95
-52.37
-5.90
35.58
71.43
101.35
125.50
144.38
158.69
169.15
176.37
180.75
182.57
182.07
179.51
175.23
169.65
163.18
156.15
148.81
141.30
133.69
126.02
118.33
110.69
103.16
95.80
88.68
81.83
75.25
68.95
62.95
57.25
51.86
46.78
42.03
37.59
33.45
29.61
26.07
22.81
19.83
17.11
14.67
12.48
10.54
8.83
7.35
6.07
4.97
4.05
3.27
2.62
2.09
1.65
1.30
1.01
0.79
0.61
0.47
0.37
0.29
0.23
0.18
0.16
0.14
0.14
0.14
0.15
0.17
0.20
0.23
0.27
0.31
0.35
0.39
0.44
0.49
0.53
0.58
0.64
0.69
0.75
0.82
0.89
0.96
1.05
1.14
1.25
1.36
1.49
1.64
1.80
1.99
2.19
2.42
2.67
2.94
3.25
3.59
3.95
4.35
4.79
5.27
5.78
6.33
6.92
7.55
8.23
8.95
9.72
10.53
11.39
12.29
13.24
14.24
15.31
16.43
17.63
18.87
20.16
21.45
22.67
23.76
24.61
25.10
25.11
24.53
23.27
21.30
18.62
15.28
11.36
7.07
2.57
-1.92
-6.18
-10.05
-13.34
-15.98
-17.88
-19.07
-19.56
-19.44
-18.82
-17.80
-16.49
-14.99
-13.35
-11.63
-9.83
-7.95
-6.06
-4.21
-2.44
-0.81
0.70
2.08
3.41
4.77
6.28
7.88
9.56
11.31
13.12
14.99
16.99
19.19
21.73
24.75
28.09
31.66
35.35
39.07
42.84
46.70
50.82
55.42
60.75
66.49
72.39
78.15
83.54
88.49
93.18
97.97
103.27
109.46
116.04
122.34
127.56
130.92
131.78
129.73
124.37
114.83
103.68
91.29
77.34
61.16
42.14
20.09
-4.60
-31.16
-58.60
-85.99
-113.33
-140.74
-168.47
-197.02
-227.13
-259.65
-294.81
-331.37
-365.78
-392.95
-406.80
-402.36
-377.49
-333.56
-274.97
-207.77
-138.29
-72.30
-15.02
29.38
58.44
72.23
73.96
69.38
64.89
65.09
70.86
79.03
84.30
81.64
68.81
47.52
22.96
2.19
-7.56
-0.52
26.49
73.14
134.91
203.18
266.54
313.56
335.97
331.06
302.04
256.17
201.54
144.13
86.72
29.79
-26.36
-79.88
-127.19
-164.22
-188.50
-200.45
-203.18
-200.97
-197.18
-193.03
-187.48
-178.58
-165.29
-148.47
-130.83
-115.49
-104.43
-97.49
-92.70
-87.46
-80.15
-70.87
-61.30
-53.60
-49.12
-47.82
-48.35
-48.84
-47.79
-44.42
-38.61
-30.48
-20.15
-7.64
6.82
22.65
38.86
54.25
67.68
78.27
85.49
89.11
89.27
86.47
81.63
75.93
70.52
66.16
63.00
60.59
58.15
54.92
50.42
44.62
37.85
30.67
23.71
17.49
12.31
8.24
5.15
2.90
1.39
0.64
0.77
1.93
4.07
6.94
10.10
12.99
15.14
16.24
16.15
14.94
12.75
9.77
6.27
2.57
-1.01
-4.13
-6.49
-7.97
-8.66
-8.84
-8.90
-9.24
-10.03
-11.29
-12.76
-14.01
-14.54
-13.86
-11.62
-7.79
-2.67
3.06
8.53
12.92
15.65
16.57
15.98
14.39
12.45
10.66
9.34
8.60
8.38
8.48
8.59
8.38
7.55
6.01
3.95
1.87
0.46
0.33
1.70
4.26
7.30
10.00
11.86
12.91
13.64
14.71
16.54
19.08
21.90
24.39
26.14
27.08
27.47
27.72
28.19
29.13
30.59
32.56
34.89
37.35
39.57
41.08
41.39
40.12
37.11
32.58
27.13
21.62
17.00
14.08
13.25
14.41
17.09
20.55
23.99
26.64
27.77
26.75
23.17
17.06
8.94
-0.33
-9.80
-18.89
-27.49
-35.86
-44.23
-52.46
-59.87
-65.45
-68.16
-67.42
-63.29
-56.52
-48.31
-40.06
-32.98
-27.84
-24.85
-23.58
-23.23
-22.90
-21.96
-20.19
-17.85
-15.48
-13.70
-13.08
-14.02
-16.61
-20.57
-25.32
-30.01
-33.78
-35.94
-36.05
-34.05
-30.17
-24.89
-18.90
-12.96
-7.79
-3.83
-1.15
0.65
2.16
3.93
6.16
8.62
10.83
12.30
12.87
12.74
12.49
12.77
14.12
16.72
20.36
24.39
27.88
29.81
29.33
26.07
20.25
12.70
4.65
-2.60
-8.07
-11.29
-12.34
-11.64
-9.71
-7.00
-3.82
-0.39
3.03
6.21
8.92
11.01
12.47
13.45
14.11
14.65
15.14
15.53
15.63
15.15
13.92
11.98
9.69
7.60
6.27
5.99
6.64
7.77
8.84
9.47
9.60
9.41
9.20
9.12
9.16
9.14
8.92
8.43
7.79
7.18
6.78
6.71
7.00
7.62
8.46
9.38
10.20
10.63
10.43
9.35
7.27
4.25
0.52
-3.52
-7.42
-10.69
-13.01
-14.22
-14.41
-13.87
-13.03
-12.31
-12.06
-12.38
-13.16
-14.15
-14.99
-15.43
-15.35
-14.79
-13.89
-12.82
-11.66
-10.47
-9.25
-8.02
-6.84
-5.77
-4.86
-4.13
-3.55
-3.04
-2.53
-1.94
-1.25
-0.50
0.22
0.82
1.26
1.57
1.90
2.39
3.16
4.20
5.44
6.69
7.79
8.63
9.16
9.43
9.53
9.58
9.64
9.72
9.74
9.54
8.97
7.92
6.32
4.25
1.83
-0.74
-3.24
-5.48
-7.32
-8.69
-9.59
-10.02
-9.96
-9.37
-8.25
-6.70
-4.89
-3.08
-1.51
-0.36
0.35
0.70
0.82
0.89
0.99
1.15
1.40
1.72
2.11
2.56
3.03
3.47
3.86
4.22
4.60
5.05
5.56
6.02
6.30
6.28
5.92
5.33
4.68
4.18
3.93
3.89
3.89
3.72
3.19
2.21
0.86
-0.67
-2.12
-3.24
-3.89
-4.02
-3.74
-3.19
-2.54
-1.90
-1.28
-0.62
0.10
0.88
1.60
2.11
2.33
2.30
2.21
2.28
2.64
3.26
3.99
4.64
5.10
5.33
5.32
5.04
4.46
3.56
2.44
1.29
0.31
-0.35
-0.69
-0.80
-0.82
-0.82
-0.82
-0.81
-0.74
-0.64
-0.54
-0.52
-0.67
-1.06
-1.77
-2.81
-4.10
-5.51
-6.86
-7.95
-8.71
-9.10
-9.18
-9.02
-8.71
-8.28
-7.78
-7.22
-6.57
-5.85
-5.10
-4.38
-3.81
-3.45
-3.29
-3.27
-3.35
-3.49
-3.74
-4.16
-4.78
-5.49
-6.14
-6.55
-6.68
-6.63
-6.65
-7.00
-7.82
-9.05
-10.43
-11.60
-12.18
-11.97
-10.97
-9.40
-7.62
-6.02
-4.88
-4.30
-4.21
-4.39
-4.61
-4.68
-4.53
-4.22
-3.85
-3.57
-3.47
-3.51
-3.48
-3.01
-1.65
0.95
4.83
9.66
14.85
19.70
23.75
26.82
29.09
30.79
32.14
33.15
33.67
33.54
32.68
31.14
29.12
26.84
24.47
22.20
20.18
18.56
17.45
16.85
16.65
16.55
16.20
15.31
13.80
11.85
9.85
8.15
6.90
6.00
5.09
3.79
1.94
-0.35
-2.77
-4.88
-6.38
-7.06
-6.86
-5.79
-3.96
-1.71
0.42
1.71
1.47
-0.68
-4.61
-9.71
-15.03
-19.65
-22.89
-24.54
-24.81
-24.19
-23.25
-22.30
-21.40
-20.31
-18.66
-16.16
-12.79
-8.72
-4.29
0.23
4.77
9.41
14.32
19.62
25.30
31.19
36.98
42.14
46.00
47.80
47.00
43.60
38.21
31.94
25.96
20.97
16.94
13.24
9.06
3.89
-2.29
-9.04
-15.87
-22.41
-28.57
-34.32
-39.50
-43.71
-46.35
-46.93
-45.26
-41.63
-36.81
-31.85
-27.79
-25.25
-24.22
-23.97
-23.34
-21.22
-17.04
-11.01
-4.00
2.88
8.79
13.37
16.69
19.00
20.44
21.00
20.58
19.28
17.41
15.29
13.00
10.17
6.03
-0.14
-8.63
-18.96
-30.01
-40.35
-48.77
-54.61
-57.70
-58.26
-56.56
-52.86
-47.43
-40.70
-33.25
-25.75
-18.74
-12.47
-6.93
-1.98
2.46
6.32
9.42
11.63
12.96
13.64
13.98
14.32
14.88
15.72
16.83
18.07
19.34
20.48
21.38
21.94
22.04
21.65
20.79
19.51
18.00
16.41
14.86
13.37
11.89
10.37
8.79
7.26
5.85
4.61
3.46
2.24
0.81
-0.84
-2.55
-4.07
-5.14
-5.62
-5.49
-4.89
-3.92
-2.67
-1.16
0.56
2.35
3.93
4.98
5.25
4.73
3.65
2.41
1.38
0.75
0.55
0.66
0.97
1.45
2.09
2.84
3.57
4.05
4.13
3.78
3.18
2.60
2.25
2.17
2.26
2.36
2.36
2.24
2.09
1.98
1.94
1.93
1.88
1.72
1.39
0.88
0.13
-0.89
-2.24
-3.91
-5.81
-7.70
-9.31
-10.32
-10.52
-9.89
-8.57
-6.89
-5.16
-3.64
-2.41
-1.40
-0.51
0.27
0.82
0.88
0.26
-1.05
-2.82
-4.69
-6.26
-7.31
-7.81
-7.91
-7.76
-7.43
-6.86
-5.98
-4.74
-3.22
-1.62
-0.21
0.80
1.32
1.37
1.12
0.80
0.62
0.69
0.96
1.24
1.29
0.98
0.25
-0.74
-1.81
-2.78
-3.53
-3.98
-4.09
-3.84
-3.34
-2.82
-2.54
-2.66
-3.08
-3.38
-2.99
-1.56
0.94
4.05
7.17
9.77
11.66
13.00
14.05
14.95
15.58
15.63
14.83
13.16
10.96
8.77
7.12
6.20
5.89
5.85
5.76
5.52
5.24
5.13
5.31
5.64
5.74
5.18
3.57
0.77
-3.02
-7.31
-11.36
-14.43
-15.91
-15.61
-13.81
-11.16
-8.45
-6.22
-4.69
-3.67
-2.86
-2.10
-1.47
-1.19
-1.54
-2.58
-4.14
-5.90
-7.48
-8.59
-9.11
-9.11
-8.90
-8.94
-9.68
-11.36
-13.89
-16.76
-19.19
-20.37
-19.73
-17.15
-13.00
-7.93
-2.67
2.31
6.86
11.21
15.81
20.99
26.76
32.58
37.56
40.69
41.31
39.33
35.32
30.20
24.89
20.00
15.60
11.35
6.69
1.22
-5.06
-11.65
-17.71
-22.38
-25.08
-25.74
-24.74
-22.74
-20.31
-17.74
-15.00
-11.89
-8.32
-4.39
-0.42
3.15
6.00
7.98
9.08
9.46
9.31
8.90
8.59
8.80
9.95
12.29
15.84
20.22
24.75
28.57
30.91
31.33
29.82
26.78
22.90
18.89
15.32
12.44
10.15
7.94
5.06
0.69
-5.77
-14.39
-24.60
-35.30
-45.17
-53.10
-58.40
-60.92
-60.82
-58.33
-53.66
-46.96
-38.57
-29.10
-19.41
-10.47
-3.04
2.49
6.16
8.35
9.54
10.18
10.58
10.97
11.57
12.56
14.07
16.03
18.13
19.88
20.75
20.42
18.80
16.17
12.92
9.47
6.19
3.40
1.33
0.18
0.04
0.79
2.19
3.85
5.45
6.78
7.74
8.28
8.30
7.73
6.56
5.00
3.39
2.10
1.32
0.86
0.32
-0.81
-2.75
-5.36
-8.07
-10.20
-11.19
-10.84
-9.33
-7.09
-4.60
-2.25
-0.27
1.26
2.30
2.90
3.17
3.20
3.17
3.19
3.32
3.48
3.61
3.59
3.37
3.06
2.83
2.90
3.40
4.31
5.44
6.51
7.34
7.87
8.21
8.45
8.57
8.37
7.60
6.18
4.29
2.36
0.82
-0.13
-0.66
-1.19
-2.16
-3.73
-5.72
-7.72
-9.30
-10.22
-10.52
-10.46
-10.35
-10.46
-10.80
-11.22
-11.34
-10.85
-9.61
-7.77
-5.72
-3.94
-2.75
-2.26
-2.31
-2.75
-3.49
-4.51
-5.74
-6.96
-7.76
-7.75
-6.78
-5.07
-3.13
-1.49
-0.45
0.02
0.19
0.38
0.75
1.28
1.87
2.43
2.86
3.09
3.03
2.58
1.74
0.69
-0.28
-0.92
-1.21
-1.36
-1.80
-2.99
-5.15
-8.29
-12.21
-16.55
-20.90
-24.86
-28.02
-30.08
-30.92
-30.73
-29.97
-29.18
-28.83
-29.03
-29.52
-29.75
-29.16
-27.36
-24.26
-20.11
-15.33
-10.44
-5.91
-2.11
0.83
2.99
4.76
6.72
9.45
13.26
18.04
23.29
28.29
32.46
35.54
37.69
39.38
41.16
43.53
46.75
50.81
55.39
59.86
63.33
64.91
64.09
60.94
56.29
51.37
47.43
45.17
44.61
45.13
45.88
46.12
45.54
44.29
42.76
41.38
40.40
39.81
39.43
38.92
37.89
35.90
32.59
27.73
21.32
13.66
5.33
-2.96
-10.57
-17.24
-23.17
-28.86
-34.72
-40.80
-46.51
-50.86
-52.88
-52.02
-48.48
-43.12
-37.14
-31.62
-27.22
-24.07
-21.97
-20.54
-19.49
-18.62
-17.84
-17.08
-16.18
-14.91
-13.06
-10.57
-7.60
-4.59
-1.97
-0.05
1.20
2.14
3.22
4.72
6.52
8.14
8.99
8.67
7.24
5.17
3.09
1.50
0.64
0.55
1.23
2.79
5.39
8.92
12.72
15.62
16.17
13.24
6.59
-2.99
-13.88
-24.22
-32.44
-37.62
-39.52
-38.36
-34.59
-28.76
-21.52
-13.64
-5.97
0.72
5.87
9.30
11.16
11.79
11.60
10.87
9.84
8.62
7.33
6.09
5.03
4.23
3.73
3.44
3.18
2.71
1.83
0.39
-1.68
-4.35
-7.49
-10.90
-14.31
-17.39
-19.82
-21.30
-21.73
-21.10
-19.57
-17.42
-14.92
-12.35
-9.90
-7.75
-5.98
-4.61
-3.60
-2.85
-2.21
-1.55
-0.78
0.16
1.25
2.46
3.70
4.85
5.84
6.63
7.25
7.77
8.22
8.62
8.90
8.98
8.84
8.50
8.01
7.41
6.67
5.71
4.48
3.05
1.61
0.40
-0.39
-0.77
-0.94
-1.20
-1.76
-2.69
-3.90
-5.17
-6.35
-7.35
-8.11
-8.53
-8.45
-7.69
-6.19
-4.11
-1.78
0.40
2.15
3.38
4.20
4.72
5.01
5.04
4.77
4.22
3.54
2.88
2.42
2.22
2.24
2.45
2.81
3.32
3.99
4.81
5.72
6.61
7.40
7.96
8.21
8.07
7.50
6.58
5.48
4.50
3.92
3.90
4.42
5.26
6.08
6.60
6.69
6.43
6.01
5.60
5.25
4.89
4.45
3.90
3.33
2.90
2.78
3.13
4.02
5.48
7.47
9.86
12.41
14.86
16.99
18.70
20.06
21.20
22.15
22.80
22.91
22.32
21.01
19.19
17.26
15.66
14.82
14.99
16.23
18.28
20.48
21.80
21.00
17.03
9.54
-0.98
-13.17
-25.38
-36.15
-44.67
-50.82
-54.95
-57.42
-58.31
-57.47
-54.68
-50.05
-44.10
-37.85
-32.36
-28.58
-26.91
-27.21
-28.81
-30.78
-32.23
-32.48
-31.18
-28.28
-23.90
-18.32
-11.88
-5.06
1.60
7.55
12.28
15.48
17.02
17.00
15.75
13.81
11.81
10.33
9.75
10.10
11.16
12.63
14.29
16.19
18.46
21.15
24.03
26.62
28.35
28.78
27.85
25.76
22.98
19.96
17.11
14.72
13.01
12.08
11.87
12.08
12.22
11.74
10.17
7.32
3.33
-1.41
-6.33
-10.89
-14.68
-17.54
-19.59
-21.18
-22.78
-24.76
-27.23
-29.81
-31.75
-32.06
-29.93
-24.98
-17.52
-8.43
1.09
9.83
16.74
21.14
22.74
21.56
18.00
12.66
6.29
-0.41
-6.86
-12.66
-17.43
-20.83
-22.54
-22.42
-20.67
-17.89
-14.95
-12.66
-11.51
-11.52
-12.28
-13.19
-13.67
-13.35
-12.11
-10.12
-7.72
-5.31
-3.24
-1.65
-0.50
0.48
1.64
3.28
5.51
8.26
11.26
14.21
16.87
19.13
21.01
22.64
24.14
25.56
26.79
27.66
27.98
27.69
26.81
25.52
24.00
22.43
20.91
19.49
18.13
16.75
15.22
13.41
11.19
8.47
5.23
1.63
-2.02
-5.25
-7.54
-8.48
-7.96
-6.25
-3.90
-1.61
0.04
0.79
0.77
0.37
0.14
0.57
2.00
4.49
7.98
12.30
17.29
22.83
28.81
34.93
40.64
45.17
47.69
47.64
44.99
40.20
34.05
27.32
20.55
14.01
7.85
2.25
-2.51
-6.12
-8.43
-9.57
-9.93
-10.00
-10.12
-10.45
-10.96
-11.53
-12.12
-12.71
-13.34
-14.00
-14.64
-15.15
-15.47
-15.64
-15.75
-16.01
-16.62
-17.74
-19.48
-21.87
-24.83
-28.13
-31.36
-33.91
-35.15
-34.51
-31.82
-27.30
-21.62
-15.64
-10.16
-5.67
-2.32
0.02
1.59
2.76
3.94
5.67
8.42
12.34
16.96
21.14
23.36
22.31
17.46
9.36
-0.53
-10.38
-18.64
-24.41
-27.50
-28.22
-27.08
-24.62
-21.37
-17.93
-14.88
-12.77
-11.95
-12.37
-13.64
-15.03
-15.79
-15.30
-13.39
-10.27
-6.47
-2.61
0.86
3.71
5.93
7.62
8.93
9.98
10.89
11.79
12.77
13.87
14.98
15.91
16.43
16.35
15.65
14.50
13.21
12.12
11.54
11.54
12.01
12.60
12.93
12.70
11.79
10.31
8.43
6.35
4.19
2.05
0.03
-1.69
-2.92
-3.52
-3.48
-2.95
-2.16
-1.31
-0.51
0.27
1.06
1.89
2.68
3.28
3.58
3.48
3.01
2.22
1.30
0.41
-0.21
-0.35
0.14
1.24
2.77
4.34
5.53
6.03
5.76
4.91
3.82
2.86
2.23
2.00
2.07
2.30
2.53
2.57
2.26
1.50
0.27
-1.27
-2.86
-4.28
-5.41
-6.33
-7.22
-8.24
-9.36
-10.42
-11.19
-11.51
-11.35
-10.81
-10.02
-9.04
-7.87
-6.48
-4.87
-3.14
-1.49
-0.18
0.62
0.88
0.78
0.63
0.70
1.13
1.81
2.57
3.20
3.66
4.10
4.74
5.70
6.91
8.13
9.02
9.34
8.94
7.86
6.26
4.30
2.11
-0.21
-2.54
-4.82
-6.98
-9.05
-11.06
-13.05
-14.95
-16.60
-17.71
-18.04
-17.53
-16.32
-14.70
-13.04
-11.53
-10.22
-8.93
-7.40
-5.40
-2.85
0.12
3.15
5.71
7.30
7.58
6.56
4.63
2.39
0.46
-0.73
-1.09
-0.79
-0.11
0.61
1.19
1.58
1.85
2.13
2.54
3.09
3.60
3.84
3.52
2.46
0.66
-1.73
-4.45
-7.27
-9.91
-12.14
-13.79
-14.84
-15.58
-16.51
-18.26
-21.22
-25.29
-29.73
-33.40
-35.14
-34.21
-30.66
-25.24
-19.11
-13.42
-8.88
-5.63
-3.31
-1.29
1.08
4.29
8.63
14.16
20.72
27.88
34.94
41.08
45.56
47.93
48.22
46.88
44.62
42.10
39.70
37.52
35.38
33.05
30.42
27.57
24.75
22.27
20.44
19.37
19.10
19.51
20.30
21.03
21.13
19.91
16.71
11.07
2.88
-7.50
-19.15
-30.76
-40.86
-48.17
-51.88
-51.87
-48.67
-43.28
-36.84
-30.31
-24.40
-19.52
-15.91
-13.71
-12.81
-12.89
-13.32
-13.34
-12.32
-10.03
-6.64
-2.75
0.98
4.13
6.66
8.85
11.05
13.44
15.87
18.03
19.56
20.34
20.48
20.24
19.92
19.66
19.57
19.61
19.62
19.13
17.36
13.37
6.38
-3.69
-16.02
-28.99
-40.64
-49.39
-54.45
-55.97
-54.64
-51.29
-46.53
-40.75
-34.24
-27.34
-20.57
-14.50
-9.55
-5.89
-3.37
-1.68
-0.52
0.28
0.74
0.84
0.63
0.28
0.09
0.38
1.31
2.80
4.53
6.00
6.76
6.55
5.45
3.82
2.13
0.77
-0.08
-0.49
-0.62
-0.66
-0.65
-0.58
-0.46
-0.43
-0.72
-1.59
-3.12
-5.12
-7.14
-8.75
-9.59
-9.57
-8.84
-7.70
-6.44
-5.28
-4.30
-3.49
-2.84
-2.35
-2.05
-1.95
-1.95
-1.92
-1.68
-1.15
-0.38
0.41
0.94
1.03
0.67
0.09
-0.41
-0.57
-0.36
0.07
0.44
0.52
0.24
-0.29
-0.87
-1.29
-1.48
-1.39
-1.05
-0.48
0.31
1.25
2.16
2.82
2.98
2.56
1.68
0.64
-0.24
-0.77
-0.95
-0.93
-0.84
-0.74
-0.54
-0.11
0.58
1.35
1.92
2.03
1.58
0.77
-0.04
-0.50
-0.45
0.04
0.72
1.35
1.78
2.00
2.06
2.07
2.09
2.21
2.55
3.18
4.11
5.19
6.18
6.90
7.27
7.47
7.77
8.40
9.48
10.87
12.28
13.31
13.60
12.94
11.37
9.29
7.29
6.08
6.15
7.57
9.95
12.59
14.90
16.64
18.01
19.46
21.45
24.08
27.05
29.69
31.04
30.12
26.10
18.53
7.58
-5.89
-20.44
-34.40
-46.21
-54.85
-59.99
-61.84
-60.93
-57.88
-53.22
-47.45
-41.15
-34.95
-29.42
-24.89
-21.32
-18.34
-15.44
-12.30
-9.04
-6.17
-4.35
-4.07
-5.35
-7.67
-10.25
-12.35
-13.58
-13.97
-13.81
-13.39
-12.79
-11.89
-10.52
-8.59
-6.27
-3.89
-1.76
-0.04
1.30
2.40
3.34
4.11
4.61
4.86
5.08
5.67
7.01
9.24
12.12
15.10
17.52
18.88
19.00
18.00
16.20
13.90
11.33
8.56
5.52
2.12
-1.75
-6.07
-10.73
-15.44
-19.78
-23.15
-24.87
-24.34
-21.16
-15.30
-7.14
2.58
12.95
22.98
31.81
38.65
42.91
44.15
42.18
37.24
30.05
21.76
13.70
7.04
2.46
-0.04
-1.02
-1.39
-2.05
-3.57
-5.97
-8.85
-11.53
-13.36
-13.92
-13.04
-10.76
-7.15
-2.34
3.40
9.53
15.22
19.42
21.22
20.18
16.56
11.30
5.67
0.94
-2.00
-2.84
-1.76
0.63
3.52
6.09
7.68
7.90
6.79
4.71
2.27
0.15
-1.21
-1.58
-1.05
0.11
1.58
3.02
4.18
4.87
5.06
4.89
4.67
4.69
5.09
5.68
5.91
5.03
2.46
-1.90
-7.58
-13.58
-18.77
-22.18
-23.30
-22.13
-19.02
-14.60
-9.58
-4.68
-0.51
2.55
4.44
5.41
5.90
6.39
7.14
8.19
9.34
10.35
11.06
11.39
11.37
11.04
10.40
9.45
8.26
7.00
5.95
5.34
5.32
5.89
6.89
8.11
9.36
10.55
11.61
12.46
12.97
12.99
12.46
11.48
10.38
9.51
9.16
9.42
10.13
11.01
11.72
12.00
11.71
10.83
9.41
7.59
5.54
3.48
1.59
-0.01
-1.24
-2.06
-2.41
-2.22
-1.49
-0.35
0.89
1.83
2.18
1.85
1.06
0.21
-0.26
-0.09
0.74
2.10
3.73
5.38
6.78
7.62
7.53
6.16
3.35
-0.67
-5.27
-9.50
-12.50
-13.86
-13.79
-12.99
-12.33
-12.44
-13.50
-15.28
-17.34
-19.24
-20.53
-20.77
-19.59
-16.77
-12.45
-7.22
-1.95
2.45
5.43
6.82
6.89
6.17
5.24
4.70
5.09
6.78
9.73
13.40
16.85
19.02
19.15
17.11
13.41
8.92
4.54
0.93
-1.60
-2.99
-3.34
-2.85
-1.86
-0.80
-0.12
-0.06
-0.62
-1.57
-2.76
-4.32
-6.72
-10.58
-16.22
-23.39
-31.17
-38.37
-43.96
-47.46
-48.98
-48.96
-47.75
-45.34
-41.39
-35.54
-27.73
-18.37
-8.19
2.09
12.07
21.84
31.71
41.83
51.90
61.16
68.68
73.85
76.72
77.88
78.19
78.26
78.15
77.39
75.26
71.19
64.98
56.85
47.29
36.95
26.48
16.50
7.50
-0.22
-6.68
-12.12
-16.97
-21.56
-25.96
-29.87
-32.75
-34.07
-33.53
-31.26
-27.76
-23.69
-19.71
-16.23
-13.38
-11.13
-9.33
-7.85
-6.66
-5.71
-4.94
-4.22
-3.37
-2.24
-0.88
0.47
1.39
1.46
0.43
-1.64
-4.38
-7.25
-9.70
-11.35
-12.09
-12.05
-11.57
-10.98
-10.60
-10.52
-10.55
-10.36
-9.51
-7.71
-4.94
-1.53
1.87
4.45
5.45
4.36
1.10
-3.96
-10.04
-16.21
-21.60
-25.66
-28.22
-29.45
-29.63
-29.04
-27.80
-25.99
-23.78
-21.45
-19.35
-17.74
-16.62
-15.82
-15.03
-14.03
-12.78
-11.45
-10.23
-9.24
-8.49
-7.96
-7.64
-7.63
-8.08
-9.08
-10.61
-12.44
-14.24
-15.68
-16.57
-16.84
-16.56
-15.89
-14.92
-13.68
-12.09
-9.90
-6.72
-2.03
4.56
13.05
22.91
33.00
41.79
47.92
50.59
49.88
46.67
42.26
37.85
34.26
31.80
30.45
30.07
30.44
31.34
32.42
33.24
33.38
32.54
30.67
27.98
24.77
21.35
17.97
14.79
12.07
10.04
8.94
8.77
9.22
9.67
9.38
7.83
4.95
1.19
-2.59
-5.56
-7.25
-7.74
-7.61
-7.62
-8.27
-9.62
-11.29
-12.76
-13.79
-14.48
-15.14
-15.85
-16.25
-15.55
-13.06
-8.76
-3.60
0.66
2.09
-0.61
-7.72
-18.54
-31.76
-45.91
-59.56
-71.31
-79.76
-83.65
-82.29
-75.90
-65.69
-53.59
-41.61
-31.16
-22.78
-16.20
-10.85
-6.26
-2.36
0.67
2.64
3.67
4.28
5.10
6.65
9.01
11.84
14.62
16.94
18.66
19.94
20.99
21.97
22.86
23.56
24.03
24.43
25.02
26.07
27.64
29.48
31.13
32.10
32.08
31.12
29.52
27.62
25.49
22.75
18.72
12.73
4.56
-5.31
-15.75
-25.34
-32.87
-37.65
-39.60
-39.08
-36.67
-32.91
-28.25
-23.10
-17.87
-12.96
-8.78
-5.67
-3.77
-2.99
-2.99
-3.30
-3.52
-3.49
-3.33
-3.29
-3.57
-4.08
-4.47
-4.23
-2.99
-0.69
2.42
5.87
9.23
12.29
15.05
17.70
20.44
23.33
26.32
29.24
31.83
33.81
34.90
34.82
33.31
30.28
25.88
20.51
14.80
9.48
5.10
2.01
0.21
-0.54
-0.61
-0.31
0.09
0.48
0.77
0.88
0.77
0.43
-0.09
-0.65
-1.11
-1.42
-1.70
-2.21
-3.22
-4.79
-6.72
-8.55
-9.83
-10.27
-9.93
-9.07
-8.03
-6.99
-5.89
-4.58
-3.01
-1.30
0.20
1.11
1.18
0.39
-1.10
-3.11
-5.64
-8.82
-12.76
-17.38
-22.18
-26.39
-29.15
-29.87
-28.41
-25.05
-20.31
-14.65
-8.37
-1.57
5.59
12.78
19.47
25.11
29.29
31.92
33.16
33.25
32.36
30.51
27.65
23.84
19.36
14.68
10.35
6.81
4.17
2.31
0.92
-0.32
-1.59
-2.89
-4.07
-4.93
-5.30
-5.07
-4.26
-2.95
-1.30
0.44
2.03
3.21
3.78
3.62
2.71
1.13
-1.04
-3.67
-6.60
-9.58
-12.32
-14.49
-15.83
-16.27
-15.90
-14.97
-13.70
-12.20
-10.48
-8.46
-6.24
-4.06
-2.33
-1.43
-1.46
-2.21
-3.16
-3.81
-3.82
-3.19
-2.21
-1.24
-0.53
-0.03
0.46
1.21
2.35
3.81
5.38
6.83
8.05
9.06
9.91
10.61
11.05
11.03
10.45
9.34
7.91
6.44
5.13
4.08
3.21
2.43
1.62
0.76
-0.19
-1.30
-2.60
-4.10
-5.70
-7.19
-8.36
-9.05
-9.22
-8.95
-8.35
-7.46
-6.26
-4.65
-2.61
-0.19
2.39
4.82
6.82
8.22
8.99
9.24
9.14
8.89
8.66
8.60
8.83
9.35
10.13
11.01
11.82
12.47
12.94
13.31
13.64
13.93
14.02
13.75
12.98
11.75
10.25
8.77
7.49
6.47
5.62
4.77
3.85
2.90
2.05
1.42
1.09
1.00
1.00
0.97
0.84
0.64
0.56
0.83
1.75
3.60
6.53
10.45
15.04
19.81
24.32
28.44
32.43
36.86
42.29
48.93
56.45
64.08
70.96
76.48
80.57
83.57
86.01
88.31
90.52
92.34
93.11
91.95
87.88
79.99
67.76
51.29
31.51
9.97
-11.53
-31.48
-49.15
-64.69
-78.89
-92.68
-106.56
-120.35
-133.30
-144.55
-153.59
-160.61
-166.42
-171.99
-177.93
-184.09
-189.45
-192.48
-191.76
-186.51
-176.99
-164.47
-150.82
-137.79
-126.35
-116.13
-105.44
-91.68
-72.34
-46.00
-13.25
23.23
59.31
90.64
114.06
128.41
134.63
134.96
131.83
126.83
120.56
112.66
102.34
89.11
73.23
55.82
38.42
22.34
8.42
-2.92
-11.53
-17.24
-19.84
-19.13
-15.26
-9.09
-2.16
4.02
8.98
13.24
17.71
22.87
28.27
32.68
34.56
32.60
26.56
18.45
10.89
5.45
1.86
-1.42
-5.88
-12.52
-22.04
-34.18
-45.63
-53.00
-54.87
-53.16
-51.79
-54.36
-63.16
-78.98
-99.24
-115.00
-116.84
-100.02
-67.78
-29.04
7.26
35.41
53.93
67.47
88.49
128.58
192.52
276.27
371.42
471.62
572.93
670.73
723.05
693.43
573.79
396.23
