1661342757.00
64.000000
-0.00
-0.00
-0.00
-0.00
-0.00
-0.00
-0.00
-0.00
-0.00
-0.00
0.00
0.01
0.01
-0.00
-0.03
-0.05
-0.05
0.00
0.13
0.36
0.66
1.01
1.37
1.72
2.06
2.41
2.79
3.25
3.80
4.42
5.08
5.74
6.36
6.96
7.56
8.22
8.94
9.85
10.86
11.92
12.94
13.88
14.81
15.84
17.15
18.86
21.17
23.91
26.86
29.78
32.53
35.20
38.04
41.41
45.53
50.78
56.86
63.38
69.92
76.21
82.31
88.55
95.42
103.26
112.56
122.98
134.02
145.12
155.94
166.45
176.98
188.40
199.01
210.96
225.08
242.03
261.21
280.11
294.39
298.91
289.57
264.77
226.66
179.32
127.88
76.34
26.88
-20.12
-65.16
-108.70
-151.09
-192.30
-233.28
-274.84
-316.81
-356.56
-389.21
-409.26
-413.00
-400.81
-376.55
-346.16
-314.88
-285.95
-260.59
-238.64
-219.59
-202.98
-188.02
-173.39
-158.11
-141.87
-125.68
-111.11
-98.87
-88.53
-78.36
-67.10
-54.30
-40.80
-27.63
-15.41
-4.73
4.31
10.78
13.92
13.20
9.03
2.76
-4.09
-10.03
-14.55
-17.34
-18.89
-19.22
-18.15
-15.29
-10.07
-2.15
8.42
20.52
32.74
43.00
50.02
53.02
51.71
46.50
38.21
28.73
20.44
16.11
16.98
22.10
28.92
34.14
36.07
34.64
31.45
28.00
24.99
22.46
20.40
19.56
20.34
22.84
25.58
27.25
27.33
27.30
29.53
34.95
41.78
45.38
41.28
27.36
6.54
-14.76
-29.30
-32.29
-23.70
-7.63
9.34
21.77
26.88
24.99
18.48
10.07
2.20
-4.03
-8.03
-9.95
-10.13
-8.98
-6.90
-4.35
-2.15
-0.54
-0.18
-1.00
-2.98
-5.25
-6.38
-4.89
-0.28
6.03
11.52
13.03
9.17
0.28
-11.54
-23.39
-32.77
-37.68
-36.96
-30.22
-18.86
-5.69
5.55
11.68
12.20
8.69
4.56
2.50
3.57
7.25
12.93
20.21
28.42
36.59
42.03
42.33
36.18
25.38
13.72
5.01
1.04
0.03
-1.48
-7.24
-18.20
-32.83
-47.85
-59.36
-64.15
-60.57
-48.93
-31.39
-12.15
4.41
15.06
19.14
18.70
16.81
16.13
17.11
19.03
20.74
22.52
25.41
29.80
35.06
38.39
37.27
30.40
19.25
6.96
-3.58
-11.12
-16.88
-22.81
-30.82
-40.83
-51.23
-59.75
-63.94
-62.09
-53.72
-39.59
-21.32
-1.79
16.29
30.62
39.96
44.40
44.89
43.07
40.04
36.96
34.09
31.69
29.63
27.34
24.90
22.16
19.49
16.94
14.17
10.48
5.01
-2.48
-11.86
-22.03
-32.20
-41.46
-49.17
-54.60
-56.13
-51.74
-40.21
-22.20
-0.45
20.27
35.91
44.27
45.95
43.58
39.82
36.39
32.86
28.59
23.12
17.54
13.31
10.87
9.74
7.86
4.01
-1.80
-7.85
-12.37
-14.59
-15.15
-15.56
-16.33
-16.83
-15.07
-9.92
-2.34
5.12
9.92
11.30
10.34
9.18
8.62
8.11
6.49
3.69
1.49
2.24
7.60
16.21
25.01
30.58
32.17
31.44
30.70
30.87
29.66
23.86
11.31
-6.15
-24.08
-37.50
-43.56
-42.70
-37.31
-30.29
-23.02
-16.20
-10.47
-7.06
-7.39
-11.20
-16.98
-21.91
-24.00
-23.18
-20.77
-18.01
-14.84
-10.30
-3.09
6.06
14.99
20.62
21.47
18.55
15.01
14.14
17.27
23.70
30.65
35.94
38.10
37.15
34.01
29.80
25.79
22.43
19.72
16.41
10.91
1.91
-10.90
-25.36
-38.27
-45.97
-46.56
-40.79
-31.56
-22.28
-15.14
-10.78
-8.28
-6.77
-5.50
-4.48
-3.32
-1.27
2.91
9.83
18.85
28.37
35.86
40.14
41.11
40.16
38.83
37.52
35.90
32.55
26.88
18.92
9.94
1.26
-6.67
-14.11
-22.18
-31.30
-41.27
-50.94
-59.10
-64.85
-67.34
-65.78
-59.39
-47.95
-31.92
-13.64
4.09
18.39
27.81
32.58
34.05
34.20
33.95
33.79
33.26
32.13
30.28
27.53
24.38
21.02
18.20
16.21
14.87
13.13
9.31
2.20
-8.60
-21.65
-35.04
-46.59
-55.16
-60.69
-62.98
-61.18
-54.00
-40.59
-21.38
0.64
21.61
37.60
46.48
48.57
45.83
41.10
36.20
32.13
28.29
23.81
17.99
10.48
2.53
-4.38
-8.42
-9.01
-7.23
-5.43
-6.10
-10.37
-17.80
-26.09
-33.37
-38.29
-40.91
-41.83
-40.96
-37.19
-29.30
-17.02
-1.52
14.01
26.47
33.31
33.79
29.16
21.92
15.27
11.41
11.33
13.50
15.02
13.16
6.76
-2.05
-9.80
-13.11
-11.29
-6.64
-2.54
-0.92
-0.77
0.48
5.37
13.23
21.18
25.61
25.20
21.61
18.16
17.13
17.60
16.79
11.41
1.11
-11.98
-24.30
-32.73
-36.07
-34.60
-29.63
-22.09
-13.41
-5.36
0.15
1.85
0.52
-2.02
-3.48
-3.11
-1.66
-0.36
1.14
4.89
12.77
25.06
38.21
47.20
47.84
40.28
28.58
18.32
13.09
11.65
9.90
3.11
-9.90
-26.62
-42.52
-53.42
-57.59
-55.69
-49.61
-40.63
-29.64
-16.98
-3.27
10.27
22.11
30.62
35.02
34.97
31.44
25.69
19.78
15.75
14.54
16.23
19.05
20.73
18.67
11.67
-0.07
-14.80
-29.19
-40.21
-45.29
-44.05
-37.78
-28.91
-19.71
-11.37
-4.01
2.92
9.13
14.11
16.90
17.61
17.28
17.40
18.65
20.25
20.80
18.76
14.32
8.27
1.70
-4.63
-10.56
-15.46
-18.54
-18.72
-16.35
-13.05
-11.23
-12.50
-15.87
-18.86
-18.45
-13.74
-5.90
2.75
11.31
20.53
31.44
43.95
54.73
59.45
54.81
41.56
24.07
8.00
-2.88
-8.69
-12.15
-16.90
-24.44
-34.06
-43.78
-51.12
-54.11
-51.43
-42.71
-28.54
-11.40
5.33
18.17
25.09
26.70
25.02
22.66
20.66
19.23
17.98
17.78
20.03
25.18
32.28
37.88
38.56
32.31
20.35
5.94
-7.36
-17.47
-24.81
-30.92
-37.65
-45.28
-53.01
-59.45
-62.72
-60.93
-52.78
-38.32
-19.36
0.14
16.06
25.68
29.11
29.04
28.33
28.60
28.60
26.45
21.01
14.19
9.45
9.27
13.45
17.92
17.97
10.56
-2.99
-18.39
-30.62
-36.44
-35.77
-30.45
-22.97
-14.58
-5.97
2.06
8.60
12.85
14.79
15.21
15.61
16.55
18.16
19.88
21.65
23.95
26.87
30.07
31.70
30.30
25.27
18.46
12.41
8.86
7.66
6.12
1.58
-7.45
-19.52
-31.98
-42.29
-48.96
-51.82
-50.83
-45.90
-36.43
-23.05
-8.24
4.22
10.87
10.75
5.29
-2.05
-8.49
-12.67
-14.74
-14.79
-12.11
-5.85
4.51
17.05
28.58
35.49
36.79
34.06
30.63
29.09
29.50
30.16
28.70
25.18
21.38
19.82
21.51
24.94
27.39
26.00
20.13
10.73
-0.05
-10.69
-20.87
-30.75
-40.64
-49.69
-56.85
-61.48
-64.12
-65.78
-66.52
-65.00
-58.57
-45.68
-27.04
-6.81
9.43
17.29
16.00
8.85
0.93
-3.48
-3.65
-1.29
1.10
2.96
6.10
12.60
22.76
33.50
40.48
40.19
33.09
22.98
14.95
12.75
16.55
23.88
30.79
34.89
35.73
34.39
31.85
28.05
22.70
15.59
8.25
2.67
0.54
1.34
2.35
0.22
-7.28
-19.14
-31.93
-41.07
-43.94
-40.97
-34.72
-28.02
-21.78
-15.61
-8.72
-2.27
1.15
-0.80
-8.14
-17.68
-24.86
-25.88
-20.64
-12.11
-5.02
-2.32
-3.43
-5.00
-2.88
4.77
16.99
30.09
40.54
46.31
47.80
46.73
44.42
41.35
36.48
29.18
19.80
10.58
4.45
3.08
5.63
8.61
8.32
2.76
-6.66
-16.57
-23.30
-24.95
-22.28
-17.14
-11.99
-7.90
-5.39
-4.81
-6.77
-11.75
-19.22
-27.54
-33.71
-35.64
-32.95
-27.89
-23.75
-22.51
-23.85
-24.83
-22.50
-15.37
-5.28
3.68
7.38
4.25
-3.46
-11.21
-14.34
-11.49
-4.34
3.07
7.36
7.95
6.67
6.54
9.30
14.84
21.14
26.34
29.30
30.12
29.87
28.87
26.94
22.96
16.91
10.22
5.79
6.29
12.22
20.98
27.45
27.26
18.83
5.19
-7.91
-15.09
-13.84
-6.03
4.35
12.86
17.49
18.22
16.01
11.25
3.66
-6.53
-17.76
-26.61
-30.19
-27.23
-19.80
-12.36
-9.10
-12.15
-20.07
-29.27
-35.59
-37.34
-35.28
-31.85
-29.11
-26.99
-24.26
-19.54
-13.64
-8.83
-7.59
-10.32
-14.52
-16.30
-12.39
-2.77
9.56
19.81
24.86
24.67
22.05
20.91
22.85
26.95
29.97
29.59
26.06
22.64
23.30
29.59
39.20
46.12
44.80
33.08
14.80
-2.17
-10.43
-6.99
4.71
17.61
24.90
24.47
19.10
14.22
13.72
17.41
21.92
22.95
18.94
11.16
3.15
-2.44
-5.43
-7.81
-12.17
-19.04
-26.64
-31.45
-31.10
-25.36
-16.68
-8.93
-4.58
-4.22
-6.00
-8.09
-9.34
-10.44
-13.05
-18.39
-26.44
-35.36
-43.16
-48.27
-51.21
-53.19
-54.92
-55.62
-52.56
-43.80
-29.45
-13.27
-0.57
4.39
1.14
-6.69
-13.50
-14.69
-9.55
-0.88
6.54
9.64
8.99
7.99
10.71
18.13
27.72
34.35
34.18
27.38
18.67
14.68
19.35
31.32
43.64
48.47
41.35
24.95
7.64
-1.67
1.61
14.68
29.97
39.46
39.82
33.49
26.61
24.46
28.15
34.58
38.48
36.42
28.11
16.69
6.04
-1.50
-6.09
-9.85
-14.29
-19.18
-21.99
-20.11
-12.36
-0.52
11.03
18.24
18.74
13.68
5.71
-2.15
-8.91
-15.57
-23.91
-34.77
-46.43
-55.87
-59.84
-57.73
-51.14
-42.97
-35.46
-28.26
-20.08
-9.57
1.99
11.70
16.16
13.93
6.57
-2.37
-9.10
-12.14
-11.90
-10.63
-9.84
-9.37
-7.81
-3.20
4.45
13.36
19.82
21.12
16.53
8.00
-0.60
-5.72
-5.70
-2.04
2.35
4.04
1.72
-3.16
-7.52
-7.81
-3.08
4.97
12.00
14.08
9.55
-0.06
-10.55
-17.52
-18.52
-14.62
-9.02
-5.50
-5.78
-8.61
-11.12
-10.17
-5.39
1.24
5.80
5.60
0.64
-6.46
-11.59
-11.71
-6.35
1.89
9.68
14.23
15.10
14.22
13.91
15.79
18.77
20.45
17.85
10.08
-1.14
-12.39
-19.82
-21.23
-16.96
-9.59
-2.06
3.51
6.85
9.19
11.78
15.27
18.30
19.01
15.31
6.95
-4.32
-15.45
-23.00
-24.89
-21.12
-14.03
-6.39
-0.39
3.22
5.48
7.82
11.13
14.31
15.54
12.65
5.35
-4.60
-14.02
-19.48
-19.10
-13.28
-4.67
3.57
8.99
11.05
11.28
12.02
14.94
19.34
22.72
21.78
14.95
3.26
-9.59
-18.75
-20.86
-15.20
-4.61
6.46
13.93
15.89
13.50
10.11
9.30
12.25
17.21
20.19
17.83
9.45
-1.86
-10.68
-12.54
-6.02
5.63
16.87
22.31
19.89
11.64
2.11
-4.06
-5.11
-2.59
-0.19
-0.52
-3.72
-7.13
-7.10
-1.93
7.12
15.59
18.78
13.95
2.33
-11.91
-23.39
-27.79
-23.73
-12.59
1.62
14.24
21.05
20.70
14.95
7.82
3.99
5.51
11.34
17.44
20.29
18.54
14.13
10.76
11.47
16.91
24.30
29.63
29.14
21.42
7.41
-9.52
-24.68
-33.66
-33.37
-24.33
-10.08
3.12
9.77
7.22
-3.22
-17.10
-29.97
-38.93
-44.30
-47.58
-50.37
-52.92
-54.23
-52.99
-48.30
-40.48
-30.37
-19.76
-10.36
-4.23
-2.96
-6.27
-12.23
-17.06
-17.71
-12.40
-2.37
9.45
19.72
25.80
27.08
24.11
19.03
14.19
12.31
15.12
22.89
33.81
44.16
50.33
49.87
43.38
33.20
23.10
16.13
13.94
16.64
22.51
28.89
31.99
28.83
17.90
0.52
-18.97
-35.06
-42.71
-40.51
-30.38
-17.22
-6.11
-0.30
-0.25
-4.26
-10.25
-16.50
-22.60
-28.55
-34.38
-39.54
-42.98
-43.59
-40.63
-34.57
-26.60
-19.02
-13.54
-10.88
-10.39
-9.72
-6.99
-1.20
6.18
13.00
17.15
18.43
18.68
19.89
23.35
27.80
31.28
31.79
29.74
26.90
25.81
27.54
30.93
33.75
33.69
30.29
24.20
17.22
10.69
5.67
2.93
2.96
5.88
10.05
12.72
10.41
0.92
-14.48
-31.26
-42.84
-44.76
-36.60
-22.95
-10.72
-5.29
-8.58
-18.05
-29.38
-38.02
-41.44
-38.54
-29.51
-15.23
2.54
20.36
33.89
38.90
34.45
23.08
10.91
4.18
6.73
18.18
33.86
47.51
53.16
48.17
33.16
12.42
-7.89
-21.82
-25.31
-18.46
-4.83
9.15
17.39
16.36
6.26
-9.42
-26.25
-40.28
-49.58
-53.35
-51.58
-44.81
-34.16
-21.98
-11.53
-6.00
-6.22
-10.25
-14.01
-13.60
-7.42
3.18
14.42
22.55
25.12
22.53
16.52
10.06
6.04
6.34
11.96
21.41
31.77
38.62
39.09
32.91
23.13
14.45
10.06
10.32
11.91
10.98
5.25
-4.34
-14.65
-22.19
-25.38
-25.06
-22.91
-20.29
-17.35
-14.27
-11.76
-11.06
-12.94
-16.28
-18.84
-18.18
-14.48
-10.39
-9.94
-16.17
-28.14
-41.55
-50.00
-48.90
-36.99
-17.05
5.64
25.84
39.37
44.38
40.72
30.87
19.05
10.57
9.69
17.78
32.40
47.84
58.10
58.85
50.15
35.16
19.30
7.66
3.11
6.09
13.90
22.50
26.93
24.03
13.37
-2.41
-18.57
-31.03
-37.69
-39.63
-39.11
-38.17
-37.45
-36.38
-34.22
-31.18
-28.41
-26.54
-25.41
-23.92
-21.31
-17.85
-14.61
-12.65
-11.60
-10.59
-8.61
-6.38
-5.45
-7.28
-12.10
-17.79
-21.75
-21.66
-17.41
-9.91
-0.58
9.69
20.53
30.90
38.95
42.08
39.49
32.71
25.68
22.56
25.46
33.10
41.17
45.18
42.14
32.54
19.09
5.99
-3.15
-6.73
-4.68
1.04
8.09
13.78
16.84
17.16
15.82
14.20
12.53
10.16
5.44
-2.28
-12.39
-22.54
-29.81
-31.68
-27.22
-18.02
-7.00
1.87
5.38
1.72
-8.52
-22.01
-33.97
-39.34
-35.86
-24.30
-9.17
4.05
11.05
10.48
4.11
-4.72
-12.41
-17.25
-18.87
-18.61
-17.76
-16.91
-15.58
-12.28
-6.43
1.30
7.98
10.56
6.83
-2.87
-15.16
-25.56
-29.88
-26.76
-17.11
-3.69
10.65
23.72
33.77
39.35
39.15
33.66
25.16
17.61
14.77
18.37
26.82
35.84
41.05
39.45
31.41
19.36
7.30
-1.05
-3.50
0.64
9.60
20.24
27.97
29.21
22.50
9.36
-6.09
-19.63
-28.25
-31.92
-32.12
-30.88
-29.58
-28.65
-28.25
-28.88
-31.41
-35.75
-40.56
-43.46
-41.94
-34.98
-23.49
-10.36
1.19
8.26
10.22
7.78
3.68
1.39
3.96
13.03
26.85
41.02
49.15
46.54
31.86
8.92
-14.78
-31.30
-35.27
-27.10
-11.98
2.07
8.67
5.85
-3.42
-13.07
-17.99
-16.10
-9.49
-1.93
3.48
6.81
10.93
19.15
32.83
49.04
62.43
66.96
60.09
43.41
21.87
1.35
-14.47
-24.61
-30.79
-34.60
-36.88
-36.67
-32.82
-25.76
-17.56
-11.67
-10.23
-13.26
-17.52
-18.86
-14.55
-4.74
6.97
16.30
19.75
17.01
9.90
1.89
-4.37
-8.39
-11.05
-14.17
-17.95
-21.24
-21.02
-14.88
-2.43
13.86
28.93
37.95
37.98
29.77
16.77
3.79
-5.56
-10.52
-12.38
-13.88
-16.45
-20.05
-22.25
-20.39
-12.62
0.81
17.10
32.23
42.02
43.91
37.53
25.01
9.80
-4.74
-16.10
-23.49
-27.01
-27.71
-25.95
-22.16
-16.11
-7.47
3.78
16.96
29.99
39.83
42.82
36.64
21.68
1.52
-17.93
-31.10
-34.92
-30.87
-23.24
-17.47
-16.62
-19.87
-23.35
-22.39
-14.75
-1.72
12.09
21.71
24.13
20.11
13.62
9.02
9.00
12.46
16.27
16.72
12.08
3.30
-6.81
-15.06
-20.15
-22.09
-22.33
-21.94
-21.38
-20.06
-17.13
-12.14
-4.92
3.95
13.96
24.34
34.04
41.41
43.96
39.68
27.32
8.37
-13.19
-30.86
-38.62
-33.13
-15.61
8.36
31.38
46.75
51.28
45.35
32.01
15.18
-1.79
-16.48
-27.60
-34.11
-36.05
-33.75
-28.74
-22.74
-17.03
-11.96
-6.85
-1.15
4.99
9.63
10.66
7.09
0.35
-5.70
-7.24
-2.40
6.49
14.77
17.24
11.56
-0.42
-13.98
-23.65
-26.34
-21.80
-12.65
-2.15
6.67
12.43
15.18
15.82
15.83
16.08
17.12
18.28
18.38
15.92
9.64
-0.66
-14.40
-29.19
-41.78
-48.06
-45.16
-32.38
-12.12
10.65
30.65
43.60
48.08
44.94
36.14
23.58
8.41
-8.19
-24.90
-39.33
-49.37
-53.01
-49.81
-40.42
-25.98
-8.07
11.43
29.43
42.31
46.11
39.13
23.34
4.46
-10.02
-14.88
-9.43
1.25
9.95
10.54
1.87
-11.86
-23.95
-28.48
-23.86
-12.57
0.07
9.56
13.57
12.79
9.99
8.08
9.17
13.30
19.43
25.51
29.53
29.96
25.66
16.39
2.31
-14.59
-31.15
-42.90
-46.36
-39.99
-25.46
-7.14
10.34
23.35
30.86
33.60
32.86
29.19
22.04
11.21
-2.73
-17.11
-28.70
-34.02
-31.63
-22.30
-8.65
5.83
18.18
26.14
28.79
25.88
18.24
7.86
-2.32
-9.08
-10.74
-7.62
-2.85
0.06
-1.46
-7.02
-13.42
-16.85
-14.83
-8.32
-0.71
3.55
2.41
-3.07
-8.88
-10.24
-4.69
6.87
19.54
27.47
26.13
14.75
-3.07
-21.31
-34.01
-38.40
-34.91
-27.02
-18.38
-11.65
-7.18
-3.67
0.41
6.09
12.70
18.92
23.02
23.60
20.18
12.65
1.76
-11.69
-25.47
-37.02
-43.03
-41.50
-32.11
-16.85
0.44
16.31
28.26
35.98
40.45
42.75
42.87
39.31
30.63
16.19
-1.90
-19.84
-32.50
-36.20
-29.99
-15.97
1.66
18.43
30.65
36.54
35.59
28.57
17.43
5.13
-4.75
-9.66
-8.76
-4.38
-0.13
0.40
-4.03
-11.44
-18.33
-21.34
-19.75
-15.14
-10.92
-9.10
-9.61
-10.10
-7.22
0.63
12.48
24.23
31.21
29.93
20.15
4.84
-11.91
-26.49
-37.68
-45.19
-49.04
-47.90
-40.37
-26.14
-7.31
11.39
25.52
32.32
32.80
30.25
28.10
27.58
27.22
24.67
18.16
8.68
-1.13
-7.86
-9.84
-7.66
-3.35
0.65
3.11
3.46
2.27
-0.14
-2.94
-4.48
-2.26
6.13
20.61
37.97
51.58
54.79
44.11
21.21
-7.12
-33.00
-50.34
-57.82
-57.54
-53.38
-47.78
-41.21
-32.98
-22.25
-9.56
3.96
16.60
27.42
35.61
40.71
42.32
39.86
33.51
23.86
12.91
2.92
-3.59
-5.47
-3.56
-0.45
0.18
-3.91
-12.73
-23.16
-30.56
-30.88
-22.68
-7.80
9.79
25.09
34.40
35.71
28.88
15.21
-2.97
-22.33
-39.42
-50.89
-55.22
-52.23
-43.79
-32.43
-20.01
-7.43
5.44
18.50
31.07
40.80
45.36
43.40
35.82
25.99
17.55
12.88
11.23
10.12
6.61
-0.15
-8.82
-17.14
-23.39
-27.83
-31.55
-35.16
-37.31
-35.61
-27.84
-13.95
3.22
19.80
31.88
37.84
37.93
33.74
26.77
18.27
9.22
0.36
-7.28
-13.19
-17.20
-19.75
-21.52
-22.45
-21.86
-18.53
-12.32
-4.10
3.47
7.78
7.93
5.47
4.48
8.46
18.43
31.04
40.71
41.98
33.30
17.90
1.04
-12.44
-21.10
-25.97
-28.87
-29.42
-25.71
-16.21
-2.10
11.83
19.84
18.18
8.18
-4.61
-13.21
-13.31
-5.08
7.44
18.40
23.74
21.92
14.13
2.68
-10.09
-22.21
-32.29
-38.90
-41.36
-39.24
-33.52
-25.88
-17.56
-9.31
-0.44
9.59
20.99
31.81
39.24
40.57
35.03
25.01
14.52
7.90
6.97
10.96
16.55
20.54
20.40
15.08
4.86
-9.34
-25.53
-40.56
-50.30
-51.06
-41.37
-22.97
-0.56
20.30
34.43
39.61
35.97
26.02
13.86
4.17
1.14
6.37
18.33
31.51
39.23
36.18
21.38
-0.89
-24.05
-41.97
-51.85
-53.75
-49.55
-40.28
-26.31
-9.00
8.63
21.38
24.64
16.65
0.69
-16.31
-26.55
-25.21
-12.31
7.81
28.06
42.14
45.98
38.97
23.31
3.44
-15.68
-30.15
-37.62
-38.62
-35.16
-30.25
-26.53
-24.68
-23.97
-22.18
-17.52
-8.75
3.08
15.74
26.19
31.81
32.10
28.18
22.96
19.22
18.96
21.96
26.67
30.14
29.09
21.44
6.86
-12.21
-30.90
-43.33
-45.11
-35.36
-17.44
2.24
17.46
24.00
21.88
14.02
4.75
-1.70
-2.45
3.84
16.06
31.26
44.00
48.79
41.94
23.90
-0.16
-23.27
-39.39
-46.43
-45.65
-40.49
-33.29
-24.76
-15.11
-4.95
3.20
6.50
3.18
-5.42
-15.39
-21.68
-20.92
-13.10
-1.03
10.54
17.93
19.64
16.82
11.81
6.92
3.01
-0.85
-5.82
-12.63
-20.01
-25.53
-26.72
-21.78
-10.86
4.55
21.20
35.65
43.94
43.77
35.31
21.88
9.37
3.03
5.39
13.90
22.84
25.68
19.02
4.12
-14.77
-32.27
-45.00
-51.75
-53.03
-49.17
-40.55
-27.75
-12.33
2.74
14.82
22.32
26.01
27.89
29.98
32.51
33.43
29.96
19.84
4.07
-13.61
-27.33
-32.32
-26.96
-13.54
2.76
16.65
24.09
24.28
18.52
9.76
1.58
-2.60
-0.28
8.39
20.61
30.57
32.41
22.75
2.68
-22.08
-44.43
-58.71
-63.46
-60.33
-52.96
-43.64
-32.89
-20.13
-4.91
11.44
26.36
36.41
39.43
35.11
25.28
13.39
2.45
-5.39
-10.26
-12.71
-13.69
-12.81
-9.23
-2.43
7.15
17.19
25.36
29.79
30.61
29.19
27.16
25.06
21.77
15.93
6.61
-4.59
-14.68
-19.84
-18.07
-10.41
-0.64
6.03
6.31
-0.17
-9.89
-18.03
-20.71
-17.14
-10.07
-3.40
-0.43
-1.40
-4.43
-6.41
-5.67
-3.04
-0.72
-1.10
-4.56
-9.81
-14.19
-15.99
-14.13
-8.65
0.07
11.58
24.44
36.09
42.57
40.48
28.79
10.04
-9.95
-25.03
-31.02
-28.41
-20.83
-13.61
-9.64
-8.38
-6.08
1.37
15.23
32.70
47.15
51.73
42.75
21.65
-5.11
-29.56
-45.41
-51.06
-48.52
-42.13
-34.87
-27.77
-19.78
-9.49
3.07
16.20
26.79
32.09
30.73
23.11
11.47
-1.66
-13.74
-23.51
-29.70
-31.68
-28.63
-20.65
-8.91
4.30
15.84
23.63
26.91
26.95
25.84
24.97
24.42
22.25
16.53
6.01
-7.45
-20.07
-26.71
-24.03
-12.07
5.54
22.56
33.65
36.11
31.58
24.24
18.34
15.83
14.83
11.85
3.34
-10.65
-26.87
-39.12
-42.02
-33.30
-15.16
6.24
24.04
32.96
31.78
22.78
10.36
-1.42
-10.87
-17.99
-24.34
-30.36
-35.46
-37.07
-32.88
-21.83
-5.28
12.66
27.25
34.45
33.19
25.17
14.61
5.86
0.86
-0.87
-2.46
-6.55
-14.24
-23.05
-29.02
-27.82
-17.60
-0.20
20.05
37.37
47.41
47.91
39.93
26.44
10.80
-3.92
-16.41
-25.85
-32.35
-35.30
-34.33
-28.78
-18.94
-6.94
4.21
10.93
11.75
7.38
1.52
-1.50
0.99
8.67
17.66
23.26
21.67
12.75
-0.86
-14.46
-24.21
-29.14
-30.68
-32.05
-34.87
-38.75
-40.24
-35.49
-22.37
-2.14
20.20
38.60
48.07
47.51
39.18
27.81
17.67
10.10
4.05
-3.46
-13.76
-25.98
-35.87
-38.77
-31.56
-14.74
7.02
27.32
40.23
43.38
37.85
27.82
17.80
9.90
3.80
-3.31
-13.39
-26.68
-40.02
-48.87
-49.30
-40.11
-24.34
-7.38
4.95
9.96
8.43
4.57
2.91
5.65
12.01
18.35
21.45
19.64
14.66
9.74
7.69
9.03
11.01
9.94
2.96
-8.64
-20.54
-26.60
-22.73
-9.18
9.61
26.65
36.63
37.29
30.92
21.80
13.54
7.53
2.56
-3.04
-10.04
-16.56
-19.95
-17.98
-10.89
-1.48
6.40
9.27
6.21
-1.58
-10.56
-17.11
-18.95
-15.93
-9.88
-3.17
2.28
6.50
10.36
15.22
20.71
24.60
23.66
15.62
1.47
-14.99
-28.34
-34.63
-33.07
-25.74
-15.86
-5.73
3.22
10.27
13.97
12.93
6.50
-3.46
-12.42
-15.15
-8.19
6.97
24.58
36.47
36.38
22.62
-1.13
-27.25
-47.84
-57.27
-54.82
-43.55
-28.75
-15.03
-4.46
3.20
9.62
15.60
20.97
24.43
25.34
24.28
22.81
22.88
25.23
29.49
33.93
37.47
39.44
39.93
38.66
34.27
25.09
10.43
-7.82
-25.85
-38.94
-43.96
-41.15
-33.36
-24.86
-18.58
-15.65
-14.84
-14.70
-13.90
-11.72
-7.60
-0.55
9.65
22.03
33.14
38.72
35.12
21.76
1.98
-18.27
-32.58
-37.50
-33.47
-24.58
-15.84
-10.48
-8.61
-7.65
-5.01
0.30
6.25
9.94
9.49
6.11
3.73
6.51
16.36
30.48
43.27
48.32
42.75
27.85
8.63
-9.15
-21.79
-28.45
-31.16
-32.31
-33.54
-34.99
-35.93
-36.11
-35.92
-36.26
-36.87
-36.09
-30.98
-19.34
-1.57
19.08
37.13
48.01
49.37
42.78
31.62
19.88
10.07
2.96
-1.58
-3.74
-2.89
1.30
8.26
15.75
20.74
20.78
15.11
5.54
-4.99
-13.33
-17.89
-18.41
-15.20
-8.31
2.65
16.59
30.58
39.40
38.27
24.91
2.21
-22.45
-40.30
-44.89
-35.80
-18.13
-0.47
9.86
9.55
0.19
-13.48
-26.76
-36.38
-41.48
-41.97
-37.78
-28.28
-12.95
6.86
27.90
45.14
54.56
54.06
45.13
31.23
16.20
3.06
-7.05
-13.80
-17.66
-18.60
-16.89
-13.12
-8.53
-5.31
-5.28
-9.38
-15.93
-21.55
-21.93
-14.29
0.97
20.19
37.60
48.61
50.96
46.12
37.06
26.69
16.52
6.71
-2.40
-9.74
-13.26
-11.90
-6.52
-0.06
3.91
3.36
-1.59
-8.54
-15.03
-19.24
-21.06
-20.82
-18.36
-12.61
-2.23
11.85
26.27
35.30
34.01
20.45
-2.25
-27.03
-45.90
-53.05
-48.05
-34.96
-20.66
-10.76
-7.36
-8.88
-11.81
-13.69
-13.76
-13.13
-12.57
-11.33
-7.25
2.04
16.60
33.81
48.58
56.75
56.38
49.05
37.97
26.16
15.23
5.44
-2.64
-8.11
-9.50
-6.55
-1.10
3.29
2.66
-4.62
-17.07
-29.78
-37.31
-35.91
-25.26
-8.41
10.12
25.56
34.92
36.56
30.92
19.27
4.13
-10.83
-21.56
-24.33
-18.17
-5.35
8.40
16.46
13.89
0.20
-20.09
-39.88
-52.11
-53.61
-45.31
-31.24
-15.95
-2.23
8.94
17.82
23.76
25.92
23.21
16.45
8.18
1.92
0.50
4.41
12.12
20.43
27.20
31.36
32.99
32.09
27.69
18.72
5.04
-11.07
-25.70
-34.60
-35.41
-29.15
-19.31
-10.66
-6.28
-7.01
-10.64
-14.23
-14.90
-11.24
-3.49
7.28
18.85
28.91
34.56
33.81
25.62
11.14
-6.23
-22.03
-31.61
-32.88
-26.69
-16.84
-7.98
-3.21
-2.76
-4.03
-4.21
-1.57
2.82
6.78
8.64
8.89
10.01
14.46
23.01
33.09
41.00
43.10
38.75
29.66
19.14
9.91
2.94
-2.07
-6.50
-10.87
-15.33
-19.44
-22.91
-25.91
-28.42
-29.93
-29.18
-25.11
-17.34
-6.82
4.22
13.62
19.35
20.83
17.96
11.70
3.06
-6.06
-12.86
-14.46
-8.55
3.93
19.21
30.91
33.81
25.93
10.02
-8.14
-22.92
-30.94
-32.71
-30.47
-26.66
-22.55
-18.35
-14.28
-11.56
-11.82
-15.28
-20.12
-22.88
-20.26
-11.35
1.91
15.40
25.22
29.01
27.19
21.41
14.40
8.83
6.83
10.16
18.29
28.70
36.36
36.75
27.49
10.67
-7.85
-21.35
-25.01
-19.03
-7.46
3.52
9.21
7.97
1.09
-8.88
-20.04
-30.98
-40.47
-46.34
-45.61
-36.32
-19.14
1.48
18.67
26.03
21.66
8.90
-4.43
-10.31
-4.48
11.79
31.95
48.11
53.93
47.93
32.33
12.45
-5.83
-17.88
-20.98
-15.69
-5.08
5.18
9.43
3.91
-11.46
-32.23
-51.59
-62.71
-62.10
-50.35
-31.56
-11.40
5.38
15.78
18.87
14.97
6.39
-3.24
-9.20
-7.57
3.18
20.95
40.33
54.99
59.86
54.04
39.87
22.32
6.36
-4.34
-8.00
-4.87
3.17
12.42
18.61
17.97
8.98
-6.25
-23.08
-35.90
-41.28
-39.04
-32.01
-23.58
-15.44
-7.12
3.26
15.70
27.77
34.82
33.45
23.66
10.04
-0.60
-3.15
3.15
13.59
21.45
21.02
11.27
-4.38
-20.52
-32.80
-40.20
-43.99
-46.32
-47.31
-45.19
-37.32
-22.38
-2.36
18.41
34.55
42.96
43.33
38.51
31.87
25.39
19.20
12.04
3.68
-4.91
-11.13
-13.01
-10.39
-5.47
-2.14
-3.48
-10.31
-19.53
-26.13
-25.11
-14.37
4.09
25.01
41.78
49.73
47.16
36.27
20.87
4.98
-8.49
-17.95
-22.39
-21.53
-15.79
-7.30
0.59
4.16
1.35
-6.95
-17.52
-26.07
-30.03
-29.04
-24.96
-19.66
-13.50
-4.96
7.88
24.39
40.77
50.52
47.93
30.95
3.23
-26.94
-50.09
-59.42
-54.15
-39.00
-21.86
-8.99
-2.46
0.39
4.47
12.89
24.87
35.75
40.45
36.45
25.80
13.90
6.12
5.09
8.97
13.80
15.46
12.74
6.91
-0.09
-7.09
-14.80
-24.03
-34.63
-43.86
-47.67
-42.71
-28.32
-8.11
12.06
26.07
31.12
28.26
21.97
16.77
14.86
15.51
15.94
14.53
11.54
9.50
10.55
14.48
18.22
17.38
9.48
-4.29
-18.94
-28.85
-30.63
-24.58
-14.18
-3.38
4.71
9.14
9.67
6.87
1.14
-6.10
-11.80
-12.26
-4.48
10.60
28.21
40.54
41.13
27.56
3.14
-24.62
-47.67
-60.21
-61.11
-52.72
-39.26
-24.86
-12.20
-3.00
1.75
1.30
-3.67
-10.75
-15.89
-14.97
-5.99
9.80
27.61
41.51
46.55
41.77
29.54
15.26
4.56
1.27
6.58
18.19
31.78
41.53
42.77
32.94
13.37
-10.62
-31.62
-42.47
-40.21
-26.94
-9.51
3.90
7.69
0.62
-13.72
-29.86
-42.32
-47.93
-45.55
-35.60
-19.53
0.40
20.39
35.77
41.95
37.72
25.71
12.39
4.87
7.58
20.32
37.91
53.25
59.75
55.00
40.28
20.61
2.30
-9.56
-12.19
-6.79
2.90
11.36
14.40
10.40
1.12
-9.79
-19.23
-25.89
-31.09
-36.73
-43.88
-51.43
-56.81
-57.38
-51.96
-41.85
-29.55
-18.31
-10.33
-6.78
-7.39
-10.33
-12.98
-12.31
-6.98
2.70
13.72
22.35
25.60
22.55
14.65
4.64
-4.31
-10.29
-12.35
-11.17
-7.91
-3.94
-0.43
2.30
3.96
4.61
3.86
1.61
-1.97
-6.28
-10.35
-13.41
-14.75
-14.45
-12.62
-9.29
-4.24
2.40
9.36
14.77
16.48
13.86
8.07
1.85
-1.91
-1.72
1.77
6.21
9.32
9.97
9.00
8.73
11.69
18.95
28.69
37.05
39.40
33.32
19.68
2.95
-10.71
-16.59
-13.57
-4.91
4.20
9.12
8.64
5.39
4.32
9.27
20.05
32.44
39.89
37.80
25.74
8.63
-6.10
-12.33
-8.17
2.91
15.03
22.83
24.52
21.72
18.05
16.05
15.54
14.69
11.29
5.43
-1.28
-6.17
-8.06
-8.03
-8.51
-11.61
-17.00
-22.29
-23.87
-20.03
-11.56
-1.89
4.90
6.84
4.43
0.54
-2.68
-4.52
-6.78
-11.98
-21.45
-34.30
-47.20
-56.70
-60.38
-58.92
-54.55
-49.72
-45.37
-39.98
-32.03
-21.09
-9.73
-1.67
0.19
-4.01
-10.71
-15.02
-13.34
-5.84
4.34
12.42
15.53
14.13
11.30
10.85
13.97
19.01
22.09
20.48
14.55
8.20
6.45
12.01
23.40
34.71
39.49
33.85
19.76
3.84
-6.38
-6.47
2.16
14.11
22.92
25.44
22.85
19.35
18.69
21.45
24.87
24.62
18.11
5.82
-8.24
-18.98
-22.91
-19.53
-11.64
-2.94
3.42
6.71
8.02
9.48
12.12
15.05
16.07
12.89
5.38
-4.63
-13.36
-17.56
-15.95
-9.82
-2.31
3.97
7.63
9.34
10.35
11.79
13.28
13.34
10.48
4.18
-3.97
-11.68
-16.30
-16.75
-13.70
-8.94
-4.33
-0.28
3.52
8.13
13.55
18.79
21.82
20.84
14.99
5.17
-6.07
-16.15
-22.67
-24.90
-23.19
-18.73
-12.95
-6.66
-0.90
3.63
5.85
5.31
1.97
-3.28
-9.30
-15.20
-20.28
-24.66
-28.02
-29.89
-29.29
-25.81
-20.26
-14.26
-10.06
-8.61
-9.65
-11.49
-12.51
-11.85
-10.21
-8.93
-8.56
-8.76
-7.53
-2.96
6.06
18.14
29.52
36.04
34.82
26.64
15.06
5.26
0.74
1.95
6.28
9.99
11.13
9.88
8.74
9.83
14.05
19.72
23.61
23.06
16.96
7.12
-3.55
-11.70
-15.79
-16.24
-14.85
-13.44
-12.00
-9.52
-4.26
3.81
13.13
20.13
21.38
15.91
5.56
-4.85
-10.85
-9.75
-2.71
6.21
12.42
13.09
9.26
4.29
2.63
6.18
13.93
21.59
24.35
19.71
8.50
-4.91
-15.88
-20.96
-20.34
-16.83
-13.75
-12.95
-13.26
-12.40
-8.30
-2.05
2.94
2.33
-6.11
-20.03
-34.00
-41.57
-39.88
-30.38
-18.52
-10.35
-9.03
-13.60
-19.70
-22.70
-19.75
-11.71
-1.67
6.37
9.78
8.57
4.34
-0.30
-3.80
-5.07
-3.81
0.62
8.57
19.34
30.94
39.54
42.07
37.10
26.75
15.32
7.14
4.57
6.68
10.89
14.41
16.77
18.91
21.91
25.57
28.12
27.76
23.66
16.84
8.90
1.15
-6.15
-13.45
-20.78
-27.78
-33.30
-36.89
-38.65
-39.57
-39.85
-38.44
-33.57
-23.83
-9.83
6.16
20.40
30.43
35.14
35.22
32.53
28.83
25.72
23.62
22.42
20.63
16.25
7.63
-5.46
-20.36
-33.11
-39.55
-38.12
-30.53
-20.68
-11.95
-5.50
-0.59
4.69
10.29
14.85
16.11
13.37
8.30
4.27
3.98
7.23
11.33
11.79
5.82
-6.90
-24.03
-41.47
-55.31
-62.47
-61.74
-52.97
-37.91
-19.10
-0.08
15.57
25.53
28.86
26.90
22.20
17.68
15.06
14.73
16.04
17.88
19.58
20.66
21.14
20.39
18.10
13.68
7.46
1.02
-3.44
-3.81
0.17
6.85
12.71
13.88
8.57
-2.06
-14.28
-23.80
-27.37
-24.79
-17.56
-8.34
0.96
9.90
18.66
27.09
33.58
35.79
31.75
21.18
6.27
-8.80
-19.90
-24.57
-22.73
-16.97
-10.25
-5.16
-2.49
-1.07
1.33
6.23
13.17
19.72
22.18
17.74
6.21
-9.37
-23.82
-32.32
-31.80
-22.74
-8.14
7.04
18.02
21.96
18.76
11.25
3.26
-1.38
-0.83
4.41
11.96
18.85
23.00
23.66
21.84
18.44
14.15
8.37
0.23
-10.23
-21.29
-29.69
-32.35
-27.53
-16.61
-3.48
6.59
9.16
2.68
-11.33
-28.67
-44.60
-54.58
-55.87
-47.81
-32.10
-12.92
4.59
15.45
17.12
10.11
-1.44
-11.67
-15.29
-9.48
4.57
22.78
39.32
49.17
49.03
38.75
21.06
0.81
-16.17
-25.76
-25.81
-17.37
-3.86
9.94
19.43
21.69
16.56
7.20
-2.07
-6.82
-5.10
2.41
13.12
23.56
30.88
33.23
30.02
20.83
6.59
-10.94
-28.39
-41.53
-46.90
-43.33
-32.78
-19.34
-7.81
-1.35
-0.82
-4.54
-9.20
-11.96
-11.01
-6.74
-0.81
4.65
8.36
10.56
12.30
15.01
18.33
21.23
21.95
19.82
15.91
12.11
10.20
10.25
11.38
11.66
10.40
7.80
5.32
4.62
6.16
8.99
10.92
9.56
2.92
-8.92
-24.09
-39.11
-49.83
-53.45
-49.38
-39.96
-28.87
-19.61
-14.00
-11.70
-10.88
-9.24
-5.96
-0.78
5.33
11.30
16.15
19.22
20.45
19.98
18.92
17.86
17.61
17.89
18.31
18.73
19.17
20.22
21.78
23.28
23.09
20.24
14.59
7.37
0.55
-4.47
-7.48
-9.70
-12.38
-16.43
-21.52
-26.82
-31.01
-32.61
-30.96
-25.50
-17.01
-6.99
2.03
7.77
9.35
7.60
5.26
4.50
6.87
11.80
17.86
23.59
27.78
30.02
29.67
26.55
20.11
10.82
-0.45
-11.85
-21.07
-26.33
-26.67
-22.73
-16.23
-10.36
-7.82
-10.37
-17.56
-26.48
-33.45
-35.42
-31.90
-24.36
-15.46
-7.43
-1.20
3.52
7.61
10.98
13.48
14.45
13.76
11.82
9.41
7.51
6.57
7.17
8.89
11.34
13.32
14.07
13.71
12.98
13.21
14.69
16.86
17.58
15.43
10.31
3.83
-1.44
-3.77
-3.36
-2.21
-2.37
-4.79
-8.54
-11.91
-13.29
-12.04
-9.12
-5.89
-3.86
-3.26
-3.18
-1.94
2.18
9.61
19.42
28.44
33.26
30.92
21.24
7.04
-6.75
-14.91
-14.85
-6.73
5.87
18.47
26.57
27.64
21.67
11.14
0.36
-6.50
-6.57
0.05
10.75
21.25
27.30
26.13
16.99
1.28
-18.63
-39.03
-55.72
-64.89
-64.26
-54.64
-39.72
-25.00
-15.09
-12.34
-15.11
-19.67
-21.87
-18.97
-11.02
0.05
11.15
19.67
23.30
21.18
13.59
2.20
-9.62
-18.51
-21.20
-16.43
-5.20
9.11
22.10
29.92
30.65
25.64
17.75
10.83
7.25
7.74
11.63
17.52
23.96
29.42
32.83
32.62
27.90
18.31
4.90
-9.91
-22.81
-30.42
-30.84
-23.74
-11.35
2.66
13.89
18.68
15.52
5.00
-9.93
-25.74
-38.31
-44.58
-42.83
-33.28
-18.81
-3.79
6.79
9.83
4.88
-4.91
-14.67
-19.69
-17.17
-7.84
5.38
18.02
26.18
27.09
20.55
8.58
-4.89
-14.91
-17.98
-12.32
0.80
17.68
33.43
43.48
45.10
38.44
27.10
15.89
9.82
11.21
19.52
31.73
43.71
51.80
53.83
49.52
39.77
27.20
15.23
7.85
8.35
17.40
32.27
47.11
55.81
54.46
43.40
26.50
8.88
-5.54
-16.23
-25.25
-36.87
-55.36
-83.93
-123.30
-171.20
-222.44
-269.03
-303.14
-318.90
-315.16
-294.91
-264.00
-228.46
-192.11
-156.12
-119.64
-82.09
-44.11
-7.97
23.82
48.95
66.04
74.23
73.10
63.08
45.97
25.23
5.18
-10.13
-18.48
-19.47
-13.74
-2.60
12.66
29.77
45.36
55.06
55.42
45.99
30.08
14.61
6.60
10.62
26.45
49.50
73.43
92.85
105.49
112.30
116.40
121.04
128.38
138.15
147.97
154.20
153.55
144.47
127.72
106.24
83.73
63.76
48.40
38.19
32.71
31.11
32.88
37.75
45.51
55.09
64.69
72.25
75.97
75.35
70.87
64.03
56.40
49.04
42.18
35.39
27.97
19.47
10.00
0.21
-8.90
-16.50
-22.11
-25.88
-28.29
-30.00
-31.54
-33.10
-34.60
-35.71
-36.14
-35.75
-34.62
-32.97
-31.11
-29.27
-27.55
-25.95
-24.37
-22.69
-20.85
-18.86
-16.78
-14.68
-12.64
-10.69
-8.83
-7.03
-5.28
-3.54
-1.81
-0.08
1.63
3.34
5.06
6.80
8.53
10.24
11.93
13.52
14.95
16.04
16.59
16.38
15.22
12.90
9.33
4.46
-1.70
-8.97
-17.06
-25.52
-33.87
-41.53
-47.95
-52.57
-54.92
-54.73
-51.93
-46.65
-39.31
-30.49
-20.52
-10.40
-0.98
7.03
13.14
17.15
19.05
18.95
17.00
13.59
9.14
4.13
-0.94
-5.63
-9.47
-12.04
-12.97
-12.05
-9.12
-4.18
2.61
11.19
20.92
31.16
41.32
50.87
59.26
66.18
71.43
74.79
76.00
74.90
71.43
65.56
57.35
46.76
34.00
19.53
3.76
-12.86
-29.69
-45.96
-60.79
-72.44
-80.33
-84.89
-85.22
-80.82
-71.75
-58.27
-41.02
-21.06
0.19
21.17
40.25
56.15
67.72
73.99
74.62
69.70
59.67
45.24
27.42
7.32
-13.66
-32.91
-49.18
-61.40
-68.65
-70.37
-68.02
-61.17
-49.65
-33.46
-12.84
11.58
39.04
68.46
98.40
126.90
151.94
171.93
186.22
195.10
199.25
199.53
196.49
190.28
179.89
164.12
142.59
116.44
88.18
60.79
36.93
18.14
4.60
-5.95
-16.65
-29.62
-45.08
-61.70
-77.79
-92.63
-107.48
-125.63
-148.17
-178.61
-219.98
-273.72
-339.30
-414.01
-492.95
-569.12
-621.85
-634.65
-600.20
-523.71
-421.18
-312.60
-214.14
-134.40
-74.55
-31.32
-2.11
14.51
20.02
17.12
9.74
2.15
-2.86
-4.36
-2.81
-0.44
0.99
1.78
4.78
13.11
31.87
64.25
109.72
163.41
216.05
257.31
278.23
276.27
256.36
228.53
202.82
185.45
177.14
173.95
170.81
164.46
154.88
144.06
134.11
125.52
117.26
107.94
96.76
84.17
71.61
60.93
53.24
48.50
45.47
42.51
38.32
32.57
25.86
19.38
14.43
11.67
11.01
11.61
12.38
12.43
11.36
9.34
6.94
4.91
3.87
4.09
5.47
7.57
9.74
11.35
11.96
11.47
10.25
8.92
8.36
8.78
10.04
11.31
11.37
8.99
3.42
-5.23
-15.90
-27.31
-38.21
-47.79
-56.03
-63.47
-70.86
-78.97
-88.47
-99.76
-112.42
-124.56
-132.49
-131.63
-118.25
-91.71
-55.43
-16.24
18.17
42.23
54.51
57.62
56.17
54.27
53.83
54.50
54.87
54.10
52.47
51.20
51.45
53.58
57.07
61.01
64.79
68.47
72.29
75.94
77.93
76.00
68.08
53.52
33.71
11.76
-8.73
-25.01
-35.96
-41.96
-44.13
-43.46
-40.50
-35.52
-29.02
-21.79
-15.02
-9.85
-7.16
-7.30
-10.00
-14.44
-19.55
-24.26
-27.92
-30.36
-31.32
-30.92
-29.42
-27.00
-23.70
-19.55
-14.76
-9.77
-5.27
-1.85
0.11
0.67
0.40
0.05
0.29
1.44
3.37
5.63
7.65
8.96
9.36
9.05
8.50
8.18
8.43
9.29
10.58
11.98
13.18
13.93
14.15
13.88
13.17
12.12
10.88
9.68
8.76
8.32
8.42
8.91
9.44
9.62
9.20
8.19
6.96
6.06
5.90
6.52
7.41
7.71
6.49
3.26
-1.91
-8.25
-14.70
-20.26
-24.32
-26.79
-27.83
-27.76
-26.74
-24.88
-22.27
-19.10
-15.72
-12.47
-9.73
-7.63
-6.22
-5.36
-4.79
-4.26
-3.52
-2.49
-1.23
-0.01
0.83
0.99
0.43
-0.65
-1.84
-2.76
-3.18
-3.08
-2.60
-1.85
-0.89
0.31
1.75
3.27
4.69
5.66
5.97
5.56
4.46
2.89
1.11
-0.56
-1.87
-2.60
-2.70
-2.21
-1.27
-0.02
1.42
2.90
4.24
5.15
5.34
4.61
2.95
0.65
-1.84
-4.00
-5.53
-6.34
-6.57
-6.39
-5.91
-5.13
-4.05
-2.79
-1.56
-0.71
-0.44
-0.77
-1.44
-2.05
-2.27
-1.94
-1.18
-0.18
0.86
1.85
2.79
3.72
4.56
5.15
5.35
5.00
4.11
2.74
1.05
-0.73
-2.41
-3.76
-4.66
-5.01
-4.84
-4.23
-3.40
-2.62
-2.25
-2.66
-4.03
-6.22
-8.49
-9.66
-8.38
-3.68
4.56
15.48
27.48
38.73
47.44
52.00
50.93
43.08
28.08
6.88
-17.95
-42.60
-63.03
-76.20
-80.86
-77.75
-68.93
-56.92
-43.98
-31.74
-21.22
-12.96
-7.12
-3.54
-1.73
-1.08
-0.91
-0.76
-0.33
0.39
1.18
1.69
1.57
0.74
-0.64
-2.02
-2.81
-2.54
-1.10
1.17
3.71
5.90
7.37
8.01
8.04
7.70
7.25
6.80
6.43
6.18
5.99
5.82
5.46
4.75
3.56
1.95
0.27
-1.07
-1.68
-1.51
-0.76
0.07
0.59
0.60
0.24
-0.17
-0.40
-0.36
-0.24
-0.23
-0.51
-1.04
-1.70
-2.35
-2.88
-3.33
-3.63
-3.65
-3.12
-1.90
0.01
2.28
4.37
5.77
6.15
5.58
4.38
3.12
2.29
2.18
2.83
4.07
5.65
7.30
8.86
10.18
11.13
11.66
11.77
11.56
10.97
9.79
7.46
3.33
-3.07
-11.65
-21.56
-31.42
-39.65
-45.08
-47.11
-45.82
-41.71
-35.37
-27.51
-18.87
-10.31
-2.79
2.86
6.23
7.43
7.07
6.02
5.08
4.73
5.04
5.80
6.61
7.10
7.10
6.58
5.73
4.72
3.76
2.87
2.06
1.29
0.54
-0.05
-0.27
0.27
1.97
5.20
10.00
15.86
21.52
25.06
24.55
18.83
8.34
-4.92
-17.89
-27.61
-32.32
-31.87
-27.49
-20.84
-13.29
-5.49
2.35
9.96
16.67
21.56
23.82
23.34
20.74
17.15
13.79
11.47
10.37
10.17
10.21
9.88
8.73
6.76
4.24
1.67
-0.36
-1.42
-1.48
-1.02
-0.88
-1.98
-4.81
-9.11
-13.89
-17.70
-19.33
-18.34
-15.43
-12.16
-10.34
-11.18
-14.75
-19.92
-24.82
-27.86
-28.36
-26.86
-24.79
-23.77
-24.97
-28.75
-34.80
-42.01
-48.38
-50.55
-44.29
-25.90
5.67
47.15
91.23
128.77
152.40
159.18
151.17
133.35
110.57
85.52
58.60
29.84
0.84
-24.44
-41.16
-45.71
-37.73
-20.38
1.09
21.18
35.92
43.49
44.09
39.28
31.34
22.77
15.84
12.06
11.46
12.43
12.06
7.35
-3.23
-18.52
-34.49
-45.47
-46.29
-34.59
-11.93
16.46
43.39
61.93
67.25
57.74
35.05
3.61
-30.51
-60.91
-82.27
-91.58
-88.71
-76.15
-58.00
-38.61
-21.42
-8.38
-0.07
3.94
4.58
3.13
0.90
-0.76
-1.02
0.35
2.81
5.32
6.94
7.03
5.73
3.66
1.78
0.88
1.31
2.84
4.76
6.26
6.67
5.87
4.13
2.12
0.46
-0.45
-0.55
-0.09
0.58
1.10
1.35
1.32
1.12
0.89
0.71
0.59
0.49
0.38
0.24
0.12
0.06
0.07
0.12
0.15
0.15
0.13
0.17
0.34
0.59
0.81
0.88
0.70
0.36
0.02
-0.19
-0.18
-0.06
0.00
-0.09
-0.31
-0.50
-0.48
-0.18
0.32
0.77
0.93
0.71
0.24
-0.23
-0.42
-0.26
0.15
0.50
0.47
-0.01
-0.82
-1.61
-2.09
-2.15
-1.93
-1.69
-1.58
-1.58
-1.44
-1.02
-0.28
0.52
1.04
0.98
0.32
-0.69
-1.73
-2.48
-2.80
-2.70
-2.29
-1.73
-1.09
-0.49
0.06
0.52
0.88
1.08
1.12
0.94
0.56
0.09
-0.30
-0.43
-0.28
0.13
0.60
0.96
1.11
1.03
0.83
0.58
0.37
0.17
-0.06
-0.37
-0.74
-1.09
-1.35
-1.41
-1.19
-0.68
0.02
0.75
1.27
1.37
1.02
0.30
-0.51
-1.13
-1.37
-1.21
-0.80
-0.33
0.07
0.38
0.65
0.93
1.16
1.25
1.07
0.66
0.11
-0.39
-0.67
-0.66
-0.42
-0.14
0.07
0.14
0.09
0.06
0.11
0.24
0.34
0.31
0.08
-0.27
-0.64
-0.91
-1.04
-1.07
-1.04
-1.00
-0.85
-0.56
-0.12
0.37
0.76
0.91
0.75
0.36
-0.11
-0.47
-0.62
-0.53
-0.22
0.17
0.56
0.81
0.83
0.57
0.02
-0.72
-1.49
-2.08
-2.32
-2.12
-1.55
-0.79
-0.03
0.59
1.07
1.41
1.62
1.60
1.21
0.40
-0.75
-1.89
-2.69
-2.89
-2.51
-1.79
-1.11
-0.70
-0.59
-0.62
-0.58
-0.43
-0.27
-0.32
-0.67
-1.24
-1.77
-1.94
-1.59
-0.80
0.13
0.87
1.13
0.88
0.27
-0.46
-1.07
-1.42
-1.48
-1.31
-0.96
-0.49
0.00
0.45
0.74
0.88
0.86
0.79
0.70
0.63
0.58
0.47
0.29
0.01
-0.26
-0.47
-0.54
-0.48
-0.36
-0.20
-0.04
0.15
0.38
0.61
0.72
0.61
0.25
-0.24
-0.65
-0.74
-0.39
0.25
0.90
1.22
1.05
0.51
-0.13
-0.53
-0.54
-0.20
0.24
0.51
0.45
0.10
-0.36
-0.70
-0.78
-0.59
-0.23
0.12
0.33
0.35
0.22
0.05
-0.06
-0.10
-0.12
-0.20
-0.38
-0.56
-0.61
-0.40
0.13
0.83
1.45
1.65
1.29
0.44
-0.61
-1.43
-1.74
-1.45
-0.78
-0.06
0.40
0.51
0.38
0.19
0.09
0.07
-0.01
-0.31
-0.90
-1.66
-2.36
-2.74
-2.64
-2.04
-1.19
-0.38
0.07
0.06
-0.29
-0.69
-0.82
-0.55
0.09
0.87
1.54
1.91
1.93
1.62
1.07
0.42
-0.21
-0.62
-0.71
-0.44
0.10
0.69
1.14
1.28
1.08
0.59
-0.07
-0.82
-1.57
-2.16
-2.47
-2.39
-1.93
-1.25
-0.55
-0.07
0.12
0.05
-0.14
-0.31
-0.36
-0.31
-0.23
-0.21
-0.28
-0.39
-0.45
-0.39
-0.19
0.07
0.32
0.45
0.50
0.55
0.75
1.09
1.52
1.83
1.85
1.50
0.84
0.13
-0.42
-0.63
-0.49
-0.11
0.33
0.67
0.79
0.69
0.45
0.15
-0.11
-0.33
-0.49
-0.59
-0.60
-0.49
-0.30
-0.08
0.05
0.10
0.05
0.00
-0.02
-0.04
-0.11
-0.29
-0.54
-0.77
-0.87
-0.78
-0.60
-0.43
-0.38
-0.47
-0.67
-0.84
-0.97
-1.02
-0.96
-0.82
-0.57
-0.26
0.07
0.31
0.40
0.29
0.00
-0.33
-0.64
-0.83
-0.89
-0.84
-0.72
-0.50
-0.16
0.29
0.83
1.26
1.45
1.28
0.80
0.18
-0.33
-0.55
-0.50
-0.35
-0.34
-0.61
-1.12
-1.63
-1.83
-1.53
-0.73
0.34
1.35
2.01
2.19
1.95
1.46
0.94
0.51
0.26
0.12
0.01
-0.16
-0.40
-0.65
-0.81
-0.73
-0.40
0.15
0.74
1.17
1.29
1.10
0.71
0.32
0.10
0.11
0.32
0.58
0.72
0.66
0.38
-0.02
-0.41
-0.68
-0.85
-0.92
-1.01
-1.15
-1.27
-1.29
-1.14
-0.84
-0.47
-0.16
0.03
0.08
0.01
-0.17
-0.46
-0.81
-1.14
-1.27
-1.10
-0.65
-0.09
0.33
0.49
0.34
0.09
-0.11
-0.16
-0.08
0.05
0.19
0.32
0.50
0.64
0.67
0.50
0.15
-0.27
-0.57
-0.58
-0.30
0.20
0.69
1.03
1.11
0.97
0.70
0.40
0.21
0.13
0.20
0.31
0.35
0.20
-0.15
-0.60
-1.01
-1.17
-1.09
-0.81
-0.50
-0.31
-0.24
-0.21
-0.06
0.23
0.57
0.73
0.52
-0.09
-0.93
-1.64
-1.94
-1.71
-1.09
-0.35
0.20
0.41
0.31
0.06
-0.10
-0.07
0.16
0.48
0.75
0.84
0.73
0.50
0.22
0.01
-0.15
-0.31
-0.49
-0.69
-0.79
-0.76
-0.53
-0.22
0.02
0.06
-0.11
-0.40
-0.65
-0.72
-0.64
-0.42
-0.18
0.00
0.09
0.09
0.05
0.02
0.01
0.02
0.08
0.08
0.02
-0.18
-0.49
-0.84
-1.14
-1.28
-1.26
-1.12
-1.00
-0.92
-0.90
-0.84
-0.61
-0.18
0.44
1.08
1.57
1.75
1.61
1.28
0.91
0.67
0.53
0.42
0.21
-0.10
-0.41
-0.55
-0.42
-0.07
0.32
0.57
0.61
0.49
0.35
0.27
0.23
0.16
-0.02
-0.24
-0.37
-0.23
0.24
0.90
1.50
1.73
1.49
0.84
0.05
-0.61
-0.98
-1.00
-0.81
-0.52
-0.30
-0.21
-0.31
-0.54
-0.83
-1.07
-1.14
-1.00
-0.63
-0.14
0.39
0.86
1.22
1.45
1.46
1.26
0.81
0.17
-0.55
-1.20
-1.64
-1.79
-1.52
-0.89
0.05
1.04
1.80
2.03
1.65
0.86
-0.00
-0.51
-0.48
0.04
0.72
1.20
1.20
0.68
-0.17
-1.07
-1.67
-1.79
-1.39
-0.60
0.33
1.18
1.77
2.09
2.15
2.05
1.77
1.34
0.75
0.12
-0.34
-0.51
-0.33
0.02
0.34
0.33
-0.09
-0.86
-1.71
-2.32
-2.49
-2.15
-1.46
-0.63
0.09
0.56
0.73
0.65
0.42
0.11
-0.21
-0.50
-0.76
-0.91
-0.90
-0.65
-0.17
0.50
1.19
1.77
2.09
2.08
1.76
1.18
0.47
-0.26
-0.87
-1.28
-1.42
-1.30
-1.00
-0.65
-0.37
-0.23
-0.26
-0.36
-0.49
-0.59
-0.63
-0.67
-0.67
-0.65
-0.55
-0.37
-0.11
0.14
0.32
0.39
0.31
0.14
-0.10
-0.32
-0.48
-0.58
-0.64
-0.70
-0.73
-0.73
-0.62
-0.42
-0.20
-0.08
-0.13
-0.39
-0.79
-1.16
-1.43
-1.53
-1.48
-1.32
-1.09
-0.75
-0.28
0.25
0.78
1.18
1.39
1.42
1.39
1.35
1.32
1.22
0.93
0.47
-0.12
-0.63
-0.91
-0.93
-0.78
-0.67
-0.70
-0.89
-1.02
-0.89
-0.42
0.25
0.82
1.03
0.77
0.24
-0.27
-0.47
-0.26
0.20
0.72
1.05
1.13
1.02
0.83
0.63
0.41
0.17
-0.08
-0.24
-0.14
0.31
1.07
1.94
2.63
2.88
2.57
1.80
0.84
-0.04
-0.60
-0.80
-0.72
-0.56
-0.44
-0.41
-0.46
-0.52
-0.59
-0.64
-0.65
-0.56
-0.28
0.16
0.64
0.92
0.83
0.29
-0.56
-1.37
-1.90
-1.95
-1.66
-1.27
-1.00
-0.95
-1.04
-1.13
-1.13
-1.07
-1.01
-0.99
-0.96
-0.80
-0.37
0.28
0.97
1.42
1.43
1.06
0.51
0.10
0.01
0.27
0.71
1.12
1.39
1.53
1.59
1.57
1.38
0.99
0.38
-0.21
-0.54
-0.46
-0.03
0.46
0.69
0.53
0.10
-0.31
-0.39
-0.12
0.36
0.76
0.88
0.71
0.38
0.11
-0.05
-0.05
-0.01
0.00
-0.05
-0.17
-0.35
-0.58
-0.83
-1.08
-1.23
-1.30
-1.28
-1.22
-1.18
-1.15
-1.10
-0.96
-0.73
-0.42
-0.14
0.07
0.15
0.10
-0.03
-0.22
-0.41
-0.60
-0.78
-1.00
-1.21
-1.36
-1.33
-1.00
-0.34
0.51
1.31
1.78
1.79
1.46
1.02
0.73
0.71
0.87
1.05
1.02
0.72
0.20
-0.40
-0.91
-1.20
-1.17
-0.82
-0.23
0.45
0.99
1.20
1.02
0.53
-0.08
-0.62
-0.98
-1.19
-1.30
-1.39
-1.44
-1.39
-1.16
-0.69
-0.00
0.79
1.50
2.03
2.31
2.34
2.16
1.88
1.53
1.12
0.63
-0.04
-0.83
-1.65
-2.26
-2.41
-1.97
-1.05
0.04
0.91
1.24
1.04
0.48
-0.10
-0.49
-0.66
-0.72
-0.81
-0.93
-1.01
-0.91
-0.64
-0.27
-0.00
0.01
-0.17
-0.38
-0.39
-0.14
0.32
0.71
0.81
0.57
0.12
-0.22
-0.18
0.27
0.95
1.51
1.65
1.31
0.70
0.16
-0.00
0.28
0.84
1.37
1.60
1.47
1.04
0.51
0.04
-0.27
-0.41
-0.41
-0.29
-0.12
0.08
0.22
0.26
0.13
-0.17
-0.60
-1.09
-1.56
-1.93
-2.11
-2.02
-1.62
-1.00
-0.28
0.32
0.59
0.52
0.14
-0.33
-0.69
-0.79
-0.69
-0.53
-0.43
-0.45
-0.48
-0.37
-0.00
0.54
1.09
1.42
1.40
1.11
0.69
0.37
0.21
0.24
0.37
0.54
0.75
0.99
1.25
1.38
1.29
0.91
0.34
-0.22
-0.63
-0.81
-0.82
-0.79
-0.83
-0.93
-1.01
-0.97
-0.77
-0.47
-0.16
-0.01
-0.03
-0.24
-0.54
-0.88
-1.14
-1.26
-1.25
-1.08
-0.85
-0.61
-0.47
-0.49
-0.69
-1.00
-1.31
-1.51
-1.52
-1.35
-1.03
-0.69
-0.45
-0.32
-0.29
-0.27
-0.22
-0.13
-0.06
-0.11
-0.33
-0.69
-1.01
-1.14
-0.93
-0.44
0.20
0.71
0.87
0.63
0.04
-0.69
-1.39
-1.90
-2.19
-2.21
-2.06
-1.76
-1.41
-1.09
-0.81
-0.56
-0.23
0.27
1.01
1.91
2.80
3.38
3.37
2.55
0.85
-1.54
-4.24
-6.73
-8.46
-8.95
-7.94
-5.50
-1.99
1.93
5.45
7.83
8.55
7.52
5.04
1.65
-2.13
-5.86
-9.29
-12.13
-14.04
-14.66
-13.78
-11.66
-9.00
-6.78
-5.85
-6.44
-8.12
-9.89
-10.77
-10.15
-8.06
-5.05
-1.83
1.06
3.46
5.42
7.12
8.59
9.76
10.46
10.64
10.38
9.88
9.36
8.92
8.57
8.19
7.72
7.07
6.23
5.29
4.32
3.53
3.02
2.91
3.03
3.20
3.16
2.80
2.24
1.70
1.44
1.48
1.73
1.94
2.00
1.95
1.88
1.93
2.05
2.16
2.12
1.97
1.85
1.92
2.27
2.80
3.30
3.54
3.40
2.92
2.28
1.67
1.24
1.04
1.00
1.02
0.94
0.69
0.27
-0.20
-0.58
-0.73
-0.53
-0.06
0.56
1.11
1.38
1.23
0.71
0.02
-0.55
-0.76
-0.59
-0.18
0.18
0.30
0.19
-0.02
-0.10
0.04
0.36
0.69
0.90
0.92
0.80
0.64
0.47
0.25
-0.11
-0.66
-1.28
-1.81
-2.01
-1.82
-1.27
-0.59
0.04
0.41
0.50
0.38
0.15
-0.06
-0.22
-0.27
-0.25
-0.11
0.14
0.45
0.74
0.91
0.88
0.61
0.19
-0.30
-0.69
-0.92
-0.96
-0.86
-0.70
-0.53
-0.38
-0.21
-0.02
0.24
0.58
0.98
1.37
1.64
1.67
1.31
0.55
-0.55
-1.73
-2.66
-3.07
-2.79
-1.91
-0.70
0.42
1.14
1.29
0.91
0.25
-0.39
-0.70
-0.58
-0.07
0.64
1.31
1.75
1.84
1.63
1.20
0.70
0.18
-0.28
-0.71
-1.05
-1.28
-1.37
-1.28
-1.06
-0.73
-0.42
-0.17
-0.03
0.01
0.09
0.32
0.76
1.29
1.66
1.60
1.01
0.07
-0.83
-1.24
-1.04
-0.35
0.40
0.82
0.75
0.32
-0.14
-0.40
-0.36
-0.19
-0.06
-0.07
-0.15
-0.12
0.14
0.66
1.26
1.70
1.78
1.46
0.90
0.29
-0.16
-0.47
-0.71
-1.04
-1.48
-1.96
-2.27
-2.28
-1.99
-1.50
-0.98
-0.48
-0.03
0.44
0.93
1.34
1.59
1.59
1.40
1.06
0.65
0.21
-0.26
-0.73
-1.13
-1.41
-1.55
-1.58
-1.57
-1.54
-1.47
-1.28
-0.93
-0.47
0.01
0.33
0.42
0.26
0.02
-0.13
-0.10
0.13
0.40
0.58
0.61
0.55
0.52
0.59
0.81
1.02
1.07
0.82
0.34
-0.22
-0.67
-0.89
-0.90
-0.79
-0.65
-0.51
-0.33
-0.07
0.22
0.43
0.44
0.26
-0.03
-0.24
-0.30
-0.26
-0.25
-0.42
-0.77
-1.13
-1.34
-1.22
-0.82
-0.25
0.23
0.46
0.37
-0.02
-0.51
-0.88
-0.89
-0.42
0.47
1.52
2.37
2.76
2.60
2.11
1.53
1.10
0.82
0.58
0.21
-0.36
-0.95
-1.37
-1.38
-0.98
-0.30
0.36
0.73
0.71
0.33
-0.18
-0.61
-0.80
-0.70
-0.36
0.13
0.66
1.15
1.49
1.69
1.67
1.48
1.16
0.74
0.26
-0.26
-0.73
-1.10
-1.27
-1.24
-1.11
-1.05
-1.20
-1.59
-2.09
-2.48
-2.62
-2.45
-2.11
-1.74
-1.48
-1.37
-1.31
-1.25
-1.06
-0.75
-0.37
-0.04
0.17
0.23
0.22
0.30
0.56
0.99
1.42
1.61
1.43
0.92
0.35
-0.02
0.00
0.32
0.70
0.91
0.83
0.58
0.31
0.17
0.16
0.14
-0.01
-0.28
-0.57
-0.69
-0.52
-0.09
0.45
0.93
1.22
1.29
1.18
0.97
0.70
0.41
0.17
0.07
0.10
0.23
0.31
0.24
-0.01
-0.33
-0.53
-0.50
-0.22
0.12
0.30
0.16
-0.31
-0.96
-1.56
-1.92
-1.91
-1.54
-0.91
-0.21
0.38
0.64
0.54
0.07
-0.63
-1.40
-2.03
-2.40
-2.40
-2.00
-1.30
-0.41
0.43
1.05
1.30
1.14
0.74
0.29
0.04
0.12
0.55
1.09
1.48
1.46
0.93
0.09
-0.66
-0.90
-0.49
0.47
1.54
2.24
2.32
1.76
0.91
0.15
-0.26
-0.31
-0.18
-0.09
-0.18
-0.40
-0.61
-0.62
-0.37
0.09
0.56
0.82
0.69
0.15
-0.66
-1.47
-1.99
-2.10
-1.88
-1.58
-1.46
-1.60
-1.81
-1.74
-1.17
-0.12
1.06
1.87
2.00
1.45
0.57
-0.21
-0.54
-0.39
0.05
0.52
0.82
0.89
0.78
0.59
0.36
0.17
-0.01
-0.09
-0.04
0.15
0.40
0.60
0.61
0.35
-0.13
-0.73
-1.33
-1.78
-2.01
-1.93
-1.52
-0.84
-0.07
0.56
0.77
0.40
-0.47
-1.63
-2.70
-3.43
-3.78
-3.95
-4.20
-4.73
-5.54
-6.36
-6.92
-7.03
-6.82
-6.63
-6.90
-7.91
-9.66
-11.86
-14.12
-16.13
-17.77
-19.17
-20.52
-22.09
-24.04
-26.51
-29.57
-33.21
-37.33
-41.63
-45.85
-49.86
-53.83
-58.22
-63.54
-70.14
-77.93
-86.47
-95.10
-103.45
-111.67
-120.40
-130.54
-142.76
-157.24
-173.42
-190.41
-207.18
-223.05
-237.91
-252.16
-266.67
-282.64
-301.46
-324.35
-351.67
-382.04
-411.85
-435.71
-447.89
-444.29
-424.02
-389.68
-346.32
-299.44
-253.23
-209.86
-169.91
-133.30
-100.28
-71.46
-47.43
-28.20
-12.95
-0.46
10.37
19.96
28.14
34.31
37.99
39.27
38.82
37.76
37.19
37.83
39.88
43.00
46.66
50.39
54.04
57.71
61.68
66.12
71.02
76.20
81.46
86.72
92.08
97.82
104.19
111.21
118.69
126.26
133.64
140.85
148.28
156.56
166.33
177.87
190.95
204.96
219.14
232.96
246.31
259.56
273.41
288.80
306.79
328.30
353.55
381.43
409.11
432.33
446.56
448.53
437.59
415.83
387.35
356.54
326.69
299.29
274.41
251.56
230.45
211.23
194.11
178.94
165.01
151.34
137.22
122.52
107.77
93.92
81.82
71.82
63.71
56.81
50.29
43.63
36.69
29.74
23.26
17.70
13.26
9.86
7.16
4.68
2.10
-0.73
-3.61
-6.17
-8.01
-8.95
-9.12
-8.86
-8.64
-8.75
-9.31
-10.25
-11.40
-12.58
-13.63
-14.39
-14.71
-14.52
-13.90
-13.08
-12.38
-12.05
-12.14
-12.46
-12.81
-12.98
-12.97
-12.91
-12.94
-13.10
-13.29
-13.33
-13.10
-12.64
-12.09
-11.69
-11.59
-11.79
-12.17
-12.49
-12.62
-12.52
-12.31
-12.09
-11.95
-11.85
-11.74
-11.58
-11.45
-11.46
-11.67
-12.04
-12.38
-12.49
-12.29
-11.87
-11.47
-11.26
-11.35
-11.61
-11.90
-12.07
-12.06
-11.90
-11.68
-11.48
-11.33
-11.30
-11.40
-11.64
-11.98
-12.28
-12.45
-12.37
-12.05
-11.60
-11.16
-10.92
-10.91
-11.09
-11.26
-11.24
-10.89
-10.31
-9.71
-9.37
-9.41
-9.73
-10.10
-10.23
-10.04
-9.58
-9.08
-8.70
-8.49
-8.40
-8.31
-8.20
-8.16
-8.36
-8.85
-9.60
-10.37
-10.89
-11.01
-10.71
-10.15
-9.57
-9.21
-9.13
-9.30
-9.58
-9.77
-9.78
-9.59
-9.27
-8.91
-8.60
-8.36
-8.19
-8.02
-7.85
-7.72
-7.66
-7.75
-8.02
-8.42
-8.87
-9.28
-9.59
-9.71
-9.69
-9.46
-9.08
-8.56
-8.01
-7.57
-7.35
-7.40
-7.65
-8.00
-8.27
-8.41
-8.37
-8.16
-7.87
-7.59
-7.41
-7.37
-7.54
-7.84
-8.19
-8.47
-8.57
-8.42
-8.05
-7.59
-7.13
-6.85
-6.80
-7.03
-7.49
-8.02
-8.49
-8.68
-8.58
-8.17
-7.56
-6.89
-6.28
-5.80
-5.50
-5.44
-5.60
-5.99
-6.50
-7.00
-7.31
-7.28
-6.94
-6.37
-5.82
-5.48
-5.49
-5.81
-6.30
-6.74
-6.99
-7.01
-6.84
-6.63
-6.48
-6.42
-6.39
-6.27
-6.01
-5.70
-5.53
-5.72
-6.31
-7.12
-7.78
-7.96
-7.52
-6.67
-5.83
-5.44
-5.62
-6.24
-6.92
-7.27
-7.15
-6.65
-6.05
-5.58
-5.42
-5.56
-5.86
-6.11
-6.12
-5.78
-5.16
-4.44
-3.88
-3.63
-3.71
-4.02
-4.47
-4.99
-5.62
-6.34
-7.04
-7.48
-7.46
-6.90
-5.97
-5.03
-4.35
-4.08
-4.13
-4.33
-4.56
-4.81
-5.15
-5.61
-6.12
-6.51
-6.63
-6.42
-5.94
-5.36
-4.86
-4.60
-4.63
-4.98
-5.56
-6.26
-6.91
-7.33
-7.41
-7.10
-6.49
-5.71
-4.93
-4.31
-3.94
-3.86
-3.91
-3.95
-3.72
-3.14
-2.26
-1.32
-0.66
-0.52
-0.98
-1.87
-2.94
-3.94
-4.73
-5.25
-5.45
-5.28
-4.72
-3.92
-3.10
-2.58
-2.59
-3.19
-4.18
-5.26
-6.14
-6.55
-6.48
-6.04
-5.47
-5.06
-5.01
-5.36
-5.90
-6.35
-6.41
-6.02
-5.32
-4.64
-4.25
-4.26
-4.52
-4.82
-4.96
-4.87
-4.59
-4.20
-3.77
-3.33
-2.94
-2.67
-2.57
-2.64
-2.77
-2.86
-2.83
-2.73
-2.71
-2.88
-3.28
-3.79
-4.26
-4.52
-4.52
-4.32
-4.03
-3.76
-3.54
-3.36
-3.17
-2.98
-2.82
-2.77
-2.85
-3.05
-3.31
-3.49
-3.51
-3.33
-3.03
-2.74
-2.60
-2.65
-2.84
-3.05
-3.15
-3.13
-3.03
-2.95
-2.98
-3.14
-3.41
-3.67
-3.83
-3.80
-3.60
-3.29
-3.01
-2.85
-2.79
-2.76
-2.66
-2.48
-2.32
-2.32
-2.50
-2.75
-2.86
-2.63
-2.12
-1.57
-1.35
-1.63
-2.32
-3.06
-3.41
-3.18
-2.44
-1.56
-0.90
-0.75
-1.14
-1.91
-2.85
-3.72
-4.39
-4.73
-4.71
-4.33
-3.67
-2.86
-2.08
-1.52
-1.31
-1.46
-1.85
-2.29
-2.57
-2.59
-2.38
-2.10
-1.94
-2.03
-2.39
-2.90
-3.42
-3.79
-3.94
-3.84
-3.56
-3.19
-2.85
-2.70
-2.82
-3.23
-3.74
-4.14
-4.21
-3.95
-3.54
-3.22
-3.18
-3.40
-3.67
-3.70
-3.33
-2.64
-1.89
-1.37
-1.24
-1.47
-1.78
-1.97
-1.88
-1.52
-1.05
-0.63
-0.41
-0.36
-0.41
-0.49
-0.56
-0.64
-0.78
-1.00
-1.24
-1.46
-1.62
-1.79
-1.99
-2.17
-2.22
-2.01
-1.52
-0.94
-0.63
-0.88
-1.68
-2.76
-3.62
-3.84
-3.34
-2.36
-1.31
-0.57
-0.31
-0.46
-0.85
-1.27
-1.65
-1.91
-2.08
-2.20
-2.33
-2.49
-2.64
-2.70
-2.63
-2.49
-2.35
-2.33
-2.43
-2.52
-2.45
-2.13
-1.70
-1.38
-1.43
-1.84
-2.41
-2.82
-2.82
-2.44
-1.88
-1.49
-1.39
-1.60
-1.91
-2.17
-2.31
-2.36
-2.41
-2.47
-2.55
-2.57
-2.53
-2.43
-2.28
-2.08
-1.80
-1.48
-1.12
-0.84
-0.69
-0.72
-0.90
-1.17
-1.48
-1.73
-1.88
-1.86
-1.70
-1.48
-1.34
-1.35
-1.49
-1.65
-1.64
-1.45
-1.13
-0.88
-0.87
-1.14
-1.54
-1.87
-2.01
-1.94
-1.81
-1.72
-1.65
-1.55
-1.27
-0.83
-0.32
0.05
0.11
-0.19
-0.76
-1.39
-1.85
-1.96
-1.68
-1.10
-0.44
0.03
0.11
-0.27
-0.98
-1.74
-2.25
-2.38
-2.15
-1.82
-1.59
-1.52
-1.51
-1.31
-0.81
-0.08
0.58
0.87
0.62
-0.06
-0.82
-1.35
-1.50
-1.39
-1.26
-1.39
-1.76
-2.20
-2.45
-2.35
-1.98
-1.55
-1.29
-1.28
-1.40
-1.43
-1.16
-0.59
0.11
0.64
0.76
0.36
-0.42
-1.36
-2.18
-2.62
-2.63
-2.20
-1.53
-0.82
-0.33
-0.23
-0.55
-1.17
-1.83
-2.31
-2.43
-2.20
-1.72
-1.15
-0.57
0.01
0.56
1.04
1.29
1.17
0.62
-0.26
-1.16
-1.80
-1.93
-1.57
-0.90
-0.25
0.14
0.12
-0.28
-0.86
-1.43
-1.83
-2.07
-2.20
-2.32
-2.44
-2.48
-2.40
-2.14
-1.74
-1.29
-0.91
-0.68
-0.61
-0.65
-0.72
-0.78
-0.81
-0.89
-1.05
-1.29
-1.52
-1.60
-1.42
-0.97
-0.40
0.10
0.32
0.24
0.02
-0.10
0.07
0.49
0.94
1.13
0.89
0.28
-0.46
-1.07
-1.39
-1.39
-1.22
-0.94
-0.60
-0.24
0.06
0.18
0.00
-0.52
-1.20
-1.83
-2.17
-2.15
-1.91
-1.64
-1.49
-1.46
-1.46
-1.37
-1.21
-1.03
-0.91
-0.91
-0.95
-0.93
-0.79
-0.55
-0.29
-0.15
-0.25
-0.62
-1.22
-1.86
-2.33
-2.42
-2.08
-1.40
-0.66
-0.17
-0.13
-0.58
-1.31
-2.05
-2.56
-2.72
-2.52
-2.03
-1.33
-0.56
0.17
0.77
1.17
1.40
1.49
1.48
1.33
1.00
0.47
-0.19
-0.79
-1.15
-1.17
-0.90
-0.50
-0.12
0.11
0.23
0.23
0.16
-0.07
-0.49
-1.06
-1.62
-1.92
-1.76
-1.10
-0.14
0.83
1.47
1.56
1.11
0.28
-0.62
-1.34
-1.70
-1.74
-1.59
-1.38
-1.21
-1.04
-0.79
-0.40
0.07
0.49
0.69
0.58
0.23
-0.26
-0.69
-0.98
-1.09
-1.06
-0.90
-0.60
-0.19
0.29
0.70
0.96
0.97
0.81
0.57
0.38
0.32
0.32
0.37
0.38
0.33
0.19
-0.07
-0.46
-1.01
-1.66
-2.30
-2.74
-2.90
-2.69
-2.25
-1.75
-1.35
-1.16
-1.07
-0.90
-0.49
0.17
0.91
1.42
1.46
0.99
0.21
-0.52
-0.89
-0.73
-0.09
0.82
1.75
2.47
2.85
2.80
2.40
1.83
1.36
1.23
1.48
1.95
2.27
2.16
1.52
0.52
-0.53
-1.36
-1.87
-2.17
-2.41
-2.68
-2.92
-3.01
-2.84
-2.43
-1.94
-1.56
-1.43
-1.56
-1.85
-2.14
-2.28
-2.22
-1.97
-1.63
-1.27
-0.99
-0.82
-0.82
-0.97
-1.31
-1.79
-2.35
-2.89
-3.22
-3.21
-2.74
-1.91
-0.90
0.02
0.58
0.68
0.39
-0.07
-0.48
-0.66
-0.59
-0.37
-0.13
0.04
0.10
0.04
-0.08
-0.23
-0.36
-0.42
-0.39
-0.27
-0.12
0.06
0.21
0.34
0.44
0.52
0.56
0.53
0.39
0.14
-0.17
-0.49
-0.69
-0.73
-0.59
-0.30
0.07
0.45
0.75
0.91
0.86
0.56
0.07
-0.52
-1.01
-1.33
-1.41
-1.36
-1.32
-1.35
-1.45
-1.50
-1.38
-1.07
-0.66
-0.28
-0.01
0.15
0.29
0.49
0.75
0.96
1.06
0.96
0.70
0.38
0.13
0.04
0.15
0.40
0.65
0.78
0.63
0.15
-0.55
-1.24
-1.66
-1.65
-1.15
-0.35
0.47
1.00
1.07
0.69
0.04
-0.61
-1.03
-1.14
-1.00
-0.74
-0.54
-0.45
-0.44
-0.43
-0.37
-0.28
-0.24
-0.32
-0.54
-0.77
-0.87
-0.74
-0.39
0.03
0.28
0.23
-0.15
-0.66
-1.04
-1.09
-0.77
-0.25
0.19
0.28
-0.02
-0.60
-1.23
-1.69
-1.89
-1.78
-1.44
-0.90
-0.17
0.65
1.46
2.08
2.37
2.25
1.80
1.12
0.40
-0.17
-0.50
-0.54
-0.32
0.06
0.39
0.51
0.34
-0.08
-0.58
-0.95
-1.06
-0.92
-0.65
-0.43
-0.40
-0.55
-0.81
-1.00
-1.05
-0.86
-0.49
-0.06
0.30
0.46
0.40
0.16
-0.05
-0.12
0.05
0.33
0.55
0.61
0.47
0.29
0.16
0.16
0.14
-0.04
-0.47
-1.04
-1.53
-1.76
-1.60
-1.17
-0.60
-0.12
0.18
0.26
0.17
-0.02
-0.25
-0.40
-0.40
-0.18
0.25
0.80
1.35
1.73
1.87
1.65
1.09
0.25
-0.71
-1.57
-2.11
-2.21
-1.91
-1.31
-0.61
0.03
0.45
0.62
0.60
0.45
0.31
0.23
0.26
0.28
0.20
-0.01
-0.30
-0.48
-0.43
-0.15
0.19
0.35
0.18
-0.29
-0.83
-1.17
-1.17
-0.92
-0.62
-0.52
-0.69
-1.02
-1.31
-1.39
-1.27
-1.01
-0.78
-0.58
-0.42
-0.21
0.10
0.45
0.78
0.98
1.03
0.91
0.71
0.47
0.24
0.10
0.05
0.09
0.10
0.03
-0.19
-0.47
-0.69
-0.71
-0.43
0.06
0.68
1.28
1.75
2.05
2.15
2.05
1.72
1.20
0.51
-0.19
-0.79
-1.15
-1.21
-1.06
-0.80
-0.57
-0.41
-0.33
-0.24
-0.09
0.10
0.22
0.11
-0.27
-0.85
-1.39
-1.66
-1.51
-0.95
-0.14
0.74
1.49
2.01
2.20
2.04
1.53
0.75
-0.10
-0.84
-1.25
-1.30
-1.03
-0.60
-0.20
0.07
0.19
0.20
0.11
-0.08
-0.43
-0.94
-1.53
-2.05
-2.31
-2.26
-1.95
-1.59
-1.33
-1.25
-1.28
-1.24
-1.06
-0.71
-0.32
0.01
0.23
0.46
0.76
1.14
1.51
1.64
1.44
0.86
0.08
-0.68
-1.19
-1.31
-1.01
-0.36
0.47
1.27
1.78
1.89
1.57
1.04
0.58
0.43
0.68
1.17
1.66
1.87
1.71
1.20
0.56
-0.02
-0.43
-0.66
-0.80
-0.90
-0.99
-1.05
-1.04
-0.92
-0.69
-0.43
-0.20
-0.08
-0.06
-0.05
0.04
0.28
0.58
0.84
0.85
0.59
0.14
-0.29
-0.54
-0.59
-0.55
-0.65
-0.94
-1.35
-1.62
-1.53
-1.03
-0.26
0.50
1.06
1.29
1.26
1.03
0.71
0.34
-0.03
-0.30
-0.43
-0.36
-0.19
-0.06
-0.13
-0.39
-0.71
-0.92
-0.83
-0.47
0.11
0.67
1.04
1.07
0.79
0.32
-0.17
-0.54
-0.76
-0.83
-0.86
-0.87
-0.85
-0.76
-0.54
-0.25
0.02
0.14
0.10
-0.05
-0.17
-0.17
-0.04
0.15
0.34
0.48
0.59
0.68
0.76
0.80
0.78
0.65
0.43
0.09
-0.35
-0.87
-1.38
-1.77
-1.90
-1.69
-1.20
-0.58
-0.07
0.20
0.18
-0.07
-0.38
-0.66
-0.85
-0.99
-1.08
-1.08
-0.94
-0.59
-0.05
0.65
1.41
2.14
2.69
2.97
2.87
2.33
1.41
0.27
-0.85
-1.69
-2.09
-2.05
-1.71
-1.23
-0.78
-0.44
-0.22
-0.10
-0.09
-0.23
-0.50
-0.81
-1.00
-0.91
-0.47
0.23
0.92
1.34
1.32
0.94
0.40
-0.01
-0.16
-0.03
0.24
0.53
0.75
0.82
0.76
0.56
0.35
0.19
0.16
0.20
0.17
-0.03
-0.42
-0.81
-1.00
-0.84
-0.42
0.05
0.31
0.28
0.04
-0.20
-0.30
-0.29
-0.32
-0.53
-0.94
-1.35
-1.52
-1.22
-0.42
0.70
1.75
2.39
2.36
1.69
0.65
-0.41
-1.14
-1.43
-1.35
-1.16
-1.07
-1.13
-1.24
-1.18
-0.84
-0.21
0.49
1.02
1.20
1.07
0.81
0.69
0.88
1.33
1.83
2.08
1.92
1.38
0.64
-0.04
-0.48
-0.62
-0.58
-0.51
-0.59
-0.86
-1.23
-1.53
-1.54
-1.20
-0.54
0.20
0.76
0.95
0.69
0.11
-0.62
-1.26
-1.67
-1.75
-1.53
-1.09
-0.58
-0.20
-0.01
-0.06
-0.23
-0.42
-0.53
-0.52
-0.43
-0.34
-0.34
-0.44
-0.70
-1.08
-1.56
-2.01
-2.29
-2.27
-1.93
-1.38
-0.81
-0.43
-0.35
-0.51
-0.77
-0.95
-0.98
-0.89
-0.84
-0.98
-1.42
-2.12
-2.93
-3.62
-3.94
-3.80
-3.19
-2.28
-1.26
-0.34
0.32
0.66
0.60
0.10
-0.83
-2.09
-3.46
-4.71
-5.62
-6.05
-5.96
-5.34
-4.23
-2.67
-0.75
1.33
3.25
4.69
5.32
5.04
3.89
2.08
-0.09
-2.33
-4.39
-6.16
-7.59
-8.76
-9.66
-10.22
-10.22
-9.43
-7.79
-5.44
-2.74
-0.14
1.98
3.48
4.39
4.87
5.17
5.42
5.74
6.14
6.59
7.01
7.29
7.34
7.12
6.71
6.22
5.81
5.50
5.26
4.94
4.48
3.93
3.49
3.39
3.70
4.29
4.80
4.84
4.19
2.90
1.34
-0.11
-1.13
-1.67
-1.82
-1.80
-1.77
-1.76
-1.78
-1.81
-1.83
-1.80
-1.63
-1.20
-0.49
0.40
1.24
1.78
1.99
1.98
2.03
2.34
2.87
3.34
3.38
2.80
1.68
0.39
-0.67
-1.29
-1.50
-1.58
-1.78
-2.23
-2.78
-3.16
-3.07
-2.43
-1.36
-0.21
0.64
1.01
0.90
0.59
0.37
0.48
0.91
1.47
1.92
2.15
2.23
2.32
2.55
2.88
3.15
3.19
2.93
2.45
1.99
1.73
1.71
1.85
1.91
1.70
1.18
0.47
-0.22
-0.67
-0.76
-0.51
-0.02
0.54
0.97
1.17
1.04
0.57
-0.21
-1.14
-1.97
-2.43
-2.32
-1.65
-0.66
0.13
0.24
-0.64
-2.38
-4.37
-5.83
-6.11
-5.13
-3.45
-2.07
-1.77
-2.74
-4.38
-5.57
-5.22
-2.67
2.08
8.53
15.88
22.97
28.08
28.91
23.23
9.97
-9.63
-31.78
-51.14
-62.87
-64.52
-56.96
-43.65
-28.74
-15.36
-4.64
3.79
10.77
16.56
20.68
22.41
21.53
18.71
15.22
12.39
10.98
10.98
11.78
12.57
12.69
11.85
10.25
8.33
6.69
5.80
5.80
6.49
7.38
7.96
7.88
7.17
6.13
5.19
4.65
4.48
4.42
4.11
3.39
2.35
1.39
0.89
1.02
1.64
2.37
2.81
2.75
2.27
1.64
1.16
1.00
1.08
1.24
1.25
1.00
0.49
-0.15
-0.78
-1.24
-1.46
-1.45
-1.23
-0.93
-0.63
-0.44
-0.42
-0.59
-0.92
-1.28
-1.53
-1.49
-1.09
-0.38
0.40
0.94
0.99
0.46
-0.46
-1.42
-2.06
-2.21
-1.93
-1.49
-1.16
-1.05
-1.09
-1.06
-0.82
-0.32
0.32
0.91
1.33
1.53
1.60
1.54
1.34
0.92
0.32
-0.37
-0.92
-1.12
-0.89
-0.29
0.44
1.06
1.36
1.34
1.08
0.75
0.54
0.48
0.52
0.52
0.41
0.16
-0.19
-0.57
-0.92
-1.21
-1.46
-1.67
-1.79
-1.74
-1.41
-0.81
-0.09
0.52
0.80
0.60
0.05
-0.63
-1.14
-1.23
-0.89
-0.24
0.43
0.83
0.79
0.31
-0.43
-1.15
-1.58
-1.58
-1.19
-0.64
-0.14
0.10
0.10
-0.05
-0.22
-0.28
-0.27
-0.20
-0.08
0.08
0.31
0.54
0.70
0.67
0.49
0.23
0.08
0.15
0.45
0.82
1.08
1.10
0.81
0.33
-0.23
-0.77
-1.19
-1.48
-1.61
-1.57
-1.32
-0.91
-0.42
0.03
0.34
0.41
0.21
-0.18
-0.66
-1.08
-1.34
-1.40
-1.30
-1.09
-0.83
-0.54
-0.26
-0.01
0.20
0.34
0.40
0.37
0.26
0.05
-0.27
-0.65
-1.08
-1.48
-1.81
-1.97
-1.95
-1.69
-1.16
-0.38
0.59
1.49
2.03
1.95
1.19
0.02
-1.13
-1.80
-1.79
-1.19
-0.29
0.56
1.22
1.67
2.03
2.35
2.57
2.53
2.14
1.48
0.75
0.13
-0.31
-0.61
-0.89
-1.20
-1.46
-1.62
-1.60
-1.50
-1.38
-1.32
-1.26
-1.14
-0.87
-0.50
-0.19
-0.08
-0.25
-0.63
-1.10
-1.44
-1.54
-1.32
-0.79
-0.04
0.76
1.38
1.57
1.25
0.53
-0.30
-0.89
-1.03
-0.73
-0.22
0.21
0.38
0.30
0.09
-0.06
-0.11
-0.08
-0.10
-0.23
-0.45
-0.63
-0.68
-0.56
-0.32
-0.04
0.24
0.50
0.77
1.03
1.22
1.23
1.00
0.54
-0.04
-0.49
-0.66
-0.51
-0.14
0.16
0.19
-0.11
-0.58
-0.97
-1.07
-0.86
-0.58
-0.47
-0.66
-1.02
-1.27
-1.20
-0.82
-0.39
-0.23
-0.55
-1.21
-1.93
-2.30
-2.10
-1.36
-0.30
0.77
1.61
2.10
2.28
2.18
1.92
1.56
1.14
0.72
0.36
0.14
0.13
0.34
0.63
0.83
0.75
0.38
-0.13
-0.57
-0.71
-0.55
-0.20
0.14
0.30
0.27
0.11
-0.06
-0.20
-0.28
-0.38
-0.48
-0.60
-0.76
-0.98
-1.30
-1.66
-2.04
-2.26
-2.29
-2.06
-1.58
-0.89
-0.00
0.93
1.77
2.27
2.31
1.87
1.15
0.43
-0.05
-0.17
-0.03
0.19
0.30
0.26
0.16
0.12
0.21
0.34
0.40
0.22
-0.20
-0.74
-1.18
-1.35
-1.15
-0.73
-0.32
-0.09
-0.12
-0.28
-0.39
-0.30
0.00
0.38
0.71
0.85
0.84
0.71
0.58
0.56
0.67
0.90
1.10
1.17
0.97
0.47
-0.25
-0.96
-1.40
-1.41
-0.95
-0.24
0.42
0.69
0.40
-0.38
-1.38
-2.29
-2.81
-2.87
-2.52
-1.94
-1.29
-0.69
-0.17
0.25
0.53
0.60
0.43
0.08
-0.27
-0.42
-0.21
0.35
1.07
1.71
2.02
1.94
1.55
1.07
0.77
0.74
0.99
1.32
1.53
1.47
1.12
0.60
0.05
-0.42
-0.76
-1.00
-1.19
-1.30
-1.29
-1.07
-0.63
-0.08
0.45
0.77
0.83
0.68
0.44
0.25
0.10
-0.02
-0.19
-0.45
-0.81
-1.22
-1.59
-1.85
-1.90
-1.71
-1.32
-0.89
-0.60
-0.56
-0.73
-0.93
-0.96
-0.67
-0.12
0.54
1.09
1.45
1.60
1.64
1.63
1.53
1.27
0.81
0.19
-0.40
-0.77
-0.78
-0.49
-0.11
0.06
-0.09
-0.56
-1.05
-1.24
-0.93
-0.17
0.69
1.27
1.25
0.71
-0.08
-0.67
-0.77
-0.40
0.19
0.60
0.61
0.14
-0.52
-1.12
-1.44
-1.45
-1.29
-1.09
-0.93
-0.74
-0.46
-0.07
0.43
0.91
1.34
1.59
1.59
1.23
0.49
-0.53
-1.52
-2.13
-2.12
-1.49
-0.53
0.35
0.78
0.70
0.33
-0.01
-0.00
0.36
0.90
1.24
1.14
0.54
-0.36
-1.19
-1.68
-1.72
-1.51
-1.31
-1.33
-1.50
-1.59
-1.34
-0.64
0.31
1.18
1.63
1.54
1.01
0.30
-0.33
-0.74
-0.85
-0.68
-0.25
0.35
1.01
1.55
1.81
1.73
1.36
0.88
0.45
0.20
0.13
0.17
0.25
0.33
0.44
0.61
0.82
1.01
1.09
0.96
0.63
0.20
-0.19
-0.37
-0.31
-0.09
0.11
0.12
-0.10
-0.44
-0.73
-0.80
-0.62
-0.25
0.17
0.51
0.70
0.75
0.68
0.54
0.30
0.02
-0.30
-0.61
-0.85
-1.05
-1.18
-1.29
-1.37
-1.44
-1.49
-1.48
-1.38
-1.14
-0.78
-0.33
0.09
0.40
0.51
0.46
0.35
0.28
0.34
0.53
0.83
1.12
1.33
1.37
1.21
0.88
0.47
0.11
-0.06
0.01
0.25
0.53
0.67
0.56
0.22
-0.25
-0.69
-0.97
-1.07
-1.01
-0.83
-0.58
-0.31
-0.10
-0.07
-0.27
-0.76
-1.42
-2.07
-2.44
-2.35
-1.75
-0.74
0.42
1.46
2.07
2.16
1.73
1.00
0.30
-0.16
-0.22
0.03
0.44
0.77
0.88
0.70
0.33
-0.09
-0.42
-0.54
-0.48
-0.31
-0.16
-0.10
-0.12
-0.16
-0.05
0.20
0.55
0.78
0.74
0.42
-0.07
-0.50
-0.69
-0.57
-0.23
0.18
0.51
0.68
0.71
0.63
0.52
0.32
0.02
-0.42
-0.88
-1.25
-1.37
-1.16
-0.70
-0.13
0.35
0.65
0.78
0.78
0.70
0.51
0.18
-0.30
-0.79
-1.12
-1.13
-0.79
-0.22
0.38
0.78
0.89
0.67
0.25
-0.24
-0.61
-0.69
-0.43
0.12
0.73
1.11
0.97
0.27
-0.76
-1.72
-2.18
-1.96
-1.12
-0.03
0.93
1.49
1.58
1.34
0.93
0.51
0.11
-0.26
-0.64
-0.98
-1.19
-1.21
-1.02
-0.70
-0.33
-0.06
0.03
-0.06
-0.26
-0.38
-0.26
0.18
0.89
1.69
2.33
2.63
2.57
2.21
1.76
1.32
0.99
0.72
0.46
0.17
-0.13
-0.36
-0.55
-0.68
-0.84
-1.07
-1.36
-1.58
-1.64
-1.47
-1.11
-0.73
-0.48
-0.51
-0.76
-1.08
-1.24
-1.05
-0.54
0.20
0.88
1.28
1.22
0.75
0.05
-0.61
-0.97
-0.87
-0.30
0.55
1.39
1.88
1.82
1.19
0.14
-0.95
-1.78
-2.05
-1.82
-1.25
-0.69
-0.42
-0.54
-0.93
-1.32
-1.50
-1.36
-1.02
-0.66
-0.46
-0.42
-0.36
-0.10
0.45
1.15
1.74
1.98
1.81
1.42
1.04
0.87
0.83
0.76
0.54
0.17
-0.10
-0.07
0.34
0.94
1.48
1.69
1.57
1.24
0.90
0.65
0.44
0.19
-0.19
-0.68
-1.22
-1.74
-2.15
-2.38
-2.29
-1.81
-0.93
0.16
1.24
2.05
2.47
2.49
2.16
1.60
0.90
0.22
-0.29
-0.56
-0.57
-0.51
-0.55
-0.87
-1.39
-1.87
-2.04
-1.73
-1.03
-0.24
0.29
0.39
0.12
-0.24
-0.44
-0.33
0.03
0.42
0.65
0.59
0.31
-0.10
-0.49
-0.76
-0.85
-0.78
-0.59
-0.32
-0.11
0.02
-0.02
-0.28
-0.75
-1.41
-2.11
-2.63
-2.73
-2.25
-1.20
0.18
1.49
2.36
2.57
2.16
1.38
0.56
-0.03
-0.26
-0.15
0.16
0.55
0.89
1.17
1.42
1.64
1.77
1.70
1.33
0.66
-0.10
-0.71
-1.00
-0.90
-0.58
-0.19
0.16
0.51
0.91
1.41
1.86
2.06
1.86
1.25
0.40
-0.47
-1.12
-1.46
-1.48
-1.19
-0.65
0.11
0.91
1.60
1.99
1.99
1.65
1.09
0.48
-0.10
-0.60
-1.05
-1.42
-1.69
-1.82
-1.76
-1.52
-1.16
-0.77
-0.45
-0.28
-0.22
-0.29
-0.42
-0.60
-0.82
-1.06
-1.30
-1.46
-1.49
-1.32
-0.96
-0.51
-0.10
0.15
0.22
0.15
0.03
-0.08
-0.13
-0.09
0.09
0.43
0.96
1.57
2.07
2.24
1.92
1.17
0.20
-0.63
-1.02
-0.92
-0.44
0.07
0.35
0.29
-0.02
-0.34
-0.47
-0.32
0.02
0.42
0.71
0.87
0.91
0.86
0.74
0.48
0.06
-0.50
-0.97
-1.11
-0.70
0.20
1.28
2.12
2.30
1.76
0.71
-0.40
-1.22
-1.56
-1.52
-1.33
-1.12
-0.96
-0.75
-0.47
-0.18
-0.01
-0.09
-0.41
-0.80
-1.04
-1.01
-0.73
-0.37
-0.14
-0.13
-0.29
-0.42
-0.37
-0.08
0.31
0.57
0.52
0.16
-0.32
-0.65
-0.64
-0.34
0.03
0.19
-0.01
-0.44
-0.84
-0.93
-0.64
-0.09
0.45
0.80
0.93
0.95
1.01
1.14
1.32
1.38
1.27
0.95
0.52
0.07
-0.29
-0.48
-0.51
-0.36
-0.13
0.10
0.24
0.25
0.22
0.23
0.38
0.57
0.70
0.59
0.18
-0.44
-1.11
-1.58
-1.71
-1.45
-0.94
-0.31
0.23
0.59
0.69
0.54
0.20
-0.27
-0.69
-0.99
-1.06
-0.92
-0.64
-0.34
-0.17
-0.14
-0.24
-0.30
-0.24
0.02
0.41
0.81
1.15
1.39
1.58
1.72
1.83
1.84
1.75
1.56
1.31
1.11
0.91
0.71
0.41
0.00
-0.49
-0.94
-1.23
-1.33
-1.23
-1.09
-1.00
-1.05
-1.17
-1.26
-1.18
-0.88
-0.49
-0.17
-0.16
-0.45
-0.90
-1.17
-1.01
-0.39
0.56
1.37
1.74
1.48
0.75
-0.15
-0.87
-1.20
-1.16
-0.89
-0.56
-0.20
0.20
0.75
1.37
1.87
2.01
1.56
0.56
-0.74
-1.90
-2.50
-2.33
-1.45
-0.18
1.09
2.01
2.42
2.32
1.89
1.29
0.66
0.15
-0.24
-0.48
-0.61
-0.64
-0.61
-0.59
-0.61
-0.74
-0.90
-1.04
-1.01
-0.78
-0.39
0.06
0.39
0.54
0.50
0.37
0.21
0.11
0.06
0.05
0.01
-0.05
-0.08
-0.06
0.06
0.28
0.54
0.83
1.08
1.29
1.42
1.42
1.23
0.87
0.43
0.04
-0.09
0.04
0.38
0.68
0.75
0.50
0.03
-0.50
-0.98
-1.36
-1.71
-1.97
-2.07
-1.82
-1.22
-0.37
0.44
0.95
1.08
0.90
0.57
0.22
-0.13
-0.47
-0.81
-1.06
-1.09
-0.80
-0.30
0.27
0.72
0.92
0.90
0.71
0.50
0.32
0.24
0.24
0.32
0.43
0.51
0.50
0.36
0.12
-0.23
-0.60
-0.94
-1.18
-1.23
-1.04
-0.58
0.04
0.68
1.11
1.14
0.76
0.02
-0.81
-1.52
-1.86
-1.78
-1.31
-0.59
0.15
0.79
1.17
1.26
1.04
0.55
-0.09
-0.74
-1.19
-1.32
-1.04
-0.47
0.19
0.63
0.64
0.24
-0.39
-0.93
-1.18
-1.07
-0.75
-0.37
-0.09
0.02
-0.02
-0.21
-0.47
-0.75
-0.92
-0.85
-0.49
0.17
0.94
1.58
1.91
1.87
1.54
1.09
0.63
0.22
-0.14
-0.48
-0.70
-0.74
-0.50
-0.00
0.60
1.11
1.35
1.28
0.95
0.55
0.16
-0.17
-0.53
-0.91
-1.31
-1.60
-1.67
-1.45
-1.00
-0.51
-0.17
-0.06
-0.14
-0.28
-0.36
-0.36
-0.31
-0.32
-0.48
-0.79
-1.17
-1.43
-1.50
-1.44
-1.43
-1.55
-1.85
-2.31
-2.82
-3.25
-3.48
-3.51
-3.45
-3.39
-3.22
-2.80
-2.23
-1.66
-1.16
-0.66
-0.19
0.13
0.13
-0.03
-0.17
-0.24
-0.20
0.22
1.28
2.57
3.22
2.43
0.42
-2.14
-4.75
-7.10
-8.59
-8.64
-7.46
-5.65
-3.56
-0.01
6.52
16.72
29.97
45.08
60.10
71.96
77.91
72.38
54.87
30.37
4.83
-18.55
-39.97
-57.49
-67.97
-66.37
-49.98
-19.53
19.36
57.06
80.21
81.64
65.39
41.64
19.40
2.56
-8.76
-16.49
-22.72
-28.15
-31.57
-31.35
-27.59
-21.95
-16.89
-13.81
-13.11
-14.45
-16.82
-18.45
-17.81
-14.85
-10.79
-7.27
-5.24
-4.94
-6.03
-7.73
-8.90
-8.59
-6.82
-4.37
-2.22
-0.96
-0.70
-1.20
-2.04
-2.59
-2.41
-1.52
-0.33
0.72
1.33
1.45
1.21
0.83
0.58
0.58
0.85
1.24
1.64
1.96
2.17
2.32
2.42
2.51
2.60
2.69
2.77
2.85
2.94
3.03
3.13
3.15
3.14
3.13
3.13
3.13
3.13
3.14
3.15
3.16
3.19
3.22
3.27
3.33
3.39
3.45
3.52
3.60
3.67
3.76
3.86
3.98
4.10
4.23
4.36
4.51
4.66
4.82
5.00
5.18
5.38
5.60
5.83
6.06
6.31
6.58
6.87
7.16
7.49
7.83
8.19
8.58
8.99
9.42
9.87
10.33
10.81
11.31
11.80
12.28
12.77
13.24
13.69
14.13
14.56
14.97
15.39
15.81
16.24
16.70
17.18
17.68
18.20
18.75
19.30
19.87
20.45
21.02
21.58
22.13
22.65
23.13
23.56
23.92
24.19
24.36
24.40
24.29
24.00
23.49
22.73
21.68
20.32
18.62
16.56
14.09
11.18
7.78
3.81
-0.79
-6.07
-12.08
-18.84
-26.41
-34.84
-44.18
-54.53
-66.01
-78.76
-92.87
-108.45
-125.53
-144.12
-164.19
-185.53
-207.83
-230.62
-253.19
-274.59
-293.58
-308.81
-318.72
-322.23
-318.36
-306.45
-286.53
-259.28
-226.13
-188.94
-149.92
-111.20
-74.65
-41.59
-12.90
11.17
30.89
46.81
59.75
70.39
79.39
87.16
93.82
99.37
103.70
106.81
108.62
109.17
108.55
106.89
104.23
100.65
96.32
91.36
86.07
80.72
75.57
70.63
65.57
60.05
53.53
45.89
37.18
27.98
19.01
11.11
4.80
0.13
-3.10
-5.35
-6.71
-7.06
-5.70
-1.79
5.14
15.12
27.25
40.34
53.04
64.67
75.07
85.19
96.20
109.42
126.35
147.99
174.56
204.43
234.54
259.98
275.66
278.16
266.76
244.17
214.70
182.90
151.47
121.60
93.42
67.28
44.63
27.26
16.66
12.90
14.87
20.14
26.04
30.33
31.32
28.44
21.91
13.16
3.40
-5.80
-13.77
-20.73
-27.15
-33.44
-39.24
-43.76
-45.22
-42.82
-36.65
-28.16
-20.00
-14.73
-14.24
-18.47
-26.45
-35.84
-44.75
-51.92
-56.74
-58.97
-58.27
-54.56
-47.42
-37.74
-26.95
-16.80
-8.52
-2.64
0.67
1.63
-0.61
-6.47
-15.88
-27.35
-38.27
-45.98
-48.86
-47.36
-42.53
-36.19
-29.21
-21.71
-13.34
-4.33
4.03
10.15
11.65
7.44
-2.44
-16.20
-31.10
-44.11
-52.65
-55.58
-52.57
-44.50
-32.69
-19.34
-7.30
0.57
2.40
-0.82
-6.04
-8.27
-3.89
7.35
21.45
31.90
33.60
25.21
10.70
-3.60
-11.84
-12.22
-7.12
-1.26
0.94
-1.48
-6.63
-10.65
-11.05
-7.51
-1.97
2.80
5.53
6.56
7.53
9.11
11.01
11.63
9.55
4.69
-1.98
-8.11
-12.04
-12.52
-9.70
-3.97
3.80
12.13
19.35
23.26
22.79
17.51
9.14
0.10
-6.76
-9.35
-7.44
-2.24
3.10
5.92
4.00
-2.60
-12.10
-21.66
-28.38
-31.14
-29.85
-26.08
-21.01
-15.62
-9.83
-3.29
3.54
9.58
12.60
11.40
5.72
-2.68
-11.26
-17.38
-19.33
-17.29
-12.11
-5.83
-0.02
3.70
4.73
3.21
0.10
-2.67
-3.79
-2.23
0.97
4.18
5.56
4.72
3.01
2.25
4.02
7.40
10.42
10.43
6.44
-0.94
-9.98
-18.35
-25.02
-28.99
-30.00
-27.23
-20.76
-11.77
-2.76
3.05
3.97
0.35
-4.69
-7.86
-6.91
-1.71
6.08
14.44
21.62
27.34
30.76
30.96
27.09
19.80
11.69
6.15
5.70
8.84
11.17
7.01
-6.21
-26.39
-47.62
-62.54
-66.76
-59.49
-43.76
-23.33
-2.34
15.68
27.58
30.35
23.18
8.51
-7.44
-17.64
-17.08
-5.32
13.68
33.88
49.36
57.67
58.39
52.92
43.23
31.79
21.32
14.33
12.61
15.09
19.20
21.04
18.06
9.85
-2.17
-15.25
-27.30
-36.62
-42.84
-45.33
-44.18
-39.84
-33.62
-27.88
-24.93
-26.59
-32.50
-40.91
-48.73
-53.44
-53.39
-47.99
-38.05
-24.29
-7.99
9.51
25.33
35.86
37.97
30.85
17.90
5.30
-0.21
4.37
17.12
31.78
41.70
43.71
39.08
33.00
30.07
32.35
38.08
44.01
47.51
47.86
46.25
43.41
39.80
34.66
28.14
21.20
15.57
12.63
12.04
12.24
10.47
5.54
-2.28
-10.89
-17.48
-20.60
-20.82
-20.80
-23.21
-30.20
-41.66
-55.46
-67.89
-74.74
-73.26
-62.89
-46.83
-30.11
-18.28
-14.55
-18.86
-28.28
-38.26
-45.47
-47.73
-45.10
-38.14
-28.27
-17.13
-6.77
0.18
2.70
1.40
-0.46
0.60
6.68
16.88
27.94
36.26
39.17
37.25
32.52
27.69
24.30
22.37
20.89
18.64
15.57
12.19
10.00
10.00
12.88
18.48
25.58
32.54
37.15
38.20
34.61
26.85
16.43
6.19
-0.43
-1.20
4.14
12.22
18.20
17.12
6.85
-11.25
-33.06
-53.05
-67.23
-73.34
-71.70
-63.55
-51.44
-38.24
-26.92
-20.18
-18.64
-20.71
-22.35
-19.48
-9.59
6.56
25.70
43.53
56.06
61.79
60.83
55.08
47.04
39.55
34.71
33.21
34.39
35.67
34.69
29.43
19.88
7.54
-5.56
-17.12
-26.07
-31.99
-35.92
-38.85
-42.53
-47.83
-54.39
-60.77
-63.98
-61.45
-51.63
-35.35
-15.00
5.54
22.62
33.71
37.49
34.78
27.51
18.94
12.02
9.11
10.80
16.02
22.69
27.75
29.54
27.05
21.22
14.10
8.20
5.74
7.30
11.95
16.32
17.07
11.39
-0.49
-15.43
-28.76
-35.92
-35.01
-26.80
-14.87
-3.00
5.53
9.25
8.75
5.40
1.44
-1.69
-2.67
-1.52
1.06
3.40
3.80
1.92
-1.79
-4.92
-5.57
-2.60
2.82
8.07
10.35
7.95
1.85
-5.39
-10.30
-10.98
-7.42
-1.61
3.94
7.71
9.18
9.39
8.68
7.18
4.59
1.32
-1.14
-1.14
2.43
7.74
11.36
9.23
0.19
-13.37
-26.15
-32.45
-30.03
-20.18
-7.79
2.73
9.09
12.58
16.37
22.53
30.60
37.01
37.94
30.86
16.78
-0.97
-18.01
-30.72
-38.03
-39.93
-37.87
-32.88
-25.91
-17.14
-6.94
3.53
13.01
19.31
21.19
17.93
10.67
0.99
-8.85
-16.61
-21.13
-21.47
-17.86
-10.65
-1.19
9.15
18.93
26.79
32.46
35.33
35.42
31.52
22.76
8.56
-9.79
-28.51
-43.11
-49.30
-45.96
-34.67
-19.82
-5.71
4.76
10.58
12.87
12.57
10.63
6.72
1.14
-5.79
-13.15
-19.50
-24.07
-25.99
-24.77
-19.16
-8.70
6.16
23.21
38.60
48.77
51.10
46.22
36.33
25.17
15.45
8.20
3.42
0.36
-0.95
-0.48
2.59
7.74
13.72
18.78
21.09
20.25
16.65
11.40
4.60
-3.91
-15.11
-29.21
-44.22
-56.27
-60.43
-53.82
-36.52
-13.16
9.58
25.52
31.75
29.79
23.45
17.04
12.09
7.92
2.10
-6.81
-17.60
-26.74
-30.02
-25.96
-15.75
-4.11
3.95
5.69
2.12
-2.49
-3.33
2.21
11.83
20.25
20.91
10.60
-8.41
-28.92
-41.86
-41.54
-27.61
-6.20
14.24
26.72
29.40
25.75
21.25
20.25
22.76
25.61
24.29
16.85
5.29
-5.43
-10.22
-7.78
-0.30
6.67
8.28
3.05
-5.77
-12.33
-11.87
-3.41
8.10
15.49
12.22
-2.70
-24.26
-43.34
-51.38
-45.25
-27.60
-6.17
11.50
21.00
22.96
21.22
19.17
18.07
15.88
10.07
-0.50
-13.47
-24.33
-28.41
-23.61
-12.35
0.72
10.18
13.42
11.52
9.00
10.64
18.56
31.25
43.20
48.88
44.35
29.82
8.19
-16.06
-38.49
-56.15
-66.55
-68.48
-61.33
-46.70
-27.77
-9.02
5.15
12.70
13.54
9.98
4.34
-1.28
-6.42
-10.96
-14.30
-15.70
-13.93
-8.72
-0.66
7.99
15.01
18.75
18.94
17.00
14.22
12.03
10.05
7.47
3.65
-0.43
-2.15
1.17
10.55
22.96
33.11
35.15
26.54
9.12
-11.47
-28.21
-36.46
-34.47
-24.14
-8.57
8.23
22.58
31.53
33.21
27.92
17.66
6.62
-1.61
-5.13
-4.84
-3.37
-2.72
-3.45
-3.46
-0.52
6.37
15.05
21.39
21.45
13.79
1.28
-10.78
-16.69
-14.15
-4.72
6.88
15.72
19.44
18.57
16.05
13.59
11.38
7.94
2.67
-3.18
-6.82
-5.78
-1.42
1.98
-1.51
-15.07
-37.32
-62.31
-82.12
-90.53
-85.16
-68.08
-43.83
-18.85
0.84
10.57
8.21
-5.17
-25.16
-44.76
-57.13
-57.51
-45.04
-22.54
3.96
27.05
41.25
43.99
36.96
25.05
14.45
9.45
11.20
17.90
26.18
33.74
39.65
44.69
48.92
51.82
52.20
49.91
45.81
41.21
37.32
33.09
27.06
17.58
4.86
-9.70
-24.13
-36.59
-45.99
-51.21
-51.60
-46.18
-35.59
-22.29
-9.72
-0.77
3.77
5.49
7.29
10.99
16.60
21.73
23.08
18.94
9.67
-1.63
-10.95
-14.59
-11.05
-0.89
13.42
28.26
40.55
47.54
48.41
42.75
31.53
16.43
0.55
-12.17
-18.42
-16.76
-10.23
-4.44
-5.72
-17.32
-37.72
-61.04
-79.36
-86.63
-80.42
-62.91
-38.78
-14.14
5.41
16.37
17.77
12.14
4.36
0.42
4.33
16.49
33.18
48.56
57.57
57.60
50.36
39.46
29.40
23.27
22.59
26.99
34.46
42.36
47.08
46.20
38.17
23.73
5.48
-12.93
-27.46
-35.56
-36.46
-32.43
-26.88
-23.89
-25.63
-31.67
-39.51
-45.20
-45.91
-40.45
-30.05
-16.91
-3.97
6.51
13.33
15.86
14.89
11.41
7.42
4.56
3.96
5.53
8.20
11.03
12.73
13.35
12.76
11.14
8.22
3.73
-2.09
-8.40
-13.18
-14.97
-12.71
-7.25
-0.33
5.94
10.15
12.19
12.59
12.36
11.68
10.73
9.40
8.06
7.63
8.43
10.43
12.00
11.82
8.70
2.96
-4.20
-11.56
-17.57
-21.82
-23.63
-23.14
-20.39
-16.19
-11.73
-8.34
-7.40
-8.98
-12.67
-16.84
-19.71
-19.33
-14.72
-6.03
5.16
15.76
23.12
25.47
23.77
20.77
19.93
23.53
31.12
40.03
45.96
46.14
39.40
27.28
13.10
0.23
-8.47
-12.35
-12.23
-11.14
-12.08
-17.29
-26.50
-37.48
-47.48
-54.03
-56.86
-56.55
-54.50
-50.91
-45.53
-37.72
-27.32
-15.87
-5.14
2.86
7.67
9.51
9.48
8.71
8.18
8.74
10.35
12.99
15.55
17.12
17.13
15.87
14.51
13.95
15.02
17.05
19.38
20.89
21.32
20.85
19.90
19.04
17.94
16.62
14.30
11.03
7.10
3.73
2.63
4.69
9.79
15.16
17.51
13.56
2.71
-12.87
-29.06
-41.13
-46.62
-45.03
-38.37
-28.82
-18.43
-8.33
0.60
6.77
8.88
5.36
-3.44
-15.70
-27.92
-36.60
-39.23
-35.01
-25.48
-12.68
0.70
12.73
21.10
23.82
19.41
7.92
-7.47
-21.79
-29.47
-27.96
-18.46
-5.63
5.09
10.76
11.70
11.05
11.72
15.02
19.36
22.14
22.01
19.34
16.36
14.99
16.04
18.52
21.04
22.21
21.47
19.09
15.31
10.53
4.68
-1.42
-6.72
-9.43
-7.59
-0.66
10.06
21.18
29.12
31.41
28.50
22.89
17.78
15.20
14.61
13.80
9.82
2.07
-7.79
-16.36
-20.18
-18.09
-11.65
-4.42
0.24
0.42
-2.98
-7.91
-12.14
-14.28
-14.71
-14.42
-14.72
-15.81
-17.38
-18.47
-17.89
-15.10
-10.19
-4.44
0.57
3.23
3.30
1.31
-1.54
-3.88
-5.31
-5.47
-4.76
-2.91
0.19
4.70
10.42
16.52
21.94
25.24
25.97
23.87
19.90
14.82
9.24
3.78
-1.33
-5.43
-8.49
-10.12
-10.70
-10.57
-10.31
-10.55
-10.93
-11.05
-9.88
-7.25
-3.30
0.49
2.70
2.57
0.08
-3.30
-6.45
-7.97
-7.35
-4.54
-0.23
4.57
9.26
13.40
17.94
23.55
30.73
37.74
41.25
37.28
23.42
1.78
-22.06
-39.77
-45.14
-36.43
-17.65
3.49
19.95
27.95
29.24
28.03
28.94
33.11
38.51
41.24
38.12
29.35
17.46
7.11
1.46
1.38
5.00
9.01
10.93
9.71
6.48
2.49
-1.12
-4.55
-8.23
-12.58
-17.85
-23.82
-30.89
-38.78
-47.60
-56.53
-64.34
-69.08
-68.56
-61.81
-48.85
-32.21
-15.33
-2.35
4.03
3.13
-3.67
-13.50
-24.01
-33.20
-40.57
-45.44
-46.75
-42.87
-32.49
-16.71
1.38
16.75
25.37
25.40
18.57
9.23
2.42
1.88
7.57
17.05
25.92
30.98
30.79
26.15
18.84
10.12
1.29
-6.72
-11.74
-11.85
-5.74
5.95
20.59
35.16
46.86
55.08
60.02
62.60
62.52
58.71
50.14
36.75
20.82
5.25
-6.58
-13.15
-14.66
-13.02
-10.65
-8.78
-7.62
-5.73
-2.24
3.27
9.35
13.90
15.08
11.94
4.90
-5.15
-16.51
-27.69
-36.96
-43.01
-45.39
-44.28
-40.95
-36.53
-32.51
-29.69
-28.61
-28.85
-28.99
-27.61
-23.52
-17.35
-10.71
-6.25
-5.34
-7.48
-10.29
-11.02
-8.96
-5.30
-3.41
-5.45
-11.32
-17.91
-20.81
-17.26
-7.34
5.40
16.62
22.74
23.12
19.61
15.41
13.47
14.56
17.90
21.39
23.53
23.19
20.16
15.06
8.79
3.24
0.18
1.59
7.77
17.62
28.58
38.08
44.64
47.79
48.65
47.75
45.45
40.92
33.44
22.78
9.55
-3.98
-15.64
-22.70
-23.97
-19.46
-11.13
-2.12
4.90
8.44
9.65
10.37
13.02
17.84
23.36
26.75
25.32
18.79
8.79
-0.81
-7.07
-8.69
-7.23
-5.53
-5.78
-8.71
-12.62
-15.73
-16.86
-16.95
-17.78
-20.89
-26.65
-33.72
-40.45
-45.10
-47.64
-48.80
-49.66
-50.44
-49.98
-47.10
-40.79
-32.03
-22.62
-15.01
-10.29
-8.07
-6.87
-5.38
-4.05
-3.90
-6.49
-11.32
-16.29
-17.97
-13.65
-3.53
9.90
22.39
30.81
33.63
31.77
27.35
22.73
19.97
19.58
21.49
24.42
27.09
28.11
26.83
23.41
18.33
12.77
7.24
2.46
-1.55
-4.54
-6.32
-6.47
-4.02
1.39
10.23
21.56
34.13
45.72
54.20
57.77
55.46
47.89
36.09
22.38
8.41
-4.39
-15.58
-25.44
-33.78
-40.30
-43.87
-44.28
-41.88
-38.59
-36.56
-37.09
-40.47
-45.25
-49.88
-52.69
-53.22
-51.13
-46.46
-39.40
-30.11
-19.98
-10.51
-3.49
0.68
2.67
4.39
8.06
14.71
24.20
34.32
42.69
47.06
47.07
43.70
38.79
33.90
29.12
24.27
18.62
12.96
8.63
7.21
9.71
15.57
23.40
30.89
36.77
40.06
40.83
38.94
34.23
26.92
17.68
8.49
1.16
-2.32
-1.49
2.56
7.68
11.08
11.06
7.21
1.35
-4.42
-7.82
-8.19
-6.17
-2.98
-0.28
1.10
0.07
-3.74
-10.69
-20.16
-30.77
-40.88
-48.67
-53.50
-55.31
-55.40
-55.02
-55.23
-55.82
-55.05
-51.07
-42.50
-30.20
-16.70
-5.72
0.28
1.06
-1.13
-3.05
-3.14
-1.42
-0.04
-0.34
-2.00
-2.44
1.54
11.16
25.26
39.78
50.71
55.00
52.41
44.78
35.23
26.85
21.39
19.62
20.71
23.63
26.90
29.14
29.50
27.68
24.39
20.80
18.86
19.55
22.77
26.77
28.97
27.62
22.41
15.36
8.67
4.42
2.73
2.39
1.37
-2.17
-8.36
-16.47
-24.21
-30.13
-33.44
-34.90
-35.64
-35.98
-35.55
-32.81
-27.39
-20.20
-14.13
-11.97
-15.19
-23.00
-32.60
-41.51
-47.91
-52.13
-54.93
-56.40
-55.26
-49.41
-38.12
-22.50
-6.49
5.77
11.10
9.48
3.63
-2.32
-4.90
-3.49
0.70
4.74
6.95
7.20
7.31
9.51
14.41
21.25
27.61
31.89
33.29
32.63
31.03
29.30
28.04
27.11
27.21
28.95
32.87
37.96
41.95
41.95
35.81
24.22
9.53
-4.24
-14.26
-19.28
-20.00
-17.85
-13.21
-6.20
3.96
16.48
29.62
40.34
46.10
45.44
38.29
26.34
10.99
-5.65
-22.09
-36.56
-47.73
-54.83
-57.07
-54.22
-45.47
-30.93
-11.37
10.67
31.61
47.33
54.58
52.51
42.11
26.79
9.83
-5.84
-18.75
-28.76
-35.93
-40.68
-42.50
-41.43
-37.50
-31.76
-25.36
-19.70
-16.21
-15.52
-18.13
-23.31
-30.12
-36.45
-40.05
-39.09
-32.94
-23.22
-12.36
-3.71
0.91
0.96
-2.04
-5.70
-7.62
-5.95
-1.08
5.84
12.34
16.74
18.20
17.45
16.05
15.06
15.45
16.81
18.87
20.69
21.70
21.48
19.86
17.66
15.84
16.20
19.62
26.07
33.71
39.85
42.06
39.17
32.39
23.56
15.19
8.35
3.32
-0.60
-4.15
-6.73
-7.48
-4.53
2.87
14.43
27.89
39.94
47.29
47.71
41.54
30.25
17.06
4.49
-5.58
-12.75
-17.82
-21.30
-23.56
-23.63
-21.14
-16.10
-9.99
-4.62
-1.64
-1.77
-4.31
-8.76
-14.22
-20.98
-28.96
-37.75
-46.08
-51.71
-53.12
-49.45
-42.13
-33.53
-26.36
-22.00
-20.24
-19.95
-19.55
-18.70
-17.51
-16.92
-16.90
-16.66
-14.80
-10.22
-3.82
2.77
6.90
7.48
4.85
1.32
-0.45
1.32
7.25
15.62
24.33
30.80
33.59
32.55
29.03
25.08
22.22
21.48
22.14
23.32
23.76
22.84
20.33
16.30
11.58
7.04
4.60
5.51
10.11
16.94
23.09
25.92
24.25
19.81
15.10
12.85
13.41
15.01
14.45
8.75
-2.46
-17.41
-31.94
-42.48
-46.79
-45.21
-39.67
-32.33
-25.29
-19.25
-14.99
-12.72
-13.05
-15.76
-20.07
-24.65
-27.80
-29.23
-28.86
-27.50
-25.45
-22.51
-18.04
-11.96
-5.11
1.85
7.82
13.04
17.83
22.56
27.05
30.52
32.65
33.43
34.34
36.63
41.41
48.22
55.19
59.77
59.20
52.22
38.97
21.81
3.54
-12.90
-26.02
-35.41
-40.85
-42.56
-40.16
-34.53
-27.10
-20.66
-17.33
-17.69
-20.43
-22.49
-21.97
-17.89
-11.42
-4.29
2.03
6.97
10.78
13.65
16.22
18.57
21.40
24.98
29.20
32.83
34.01
31.49
25.22
17.23
9.45
3.31
-1.86
-7.40
-13.65
-19.81
-23.68
-24.20
-22.06
-20.23
-21.67
-27.67
-36.77
-45.19
-49.87
-48.85
-42.74
-32.96
-21.16
-8.30
4.78
16.92
27.35
35.18
40.84
44.80
47.37
48.00
45.73
40.28
32.28
23.72
15.83
9.10
2.61
-4.76
-12.55
-19.79
-25.24
-29.21
-32.79
-37.42
-42.79
-47.02
-47.59
-42.90
-34.14
-23.68
-14.33
-6.81
-0.60
5.37
10.97
14.52
14.59
11.18
6.75
4.15
5.12
8.55
11.49
11.17
6.33
-1.69
-10.85
-18.78
-24.18
-26.29
-24.05
-16.53
-3.16
13.90
30.73
41.97
44.12
36.83
23.39
9.47
-0.44
-4.07
-2.81
0.61
3.21
3.79
3.25
3.31
5.29
8.58
11.86
13.63
14.03
14.12
15.06
17.19
19.03
19.08
16.00
10.62
4.76
0.58
-1.23
-1.89
-3.10
-6.61
-11.54
-15.56
-15.55
-10.29
-1.30
7.71
12.76
12.23
7.10
0.94
-2.91
-2.59
1.05
5.37
8.23
8.31
6.50
3.99
1.82
-0.45
-3.79
-8.77
-14.69
-19.15
-19.40
-13.28
-1.22
13.94
27.33
34.18
32.29
22.25
8.02
-5.87
-15.85
-21.08
-22.75
-22.86
-22.63
-21.62
-18.53
-12.16
-3.60
4.41
8.08
4.94
-4.35
-16.65
-27.08
-32.24
-31.08
-25.82
-19.70
-15.09
-12.30
-9.86
-5.88
0.37
7.16
11.87
12.03
7.36
0.20
-5.92
-7.45
-3.18
5.69
15.77
23.61
27.24
26.97
24.96
23.13
22.31
21.04
17.24
9.21
-2.55
-15.18
-25.11
-28.76
-24.68
-13.56
1.45
15.95
25.96
28.84
24.33
13.94
1.28
-9.95
-16.44
-17.06
-13.07
-7.39
-3.57
-3.10
-5.36
-7.34
-6.43
-1.74
4.91
10.00
11.09
7.72
2.62
-0.99
-0.75
2.69
6.64
8.06
4.88
-2.73
-13.50
-24.97
-34.87
-40.86
-41.68
-37.38
-28.95
-18.89
-8.96
-0.70
6.25
12.45
18.46
24.18
28.74
31.73
32.80
33.09
33.46
34.87
37.48
40.92
44.39
46.33
45.26
39.19
27.63
11.71
-5.21
-19.27
-27.87
-30.00
-27.36
-21.88
-16.05
-11.43
-9.64
-11.97
-18.41
-27.45
-34.67
-35.34
-25.87
-7.56
13.94
30.52
35.89
28.86
13.39
-2.96
-13.86
-15.99
-10.21
0.38
11.80
20.28
23.27
18.86
7.23
-9.60
-27.06
-39.95
-44.44
-39.38
-27.70
-14.18
-4.24
-0.97
-5.15
-15.03
-27.02
-37.28
-42.03
-39.06
-27.90
-11.15
6.88
21.60
30.13
32.34
30.18
26.85
24.75
25.54
29.34
35.73
43.36
49.90
52.58
48.19
35.94
17.67
-1.32
-15.14
-19.70
-14.99
-5.42
3.12
5.32
-0.11
-11.11
-23.31
-32.62
-37.09
-36.50
-32.19
-24.80
-15.19
-4.29
5.49
11.00
9.71
1.12
-11.70
-23.79
-29.77
-27.47
-18.42
-7.25
1.23
4.83
4.14
2.32
1.60
2.78
4.42
5.25
5.35
6.42
10.67
18.21
26.56
31.08
28.51
18.84
5.90
-4.35
-7.67
-3.09
6.23
15.84
21.87
23.16
20.52
14.87
6.55
-5.32
-20.25
-35.96
-47.97
-52.10
-46.59
-33.68
-19.39
-9.93
-9.77
-18.37
-31.23
-41.56
-43.72
-36.08
-21.11
-4.37
9.12
16.38
17.98
16.19
13.22
9.90
5.09
-2.07
-11.45
-20.61
-26.87
-28.22
-25.07
-19.57
-13.24
-6.66
1.68
13.05
27.61
42.97
55.49
62.02
60.84
53.36
42.00
30.13
19.68
11.31
4.61
-1.19
-5.93
-9.39
-10.51
-9.49
-6.90
-4.18
-2.41
-1.33
0.06
3.62
9.90
18.31
25.87
29.29
26.23
16.48
2.55
-11.99
-23.23
-29.19
-29.24
-24.50
-16.34
-5.56
7.23
21.59
35.54
46.41
50.66
46.38
34.38
18.44
3.63
-6.40
-10.16
-9.32
-6.28
-3.27
-0.96
1.10
3.25
4.96
4.32
-0.07
-8.67
-19.42
-28.71
-32.66
-29.17
-19.12
-5.63
6.58
14.21
15.94
13.18
8.36
3.26
-2.04
-9.05
-18.31
-28.65
-36.34
-37.46
-30.01
-15.84
-0.54
9.57
9.69
-0.36
-16.80
-33.16
-43.90
-46.46
-41.63
-33.12
-24.41
-18.35
-15.46
-15.22
-16.55
-18.29
-20.01
-20.69
-19.77
-16.23
-10.12
-1.89
7.10
15.55
23.02
28.98
33.67
36.52
37.20
34.96
30.18
24.35
19.45
18.24
21.99
30.80
42.34
53.25
60.16
61.06
56.38
47.83
38.42
29.73
22.56
16.33
10.53
5.11
0.17
-4.07
-8.71
-14.67
-22.85
-32.09
-40.00
-43.58
-40.93
-33.34
-24.23
-18.59
-19.37
-26.66
-37.01
-45.58
-49.22
-47.28
-42.56
-37.92
-35.54
-35.11
-35.18
-34.49
-32.66
-30.72
-28.83
-26.56
-22.03
-14.13
-2.80
10.15
22.55
33.39
42.63
51.41
59.49
65.48
66.84
62.12
52.19
39.95
29.92
25.20
26.88
32.66
38.64
41.01
37.98
30.83
22.26
15.55
11.41
8.69
4.71
-2.05
-10.34
-16.89
-17.94
-12.59
-3.37
4.26
5.86
0.42
-8.78
-16.17
-17.83
-12.92
-4.34
4.08
9.47
11.53
11.25
8.88
3.56
-6.74
-21.80
-38.58
-51.19
-54.27
-45.78
-28.67
-10.20
2.45
4.62
-2.83
-14.91
-24.86
-27.85
-23.12
-13.65
-4.47
0.96
1.62
-0.27
-1.85
-1.42
0.45
1.32
-0.68
-5.80
-11.54
-14.85
-13.53
-8.16
-1.65
3.27
4.92
4.20
2.42
0.66
-1.84
-6.35
-13.02
-20.53
-25.46
-25.16
-18.76
-8.40
2.47
10.74
15.49
18.91
23.64
31.80
42.22
51.62
55.46
51.11
38.99
22.65
7.85
-0.90
-1.40
4.28
11.71
15.71
13.22
5.26
-4.46
-10.60
-10.36
-4.43
2.63
5.64
1.49
-9.32
-22.59
-33.69
-39.12
-38.46
-33.26
-26.05
-18.67
-11.55
-5.10
0.41
3.57
3.66
0.80
-3.04
-5.25
-4.02
0.76
6.66
11.03
11.75
9.35
6.35
5.91
10.05
17.83
26.26
31.39
31.11
25.84
18.73
12.97
9.75
7.61
3.11
-5.96
-18.88
-31.11
-36.89
-32.10
-16.99
3.22
21.09
29.82
27.12
15.40
0.47
-12.14
-19.79
-23.70
-27.85
-35.05
-45.64
-56.22
-61.69
-58.48
-46.75
-30.97
-16.77
-8.43
-5.52
-4.43
-0.36
8.83
21.12
31.70
35.38
30.40
18.43
4.46
-6.47
-11.16
-8.97
-2.20
6.41
14.05
19.63
22.53
22.96
20.81
16.22
10.04
3.32
-1.73
-3.76
-2.02
2.47
8.12
13.54
18.25
23.70
31.10
41.17
51.99
60.01
60.86
52.10
35.05
14.30
-3.22
-12.52
-12.13
-5.37
2.03
5.12
2.07
-4.83
-11.59
-14.31
-12.19
-6.88
-1.96
-0.37
-3.04
-9.16
-16.46
-23.27
-28.15
-30.88
-31.39
-30.31
-28.82
-28.39
-30.62
-35.24
-40.61
-43.14
-39.84
-29.97
-16.07
-3.51
2.90
0.79
-7.38
-16.24
-19.76
-14.94
-3.33
9.84
18.29
18.12
8.85
-5.90
-20.88
-30.93
-32.67
-26.01
-12.92
2.75
17.44
27.94
32.71
31.41
25.37
17.19
9.29
4.15
2.29
3.03
4.48
5.11
4.57
3.54
4.21
7.85
15.14
24.35
32.59
36.51
34.08
25.66
13.49
1.72
-6.40
-8.85
-6.44
-1.63
3.12
5.98
7.57
9.03
11.94
15.54
17.58
14.57
4.23
-12.26
-31.01
-45.69
-51.62
-46.90
-34.51
-19.73
-7.65
-0.64
3.49
8.42
17.92
31.98
47.43
59.01
62.46
56.87
44.51
30.55
19.50
14.34
14.51
17.14
18.64
16.28
9.90
1.00
-7.52
-13.96
-17.65
-19.60
-20.66
-20.48
-17.90
-11.67
-3.12
4.66
7.17
2.08
-9.34
-22.48
-31.30
-32.97
-28.46
-22.84
-21.34
-26.73
-37.18
-47.16
-50.73
-43.72
-26.56
-2.99
20.61
38.20
46.11
44.02
34.95
23.19
12.93
6.11
2.99
2.36
3.23
5.00
6.67
7.15
4.28
-2.70
-12.94
-22.95
-28.89
-28.54
-22.38
-14.07
-7.12
-3.74
-2.91
-2.24
0.44
5.56
11.52
16.40
18.33
17.74
15.93
14.87
15.90
19.01
23.31
26.75
27.84
25.50
20.37
13.55
6.34
-0.41
-6.78
-12.56
-17.74
-21.28
-22.75
-21.76
-19.02
-15.23
-10.69
-6.09
-2.09
-0.86
-4.09
-12.40
-23.61
-33.60
-38.12
-34.84
-25.29
-12.98
-2.32
4.82
8.96
12.23
16.46
21.19
24.78
24.52
19.81
11.71
3.13
-3.12
-5.67
-4.73
-1.94
1.34
4.24
7.46
12.09
19.09
28.08
36.27
40.04
35.45
21.78
1.66
-18.85
-33.24
-37.69
-32.91
-24.08
-16.92
-15.47
-18.95
-23.48
-24.43
-19.83
-11.92
-4.83
-2.78
-6.04
-11.77
-15.26
-13.47
-6.85
0.98
5.45
4.28
-1.34
-7.09
-8.52
-3.47
6.25
15.69
19.82
15.57
4.31
-9.96
-21.97
-28.13
-27.38
-20.99
-11.39
-0.33
10.55
20.42
27.92
32.10
32.52
30.07
27.41
27.15
31.18
38.44
46.08
50.42
49.43
43.56
34.83
25.55
16.20
6.18
-5.64
-18.50
-30.07
-37.34
-38.34
-33.88
-26.31
-19.16
-14.19
-11.42
-9.15
-5.85
-1.65
2.09
2.86
-0.08
-6.06
-12.48
-16.67
-17.19
-14.61
-11.12
-8.33
-7.05
-5.95
-3.45
1.47
7.87
13.00
14.59
11.65
6.19
1.08
-0.88
0.97
5.34
10.14
12.96
12.86
9.24
2.60
-6.38
-16.26
-24.67
-29.17
-27.84
-21.40
-11.95
-2.77
3.98
7.66
9.13
9.26
8.04
5.51
1.66
-1.72
-2.63
0.58
7.64
16.31
23.97
28.72
30.70
30.67
29.63
27.46
23.52
18.18
11.93
5.73
-1.03
-9.32
-19.92
-31.37
-40.27
-42.85
-37.01
-24.90
-10.95
-0.10
5.43
6.17
4.75
3.01
1.30
-0.22
-1.13
1.00
8.00
19.83
32.94
41.96
42.90
35.16
22.18
8.50
-2.59
-11.08
-19.08
-28.25
-38.73
-48.35
-55.09
-57.43
-55.87
-51.46
-45.63
-39.38
-33.42
-28.65
-25.00
-21.63
-16.08
-6.26
8.48
25.63
40.33
48.41
48.20
42.41
35.32
30.76
28.95
27.00
21.47
10.25
-5.58
-22.81
-37.79
-48.48
-54.43
-56.45
-55.72
-52.92
-49.11
-44.73
-40.34
-35.53
-29.75
-22.01
-11.99
-0.27
12.56
25.10
36.44
45.20
50.23
50.73
46.78
40.33
34.10
31.62
34.76
43.55
55.26
65.41
69.59
64.56
49.75
27.54
2.43
-20.87
-38.68
-49.87
-55.13
-55.74
-53.04
-47.40
-39.61
-30.42
-21.24
-12.61
-3.80
6.76
20.75
36.98
52.34
62.11
63.01
54.83
40.48
24.56
10.90
1.88
-2.47
-2.57
0.54
5.70
11.18
14.51
13.43
7.20
-2.66
-13.39
-21.85
-26.61
-27.76
-26.05
-22.52
-17.64
-12.68
-9.13
-8.90
-12.51
-18.37
-23.25
-23.51
-18.43
-9.69
-1.15
4.28
5.88
5.36
4.89
5.45
7.09
8.80
10.99
14.55
20.45
28.19
35.50
39.63
38.69
33.15
24.72
16.14
9.12
4.04
0.53
-3.05
-8.25
-16.71
-28.47
-42.40
-55.51
-64.45
-66.92
-62.37
-53.11
-41.84
-31.10
-21.39
-12.69
-4.61
2.12
6.39
8.39
9.10
11.27
16.64
25.34
35.09
42.60
45.42
42.76
36.36
28.40
21.09
15.13
10.13
5.46
0.28
-5.85
-13.35
-21.69
-30.32
-37.67
-42.44
-43.63
-40.78
-34.37
-24.83
-13.41
-0.95
10.46
18.86
22.28
20.05
14.11
7.51
4.27
6.55
14.35
24.87
34.18
38.98
37.24
29.30
16.83
2.34
-12.22
-25.31
-36.16
-44.26
-49.18
-50.95
-49.31
-44.96
-38.38
-30.66
-22.42
-13.95
-5.00
5.36
16.97
29.36
40.32
47.73
50.16
47.85
43.15
38.74
36.94
37.75
39.93
41.50
41.23
39.26
35.46
28.93
17.87
1.07
-20.76
-43.53
-61.72
-70.68
-68.76
-58.54
-44.11
-29.63
-16.73
-5.59
4.43
12.73
17.97
19.79
19.19
19.44
23.06
30.60
39.44
45.30
44.78
36.67
22.82
6.08
-10.59
-25.64
-38.35
-47.71
-52.56
-51.90
-46.50
-37.93
-28.63
-19.88
-12.01
-4.79
1.55
5.60
6.29
3.35
-0.97
-3.69
-2.26
3.19
9.91
14.28
13.65
8.51
0.88
-6.45
-12.42
-17.30
-21.52
-24.60
-24.41
-19.37
-9.00
4.34
16.91
24.99
26.86
23.88
18.85
14.98
13.41
13.69
14.20
14.10
13.68
13.68
14.86
15.97
15.34
11.17
3.43
-5.98
-14.01
-17.78
-16.25
-9.68
-0.10
10.74
21.43
31.27
39.57
44.33
43.31
34.12
16.94
-5.84
-29.45
-48.67
-59.94
-62.26
-57.56
-48.48
-37.75
-26.22
-14.13
-1.73
9.69
17.39
19.32
14.48
5.02
-5.57
-13.50
-16.33
-13.92
-7.75
-0.43
6.18
10.92
14.07
16.47
18.95
22.06
24.66
25.22
21.78
14.12
3.33
-7.94
-16.72
-21.21
-21.29
-18.64
-14.70
-10.60
-5.60
1.28
10.48
20.95
29.98
35.18
34.65
29.06
20.10
9.97
0.38
-7.83
-14.23
-18.66
-20.34
-18.57
-12.83
-3.69
7.35
18.03
25.48
27.59
22.90
12.54
-0.86
-13.45
-22.04
-25.23
-24.00
-20.87
-17.57
-14.58
-10.24
-3.14
6.65
16.60
22.57
21.60
12.90
-0.28
-13.17
-21.10
-22.22
-17.95
-11.65
-7.29
-6.76
-9.92
-14.63
-18.97
-21.74
-23.13
-23.90
-23.95
-22.72
-18.55
-10.97
-0.47
10.66
19.89
25.25
25.87
22.32
15.29
6.44
-2.72
-10.11
-14.43
-15.43
-13.77
-10.92
-7.33
-2.93
3.59
12.70
23.53
33.88
40.91
42.90
39.39
31.79
21.75
11.11
1.09
-7.04
-12.01
-13.46
-11.76
-9.15
-7.89
-9.86
-14.51
-19.40
-21.31
-17.24
-6.90
8.10
23.67
35.66
41.28
40.09
33.86
25.46
18.08
13.29
11.67
12.33
14.04
15.04
13.44
7.58
-3.73
-19.41
-36.53
-50.18
-56.50
-54.11
-45.24
-34.98
-28.02
-27.20
-31.24
-36.98
-40.50
-39.64
-34.45
-25.88
-15.49
-3.59
9.25
21.86
32.02
37.28
36.55
30.86
23.80
19.51
21.20
28.61
38.46
45.59
45.65
37.42
22.94
7.07
-5.54
-11.43
-9.93
-2.25
9.19
21.67
32.74
39.49
39.72
31.80
16.58
-2.38
-19.79
-30.29
-31.45
-24.07
-12.32
-0.92
6.57
9.24
8.12
4.36
-1.74
-10.90
-22.93
-35.87
-45.47
-47.45
-39.47
-23.19
-3.87
12.48
21.18
21.34
15.18
6.84
-0.34
-4.88
-7.24
-9.35
-12.15
-15.54
-17.72
-16.30
-9.39
3.04
18.27
31.91
39.07
37.16
26.74
11.96
-2.04
-11.36
-15.29
-15.97
-16.27
-17.81
-19.37
-18.78
-14.19
-6.24
1.76
5.91
3.42
-5.10
-16.33
-25.32
-28.22
-23.61
-12.83
0.27
11.77
18.52
19.87
17.14
13.12
10.41
9.77
10.07
8.78
4.12
-3.90
-12.71
-19.02
-20.80
-19.04
-17.38
-19.38
-26.53
-35.99
-42.65
-41.80
-32.21
-17.37
-2.96
5.61
7.12
4.11
1.48
2.94
9.14
17.61
24.15
25.93
22.04
14.50
6.61
1.74
2.26
8.08
17.58
27.61
35.49
39.01
37.71
32.17
24.10
15.79
8.95
5.33
5.10
7.70
11.41
14.73
16.99
18.54
21.26
26.41
34.41
43.08
48.67
47.06
36.27
17.84
-3.97
-23.39
-36.67
-42.65
-43.28
-41.50
-39.37
-37.77
-36.43
-35.94
-36.95
-40.48
-45.65
-49.84
-49.64
-42.71
-30.35
-16.07
-4.52
2.06
3.72
2.82
1.37
-0.32
-2.58
-6.01
-9.43
-11.05
-9.00
-3.42
3.99
10.86
15.46
17.98
19.27
20.64
22.24
23.74
24.66
25.25
26.24
27.67
29.51
30.72
30.44
28.10
23.24
15.77
5.22
-7.67
-21.69
-33.95
-41.77
-43.21
-38.31
-29.37
-19.14
-10.59
-4.52
-0.92
1.48
3.26
4.55
5.19
5.41
6.57
9.73
16.01
24.81
34.19
41.36
44.02
41.51
34.52
25.31
15.50
6.33
-2.05
-9.99
-17.44
-24.69
-31.19
-37.02
-41.67
-45.10
-46.74
-46.33
-43.74
-38.60
-31.40
-22.10
-11.58
-0.60
9.19
16.47
20.37
21.30
21.04
21.05
22.61
25.05
26.79
26.39
23.63
19.73
16.13
14.01
12.32
9.35
3.09
-7.00
-18.72
-28.90
-33.77
-32.07
-24.56
-14.68
-6.04
-1.49
-1.70
-4.98
-9.03
-11.26
-10.79
-7.34
-1.71
5.56
13.88
22.41
29.85
33.79
32.74
25.96
15.09
3.49
-4.88
-7.17
-3.49
4.06
11.49
15.78
15.40
10.91
4.44
-1.65
-4.91
-4.46
-0.00
6.96
14.13
18.34
16.65
7.73
-7.64
-25.71
-41.85
-51.39
-52.41
-45.71
-34.48
-22.48
-12.13
-4.59
0.98
5.31
8.98
11.22
11.02
8.16
3.42
-0.88
-2.78
-0.68
5.41
14.74
25.95
37.37
47.26
53.01
52.69
45.00
30.96
13.69
-2.51
-13.66
-18.54
-17.72
-13.77
-8.96
-5.33
-4.04
-6.30
-12.79
-22.51
-32.94
-39.83
-39.91
-31.88
-18.10
-2.91
9.28
15.71
16.40
12.29
5.14
-4.21
-14.65
-24.45
-30.88
-31.08
-24.36
-12.10
1.61
12.74
18.38
18.38
15.11
11.45
9.55
9.29
9.61
9.20
8.28
8.14
10.00
13.82
17.25
17.81
13.91
6.91
-0.37
-4.86
-5.58
-4.03
-1.85
-0.05
2.88
8.52
17.25
26.20
30.84
27.80
16.79
1.67
-12.50
-21.16
-22.91
-18.71
-11.13
-2.91
3.72
6.27
3.49
-4.96
-16.93
-28.74
-36.30
-37.20
-32.29
-24.38
-17.05
-11.73
-8.15
-4.40
0.63
6.13
9.84
9.04
3.21
-5.93
-14.08
-16.98
-12.00
0.13
15.57
29.59
38.15
40.35
37.50
32.28
26.58
20.56
13.81
5.99
-1.38
-6.54
-7.91
-6.25
-4.14
-4.46
-8.98
-16.54
-24.47
-29.51
-30.46
-28.20
-25.19
-23.34
-22.76
-22.17
-19.08
-12.33
-2.07
9.45
19.33
24.98
24.89
19.91
11.76
3.23
-3.91
-8.75
-11.54
-12.75
-12.43
-10.22
-5.12
2.79
12.93
23.42
32.04
37.41
38.38
35.30
28.39
18.57
6.54
-6.24
-17.95
-26.53
-30.09
-28.20
-21.18
-10.84
1.19
13.11
23.59
31.55
35.02
32.52
22.68
6.32
-14.02
-33.62
-47.68
-52.79
-48.17
-36.22
-20.64
-5.58
6.94
16.67
25.03
33.67
42.40
49.88
52.95
49.33
38.11
21.20
2.32
-14.33
-25.32
-30.12
-29.93
-27.69
-25.24
-23.09
-20.06
-14.54
-6.38
3.09
10.81
14.60
13.64
9.64
5.30
2.56
1.57
0.38
-2.59
-7.94
-13.83
-17.94
-18.73
-16.78
-14.07
-11.74
-9.36
-4.60
3.99
15.96
27.76
34.55
32.95
22.82
8.19
-5.65
-13.92
-15.47
-12.17
-7.84
-5.52
-5.68
-6.82
-6.15
-2.98
1.33
3.49
0.98
-5.98
-14.19
-18.60
-15.89
-5.85
7.63
19.30
24.80
22.90
15.45
5.37
-3.94
-10.78
-14.16
-14.62
-12.98
-10.59
-8.68
-7.36
-6.13
-3.16
2.26
9.59
16.40
19.74
17.70
9.97
-1.20
-13.16
-23.10
-29.82
-32.86
-32.18
-28.16
-21.31
-13.45
-6.36
-2.03
-0.63
-0.84
-0.34
3.08
9.42
17.41
24.34
28.92
31.10
32.42
34.15
35.67
34.82
28.39
15.39
-2.57
-20.91
-34.54
-40.26
-37.70
-29.65
-19.70
-11.35
-5.96
-3.61
-3.02
-2.73
-1.61
1.65
7.77
17.34
29.11
40.96
49.54
51.95
47.02
35.66
21.30
7.46
-2.87
-9.44
-13.63
-17.44
-21.99
-25.87
-27.04
-23.28
-14.89
-4.32
4.56
8.80
7.78
3.00
-2.09
-4.86
-3.76
0.55
6.79
13.27
18.47
21.07
19.37
12.64
0.73
-14.20
-28.98
-40.36
-46.23
-46.73
-43.17
-37.80
-31.75
-25.96
-20.82
-16.93
-14.78
-13.80
-12.70
-9.01
-1.79
8.45
18.64
25.42
26.85
23.49
18.48
15.08
15.58
19.28
24.08
27.16
26.60
22.32
14.73
5.07
-6.00
-17.47
-28.27
-36.87
-41.51
-41.64
-37.67
-31.92
-26.61
-23.18
-21.13
-18.26
-11.83
-0.21
15.72
33.59
49.62
61.07
66.31
65.39
59.08
48.75
36.47
24.68
16.64
13.96
16.34
20.35
20.98
14.49
-0.17
-19.68
-38.60
-51.21
-54.98
-50.72
-41.34
-30.56
-20.29
-11.94
-5.97
-3.40
-5.04
-10.63
-18.16
-24.19
-25.77
-21.34
-12.27
-1.13
9.08
16.75
21.55
24.29
26.18
28.08
31.08
34.97
39.04
40.99
37.92
27.97
11.14
-9.11
-27.61
-38.65
-39.52
-31.01
-17.14
-4.01
3.54
2.48
-6.49
-20.07
-32.88
-39.80
-38.12
-28.43
-14.92
-2.56
4.31
4.78
0.61
-4.46
-7.42
-6.88
-2.79
3.85
12.89
23.54
34.83
44.58
50.76
52.38
49.69
44.56
38.18
31.41
23.91
15.69
7.73
1.74
-0.61
0.61
4.13
7.43
8.94
8.15
5.41
1.23
-4.72
-12.46
-21.66
-30.27
-36.46
-38.83
-37.76
-35.45
-33.93
-34.90
-37.58
-40.17
-39.94
-35.35
-26.60
-15.66
-6.02
-0.38
-0.32
-4.66
-10.98
-16.19
-18.46
-17.53
-14.21
-9.79
-4.35
2.02
9.44
16.58
21.26
21.92
18.48
13.29
9.10
8.14
10.00
12.47
12.87
9.60
3.76
-2.46
-6.40
-7.69
-7.52
-8.24
-11.14
-14.97
-17.00
-14.14
-6.11
4.67
13.40
16.18
12.05
3.52
-4.29
-7.34
-3.82
3.80
11.42
15.23
14.17
10.67
8.16
9.85
15.76
23.65
30.04
32.57
31.29
28.02
25.18
23.29
21.52
17.24
9.07
-2.49
-14.57
-22.96
-25.29
-21.05
-12.78
-3.52
4.07
9.04
12.01
13.97
15.94
17.41
17.99
16.53
13.14
8.14
2.64
-1.79
-4.19
-3.36
0.72
7.75
16.20
24.42
30.84
34.54
35.69
34.25
30.66
24.24
14.96
2.97
-10.12
-21.27
-27.30
-25.91
-17.72
-5.70
4.85
9.21
4.72
-8.16
-26.04
-45.01
-60.97
-71.86
-76.22
-73.78
-64.72
-50.46
-34.31
-20.14
-11.68
-10.00
-13.65
-18.56
-20.86
-18.20
-10.31
1.13
14.41
27.54
39.39
48.15
52.50
51.73
46.97
40.80
35.73
33.62
33.56
33.51
30.92
24.51
14.81
3.05
-8.60
-18.73
-25.96
-29.47
-28.60
-23.83
-17.37
-11.76
-9.76
-11.72
-16.09
-19.42
-19.02
-14.16
-6.62
0.36
4.64
5.47
4.56
3.84
4.37
5.12
3.82
-1.54
-11.60
-24.27
-36.59
-44.91
-47.04
-42.11
-30.40
-13.09
8.48
31.47
52.30
66.36
69.94
61.69
43.20
19.37
-4.28
-22.77
-34.13
-38.62
-38.36
-34.71
-27.80
-17.13
-2.30
14.47
29.43
38.07
37.88
29.68
17.42
6.56
0.66
0.64
3.35
4.83
1.98
-4.59
-11.12
-12.92
-6.79
5.58
19.03
26.55
23.39
9.26
-11.19
-30.46
-42.36
-43.79
-36.82
-25.82
-15.41
-7.49
-0.95
6.42
16.23
26.53
33.48
32.33
21.18
2.53
-17.09
-29.86
-30.90
-19.95
-2.26
15.42
27.47
32.03
30.49
25.37
19.06
12.68
7.57
4.96
6.56
12.84
21.81
29.56
31.08
24.09
9.62
-7.09
-20.07
-24.85
-20.72
-10.97
-0.12
7.27
9.36
5.93
-1.57
-11.59
-22.13
-30.84
-35.08
-32.19
-21.96
-6.72
8.12
16.52
14.40
2.13
-15.49
-31.38
-38.49
-33.86
-18.76
1.53
20.20
31.69
33.35
26.50
14.52
2.34
-6.64
-10.78
-10.57
-7.88
-4.49
-2.12
-1.58
-3.90
-8.99
-16.01
-22.73
-26.16
-24.10
-15.85
-3.70
8.92
18.07
21.90
20.60
16.55
12.79
11.17
12.24
14.48
16.05
15.03
11.17
5.69
0.53
-2.25
-2.90
-2.93
-5.17
-11.27
-20.56
-29.97
-35.55
-34.79
-27.23
-15.47
-2.56
8.92
17.56
22.90
24.55
22.44
16.75
9.92
5.10
5.57
12.17
22.49
32.05
35.86
31.28
18.07
-1.02
-22.42
-41.79
-54.71
-57.78
-48.85
-29.78
-5.87
14.55
24.24
20.24
5.84
-11.22
-22.89
-24.04
-15.36
-1.02
13.72
24.98
30.87
31.13
26.45
17.81
8.07
0.76
-0.84
4.27
13.45
21.47
22.50
13.85
-3.76
-25.56
-45.75
-59.25
-62.80
-56.27
-41.46
-23.12
-6.84
1.77
0.60
-7.93
-17.37
-20.20
-12.40
4.90
25.35
41.88
50.02
50.25
46.30
42.10
39.63
37.41
33.60
27.42
20.39
14.66
11.45
9.97
7.86
3.96
-1.78
-7.56
-11.98
-14.83
-17.32
-21.37
-27.39
-34.47
-39.85
-41.53
-38.46
-31.51
-23.15
-16.00
-12.14
-11.72
-13.53
-14.53
-11.88
-4.09
7.61
19.08
25.72
23.53
12.25
-5.15
-22.65
-34.16
-35.94
-27.88
-13.74
1.45
13.14
20.12
23.73
26.91
31.76
37.77
42.35
41.96
35.45
23.97
11.00
-0.08
-7.68
-12.23
-15.35
-18.00
-20.53
-22.10
-22.15
-20.39
-16.72
-11.22
-3.57
5.53
15.18
23.06
27.24
26.45
20.97
12.90
5.07
-0.02
-1.77
-0.86
0.64
0.99
-0.18
-1.76
-1.84
0.15
3.93
7.25
8.22
5.91
1.45
-2.64
-3.91
-1.46
2.91
6.50
6.58
2.63
-3.44
-8.11
-8.31
-3.68
4.24
11.88
16.80
17.89
15.99
12.36
7.57
1.29
-7.38
-17.43
-26.49
-30.99
-28.73
-19.87
-7.08
5.34
14.32
18.05
17.12
12.68
6.02
-2.10
-11.14
-20.06
-27.64
-31.72
-31.04
-25.43
-16.80
-8.10
-1.94
0.67
1.22
1.73
4.08
7.66
10.59
11.05
9.14
7.65
9.57
16.36
25.39
32.00
31.68
23.42
10.01
-3.94
-13.92
-18.55
-18.29
-14.82
-9.11
-1.76
6.29
13.56
17.59
17.27
12.67
6.11
0.04
-3.84
-5.12
-4.02
-0.57
4.56
10.38
14.02
12.49
4.39
-8.48
-21.40
-29.41
-29.37
-22.79
-13.94
-8.11
-8.06
-13.31
-21.28
-28.39
-32.66
-32.87
-28.92
-20.75
-9.58
2.02
11.04
14.91
13.98
10.59
8.46
9.50
13.16
16.87
18.65
18.88
19.10
21.03
23.62
23.99
19.13
9.14
-1.92
-8.81
-7.82
-0.68
7.26
9.62
3.75
-8.01
-19.97
-26.23
-24.73
-16.85
-6.77
2.17
8.39
12.07
14.71
17.35
20.79
24.52
27.98
29.86
29.27
25.67
19.70
13.40
8.37
5.51
3.34
-0.15
-6.53
-15.08
-22.51
-25.13
-20.67
-10.85
0.08
6.53
5.37
-2.90
-14.31
-23.22
-26.21
-22.78
-16.35
-10.95
-9.30
-11.37
-14.32
-14.87
-11.00
-4.06
2.58
4.79
0.99
-7.03
-14.92
-17.75
-13.95
-5.60
1.68
2.98
-3.41
-14.52
-24.07
-26.08
-17.99
-2.97
12.62
21.66
20.97
12.27
0.99
-6.39
-6.78
-0.95
6.20
9.40
5.16
-6.04
-19.82
-30.07
-31.33
-22.25
-5.25
13.73
28.53
34.87
31.96
22.67
11.50
3.51
1.25
5.21
13.35
22.55
30.12
34.39
35.37
33.53
30.23
26.08
21.78
17.56
13.30
8.89
3.76
-1.70
-6.80
-9.69
-9.23
-5.66
-1.46
-0.28
-4.44
-14.17
-26.29
-36.84
-42.59
-42.82
-39.06
-33.26
-27.19
-21.13
-15.90
-12.43
-12.44
-16.56
-23.23
-29.13
-30.34
-25.63
-16.15
-5.77
1.82
4.38
2.49
-1.14
-3.40
-1.42
5.64
17.33
31.74
46.70
59.96
69.54
74.36
73.48
67.59
57.87
46.72
36.60
28.74
22.82
16.59
7.83
-4.87
-20.08
-35.20
-46.68
-52.38
-52.12
-46.70
-38.32
-28.67
-20.01
-14.17
-13.20
-17.70
-26.03
-34.97
-39.81
-37.50
-27.36
-11.83
5.32
20.52
31.27
36.85
37.05
33.06
26.38
19.75
15.76
15.80
19.22
23.33
24.99
21.38
12.57
0.14
-13.02
-24.54
-33.26
-38.49
-40.06
-36.93
-29.06
-16.94
-2.84
10.30
20.32
26.06
28.34
28.41
27.78
26.63
24.83
22.33
19.46
17.47
16.84
17.38
16.76
12.46
2.89
-10.96
-25.31
-35.98
-39.85
-37.48
-31.16
-23.99
-16.99
-9.08
1.39
14.63
27.38
35.23
34.31
25.00
11.27
-1.12
-7.89
-8.73
-6.42
-5.37
-7.55
-12.51
-17.61
-20.51
-20.79
-19.49
-18.44
-17.75
-16.23
-11.56
-3.21
6.88
15.09
18.10
15.48
8.90
1.80
-4.17
-9.11
-14.96
-23.08
-32.07
-38.41
-37.69
-28.34
-11.80
7.18
23.57
34.10
38.33
38.47
36.22
32.41
25.83
15.34
0.59
-16.49
-32.03
-42.10
-44.01
-38.43
-27.85
-16.22
-5.97
2.24
9.49
17.55
26.19
33.96
37.63
35.15
26.03
12.49
-1.70
-13.09
-19.26
-20.70
-18.73
-15.31
-11.00
-5.64
1.16
9.31
16.78
21.43
20.96
15.36
5.98
-4.42
-13.03
-18.05
-18.66
-15.80
-10.47
-4.57
0.76
4.68
7.21
9.45
11.98
15.24
17.77
17.81
13.17
3.22
-10.48
-24.55
-34.52
-37.51
-32.41
-21.15
-6.71
7.84
20.74
31.81
40.68
46.76
47.84
42.26
29.26
10.81
-8.87
-24.75
-32.78
-32.47
-25.93
-17.76
-12.16
-11.91
-17.53
-26.85
-36.87
-43.49
-43.93
-36.56
-22.78
-6.12
8.97
19.01
23.16
22.93
21.67
21.60
23.43
25.88
27.35
27.32
26.32
25.80
25.56
24.46
20.27
11.95
0.23
-12.50
-23.11
-29.94
-32.22
-30.68
-25.79
-18.18
-8.53
2.11
11.90
19.25
22.27
20.53
14.22
4.86
-5.22
-13.34
-17.03
-15.65
-9.90
-2.87
2.09
2.18
-3.04
-11.50
-19.75
-23.80
-21.50
-12.47
0.71
14.21
24.35
29.34
30.32
30.03
31.57
35.33
39.21
39.38
33.39
21.88
8.59
-1.13
-4.49
-2.17
1.49
1.67
-4.53
-16.73
-31.29
-44.12
-50.97
-49.49
-38.66
-20.10
2.08
22.10
34.09
35.13
25.91
11.85
-0.71
-6.93
-5.57
1.10
9.16
15.01
17.18
14.70
7.53
-4.46
-20.14
-36.72
-50.37
-57.30
-56.56
-49.63
-40.43
-32.33
-27.08
-24.28
-21.70
-17.67
-11.03
-2.22
8.26
18.84
27.98
34.50
37.75
38.58
38.26
38.30
38.40
36.98
32.17
23.83
14.24
6.55
3.57
4.20
4.77
0.63
-9.93
-24.68
-38.29
-45.18
-43.70
-35.73
-26.40
-19.83
-17.72
-18.60
-18.94
-15.55
-6.57
7.22
24.07
40.53
53.20
59.89
60.14
55.73
49.58
44.70
41.84
39.87
36.11
28.63
17.55
4.78
-6.16
-13.34
-16.61
-18.28
-20.84
-26.11
-34.02
-42.69
-50.53
-55.81
-58.38
-58.31
-56.33
-52.86
-48.16
-42.36
-35.22
-27.19
-18.09
-8.67
0.02
6.53
9.54
9.32
7.62
8.16
14.16
27.44
45.96
64.77
77.96
81.17
74.25
60.48
45.60
33.82
27.04
24.21
23.28
22.94
22.70
22.72
21.51
16.74
5.59
-12.19
-33.35
-51.65
-60.40
-56.84
-43.02
-25.76
-12.50
-8.09
-12.69
-22.06
-30.76
-34.33
-32.05
-25.46
-17.58
-10.54
-5.34
-2.43
-2.23
-6.18
-14.44
-26.02
-37.53
-44.96
-45.12
-37.31
-23.48
-6.33
11.43
28.66
44.16
56.31
62.83
61.73
53.47
41.20
30.48
25.75
28.71
36.72
44.57
47.36
42.45
31.16
16.80
3.46
-6.95
-14.36
-20.03
-24.92
-28.51
-29.91
-28.10
-24.39
-21.37
-22.05
-27.44
-35.28
-41.20
-40.76
-33.19
-21.18
-10.14
-4.67
-6.44
-13.98
-23.62
-32.63
-39.06
-42.97
-44.10
-42.40
-37.53
-29.62
-19.80
-9.32
0.08
8.20
14.93
20.69
25.20
28.02
29.16
29.16
29.88
32.53
37.75
44.16
49.54
51.84
50.21
46.27
42.27
40.61
41.22
42.46
41.63
37.28
30.30
22.95
17.75
14.49
11.16
4.54
-6.41
-19.49
-29.77
-32.25
-26.00
-14.31
-4.44
-2.77
-11.87
-29.03
-47.61
-60.99
-64.78
-59.20
-46.86
-32.07
-18.42
-8.40
-3.69
-4.79
-11.60
-21.55
-30.86
-34.72
-30.19
-17.14
1.13
19.37
33.07
39.63
40.06
36.80
33.08
30.76
30.45
31.75
33.57
35.24
35.68
34.20
30.21
24.00
16.84
10.25
5.79
3.17
1.14
-2.44
-8.59
-16.85
-25.17
-31.16
-34.16
-34.87
-35.96
-39.59
-46.40
-54.57
-60.93
-62.31
-56.79
-45.47
-30.99
-17.57
-8.71
-6.34
-9.91
-16.35
-21.51
-20.82
-12.01
4.62
25.19
44.09
55.78
56.93
48.18
33.30
18.76
10.08
10.59
19.40
32.53
44.84
52.05
53.03
49.05
42.98
36.64
30.58
24.43
18.18
13.58
12.80
17.22
24.79
30.82
29.94
19.37
1.12
-19.52
-36.21
-45.94
-49.26
-49.57
-49.81
-50.97
-52.14
-51.70
-49.96
-47.73
-46.42
-45.22
-41.93
-34.16
-20.89
-3.78
14.25
29.88
41.99
50.23
54.95
56.57
55.31
51.83
47.25
43.05
39.08
34.20
26.47
15.10
1.38
-11.95
-21.32
-25.32
-24.74
-22.72
-22.18
-24.83
-30.46
-37.22
-43.74
-48.37
-50.67
-49.86
-45.85
-38.84
-29.65
-19.71
-10.43
-3.38
1.62
5.02
8.36
13.11
20.35
30.13
41.35
52.16
59.65
61.82
57.35
47.04
33.57
20.34
10.93
6.88
7.63
9.90
9.90
4.44
-7.07
-22.12
-36.85
-46.88
-50.26
-47.23
-40.26
-31.95
-24.63
-19.67
-17.62
-19.44
-24.53
-31.62
-37.28
-37.89
-30.92
-16.64
1.86
20.48
35.26
45.12
50.54
53.29
55.22
57.34
59.88
62.16
62.96
59.49
49.08
30.36
5.07
-21.51
-42.92
-53.68
-52.70
-42.96
-30.49
-20.51
-15.86
-16.45
-19.74
-23.48
-25.35
-24.40
-19.60
-10.95
0.93
14.33
26.99
37.07
43.02
44.57
41.64
34.66
24.49
12.97
2.50
-5.18
-9.11
-10.89
-13.11
-18.27
-26.76
-36.65
-44.70
-47.61
-44.70
-36.99
-27.71
-19.63
-14.49
-12.29
-11.29
-9.35
-4.30
4.29
15.67
27.30
36.68
42.19
44.08
44.07
43.63
42.91
39.77
31.60
16.70
-3.64
-24.96
-42.18
-50.86
-50.15
-42.12
-31.07
-20.86
-13.80
-10.07
-8.13
-6.44
-3.34
1.30
7.22
13.72
20.33
26.79
32.51
36.85
37.83
33.60
23.06
7.47
-9.91
-24.90
-34.02
-36.76
-34.75
-31.33
-28.59
-26.97
-25.27
-21.50
-15.04
-6.16
3.57
13.29
22.03
29.56
36.04
41.68
46.61
50.11
51.16
47.27
36.22
17.43
-6.20
-28.86
-44.34
-48.29
-41.49
-28.69
-16.76
-10.36
-10.34
-13.82
-16.12
-14.07
-6.47
5.03
18.17
30.48
40.17
46.58
49.75
50.64
49.49
46.28
39.59
27.96
10.95
-9.98
-31.11
-48.62
-58.83
-60.64
-54.67
-43.65
-30.85
-19.34
-11.57
-8.03
-8.11
-9.14
-8.77
-5.23
1.28
8.98
15.37
18.19
17.12
12.42
5.61
-1.88
-8.43
-12.82
-14.72
-14.66
-14.51
-15.58
-18.41
-21.16
-20.96
-15.50
-4.42
9.49
22.07
28.78
27.92
20.34
9.62
0.13
-4.78
-3.54
2.44
10.61
17.32
19.95
17.06
9.38
-0.80
-10.62
-16.97
-18.29
-13.96
-5.63
4.26
12.64
17.51
18.71
16.88
13.64
9.23
3.13
-5.84
-17.81
-31.06
-42.30
-47.29
-43.84
-31.99
-15.60
0.03
10.07
12.63
9.68
5.42
4.49
8.32
15.33
21.55
23.57
20.70
15.36
11.64
11.40
13.82
15.03
11.44
1.75
-11.91
-25.07
-33.66
-35.03
-29.23
-17.75
-3.21
11.41
23.37
30.30
31.60
27.64
20.71
12.99
5.78
-0.88
-7.91
-16.12
-24.92
-31.63
-33.39
-28.07
-16.06
-0.35
14.33
23.54
25.42
20.15
10.48
-0.68
-10.85
-19.11
-25.35
-29.65
-31.44
-28.96
-20.97
-7.09
10.76
28.92
42.81
48.84
46.28
36.58
23.56
10.62
-0.11
-8.43
-14.93
-20.06
-23.39
-23.53
-20.21
-14.40
-8.24
-3.47
-0.55
1.66
5.32
10.80
17.03
20.67
19.14
11.59
0.50
-9.64
-14.46
-11.20
-0.95
13.00
26.15
35.49
39.88
40.18
38.34
35.39
32.12
27.89
22.41
15.66
8.66
2.96
-0.42
-1.18
-1.19
-3.17
-9.75
-21.09
-34.68
-46.21
-51.24
-48.45
-39.07
-27.17
-16.27
-8.33
-3.11
0.65
2.99
3.22
-0.47
-8.32
-18.88
-28.92
-35.31
-36.67
-33.81
-29.27
-24.69
-20.85
-16.50
-10.09
-0.87
10.17
20.24
26.80
28.13
25.11
19.45
13.41
8.06
3.44
-0.37
-3.29
-4.08
-2.37
1.51
5.74
8.25
8.30
6.72
6.25
9.25
16.82
27.05
36.35
41.20
40.10
34.39
26.53
19.23
12.73
5.94
-3.17
-15.12
-28.07
-38.54
-42.59
-39.08
-29.17
-16.88
-6.17
0.26
2.05
0.60
-2.34
-4.54
-4.66
-1.46
4.90
12.90
19.93
23.54
22.88
18.42
12.20
5.45
-1.16
-7.98
-15.03
-20.87
-23.58
-21.17
-14.28
-5.24
2.31
6.22
6.88
6.46
7.87
11.84
17.53
22.38
24.85
24.84
23.81
23.68
24.76
25.93
24.11
16.87
3.31
-14.35
-31.71
-43.70
-46.53
-40.35
-28.22
-16.00
-8.89
-9.72
-17.31
-27.29
-34.45
-34.21
-25.45
-9.71
8.67
24.87
35.10
37.69
33.97
26.44
18.60
12.11
7.36
3.47
-0.79
-5.13
-8.85
-10.62
-10.89
-11.00
-13.28
-18.73
-26.28
-32.93
-34.83
-30.26
-19.46
-5.33
8.80
19.95
27.04
30.37
30.71
29.65
27.87
26.35
25.32
24.98
24.98
24.44
22.54
18.35
12.16
4.50
-2.91
-8.25
-10.37
-9.14
-6.14
-3.15
-2.46
-4.86
-10.51
-18.72
-28.58
-39.35
-49.82
-58.45
-62.66
-60.44
-50.45
-33.76
-13.25
6.98
22.90
32.65
36.23
35.88
33.67
31.01
27.89
23.27
16.51
7.43
-2.78
-13.07
-21.94
-28.52
-32.05
-32.11
-29.09
-23.58
-17.54
-12.59
-10.40
-11.15
-13.64
-15.68
-15.16
-11.57
-5.41
1.03
5.74
7.26
5.96
3.73
3.05
5.92
11.71
18.21
21.91
20.74
14.61
5.58
-2.89
-8.39
-9.41
-6.80
-1.85
3.84
9.40
14.92
20.44
26.19
31.06
34.13
34.14
30.91
25.30
18.93
13.63
10.16
8.84
8.61
8.90
9.53
11.13
14.37
18.98
24.03
27.46
27.99
24.82
18.76
10.97
2.67
-5.56
-14.09
-22.43
-29.98
-34.72
-35.11
-31.14
-24.81
-20.03
-19.45
-23.64
-29.26
-31.92
-28.32
-19.09
-8.19
-0.72
-0.11
-5.12
-11.75
-14.72
-11.23
-2.11
8.66
16.00
16.47
9.10
-3.32
-16.53
-25.97
-29.48
-27.61
-23.07
-19.41
-17.97
-18.33
-17.65
-13.45
-5.01
5.75
14.96
19.61
18.48
14.01
9.74
9.15
12.98
19.40
25.51
28.78
29.36
28.81
30.00
34.48
41.92
49.62
53.85
52.17
43.73
30.80
16.58
4.72
-3.03
-6.77
-7.83
-7.77
-6.80
-5.03
-1.88
1.73
4.50
4.92
2.96
0.77
1.06
5.99
14.33
22.60
26.15
22.06
10.96
-3.23
-14.92
-20.58
-19.64
-15.42
-11.78
-11.17
-12.83
-13.35
-9.76
-1.55
7.64
12.67
9.41
-2.29
-18.50
-33.56
-42.55
-44.38
-40.61
-35.03
-30.41
-27.86
-26.57
-25.08
-22.48
-18.28
-13.35
-8.32
-4.18
-1.66
-1.28
-3.24
-6.84
-11.15
-14.52
-16.08
-15.31
-12.74
-9.44
-6.70
-5.52
-5.42
-5.38
-3.76
-0.13
4.43
7.77
7.29
2.12
-6.97
-16.43
-22.27
-21.26
-13.33
-1.26
10.27
16.76
17.02
12.41
6.97
4.26
5.94
11.00
16.43
19.23
17.56
12.24
5.13
-1.24
-5.63
-7.80
-8.28
-8.09
-7.09
-5.31
-2.02
2.94
9.34
16.11
21.33
23.63
21.62
15.98
8.11
0.61
-4.85
-7.82
-8.94
-9.57
-9.52
-8.04
-2.99
6.50
19.35
31.94
39.69
39.53
31.11
18.10
5.10
-3.47
-6.05
-3.55
1.91
8.24
15.03
21.75
28.20
32.81
34.09
30.77
22.86
12.47
1.96
-6.09
-11.20
-13.88
-16.02
-19.19
-23.66
-28.37
-30.58
-28.53
-21.38
-11.30
-1.81
2.87
0.30
-8.31
-19.03
-26.01
-25.55
-16.95
-3.33
10.49
20.22
24.22
23.89
21.03
17.27
11.88
4.14
-5.57
-14.52
-17.84
-12.15
2.59
20.86
34.83
37.25
26.04
5.15
-17.18
-32.22
-35.90
-29.22
-18.27
-9.24
-5.78
-7.33
-9.60
-8.38
-1.42
8.92
17.90
20.33
14.37
2.33
-10.14
-16.77
-15.10
-6.72
2.41
6.29
1.57
-10.53
-24.56
-34.33
-35.45
-28.86
-18.91
-11.61
-10.26
-14.22
-19.62
-21.57
-18.16
-10.29
-1.88
3.67
4.58
1.52
-2.83
-5.89
-5.38
-1.31
5.52
12.82
18.39
20.17
17.26
10.80
2.93
-2.97
-5.27
-3.83
-0.30
3.61
7.28
11.22
16.98
24.32
31.97
37.03
37.23
31.52
20.70
7.54
-5.07
-13.74
-16.83
-13.57
-5.17
5.93
16.65
23.87
26.41
24.29
20.02
16.23
14.95
15.69
15.85
12.23
2.53
-11.75
-26.84
-37.05
-38.16
-28.79
-11.55
8.30
25.54
35.94
38.43
33.65
24.28
13.20
3.49
-1.76
-0.94
6.24
17.13
27.76
33.46
31.53
22.40
9.65
-1.33
-6.84
-6.03
-2.22
0.02
-2.92
-10.74
-19.46
-24.20
-21.97
-14.71
-7.70
-7.13
-15.54
-30.46
-45.25
-52.83
-50.29
-39.60
-27.23
-18.98
-17.22
-19.66
-21.51
-19.27
-12.55
-4.97
-0.41
-1.31
-6.73
-13.46
-18.06
-18.59
-15.35
-9.21
-1.76
6.10
13.02
17.37
17.67
13.54
6.98
1.05
-0.55
3.83
13.43
24.78
33.34
35.57
29.94
18.44
4.93
-5.82
-10.73
-9.08
-2.55
5.95
13.93
18.97
19.97
16.17
8.01
-2.49
-11.63
-15.42
-12.14
-2.96
7.25
13.31
11.94
3.69
-7.94
-19.34
-27.84
-33.28
-35.58
-34.57
-29.10
-19.01
-6.44
4.79
10.33
8.70
1.55
-6.28
-9.88
-6.25
4.40
19.51
35.53
48.16
53.86
49.80
36.16
16.56
-2.19
-13.22
-13.41
-4.60
6.32
12.32
9.31
-1.69
-16.17
-29.72
-39.76
-46.59
-50.33
-50.58
-45.46
-34.22
-18.85
-3.14
8.88
16.09
20.03
24.16
30.15
37.33
42.87
44.40
41.87
36.95
31.94
27.00
20.72
10.78
-3.28
-19.59
-34.84
-45.30
-49.73
-48.47
-43.48
-36.46
-28.78
-21.42
-15.05
-10.80
-8.52
-7.82
-6.86
-4.17
0.91
7.94
16.01
24.62
32.92
40.53
45.81
47.31
44.04
37.04
29.13
23.47
22.00
23.31
24.26
20.92
11.52
-2.89
-19.37
-33.90
-43.90
-47.78
-45.88
-39.10
-29.26
-18.65
-9.19
-2.50
1.39
2.70
2.47
0.97
-1.43
-4.27
-6.14
-4.91
0.04
7.76
14.61
17.09
13.34
5.04
-4.11
-10.72
-12.87
-11.59
-8.36
-4.46
0.06
5.09
9.23
10.04
4.76
-6.45
-20.65
-32.18
-35.92
-29.68
-15.09
3.75
22.37
36.62
43.94
42.68
33.46
19.44
6.01
-1.19
0.42
9.45
20.12
26.24
23.92
13.94
0.40
-12.48
-22.04
-28.51
-32.37
-33.55
-30.37
-22.22
-10.86
0.05
6.51
7.76
6.06
5.75
9.39
16.37
23.37
27.28
27.52
25.59
23.72
21.72
17.68
9.35
-2.87
-15.78
-25.41
-28.88
-27.22
-23.29
-20.12
-18.33
-16.65
-13.74
-9.45
-5.92
-4.90
-7.02
-9.96
-10.86
-8.08
-1.84
5.88
13.58
20.19
25.78
29.38
29.23
23.71
13.02
0.25
-10.09
-13.60
-9.87
-1.98
4.58
6.03
2.44
-2.67
-4.47
-1.12
5.73
11.29
11.70
5.92
-3.44
-11.54
-14.96
-12.87
-8.12
-4.45
-5.24
-11.42
-21.22
-31.60
-38.67
-40.29
-35.45
-25.62
-13.71
-3.15
3.54
5.83
4.49
1.88
-0.56
-1.70
-1.60
-0.04
3.52
10.29
21.08
34.55
47.51
54.94
53.41
42.45
25.55
8.55
-3.38
-7.64
-5.73
-1.11
2.05
1.18
-4.26
-13.82
-26.19
-40.24
-53.50
-63.06
-65.46
-58.99
-44.60
-25.51
-6.02
10.86
23.35
31.63
35.79
36.16
32.99
27.87
23.74
23.39
28.27
36.17
42.83
43.40
35.72
21.25
3.97
-10.90
-20.16
-22.42
-18.77
-11.40
-3.31
2.32
3.24
-1.73
-10.91
-21.22
-28.34
-29.29
-23.57
-13.28
-1.59
8.85
15.79
18.35
15.68
8.45
-1.20
-9.50
-12.64
-9.24
-0.67
8.46
13.96
13.54
8.46
1.81
-4.09
-8.61
-13.42
-19.54
-26.67
-31.99
-32.56
-27.25
-17.05
-4.78
7.18
16.94
23.75
26.70
25.18
19.43
11.36
4.39
1.28
3.32
8.51
13.49
15.04
12.29
6.56
-0.36
-6.78
-12.77
-17.88
-20.96
-19.40
-11.54
1.59
16.38
27.50
31.80
29.11
22.84
16.77
12.80
10.62
8.91
7.48
7.09
9.06
12.44
14.17
10.77
1.15
-12.19
-24.54
-30.89
-29.75
-22.71
-13.75
-6.19
-1.60
-0.01
-0.50
-3.01
-7.18
-12.59
-17.28
-19.14
-16.92
-10.66
-2.10
6.43
12.04
12.73
6.94
-5.11
-20.68
-34.90
-41.88
-38.08
-23.44
-2.85
16.46
27.87
28.76
21.16
9.59
-0.80
-7.65
-10.49
-10.66
-8.98
-5.98
-1.93
2.93
7.65
11.91
15.24
18.03
20.11
20.91
19.64
16.06
11.54
7.79
6.73
8.09
9.96
9.38
4.26
-4.95
-15.94
-24.57
-28.03
-24.97
-16.55
-5.09
6.76
16.71
23.54
26.01
23.97
17.36
7.66
-2.84
-11.21
-15.02
-13.70
-8.06
-0.78
6.03
10.48
11.81
9.59
3.29
-6.79
-19.60
-31.83
-39.63
-39.35
-30.21
-14.55
3.29
18.54
28.51
32.03
29.58
21.63
9.29
-5.47
-19.18
-27.48
-27.68
-19.35
-5.99
7.43
16.13
18.23
14.86
8.79
3.05
-1.60
-5.24
-9.07
-13.12
-16.63
-18.02
-15.78
-9.69
-0.53
8.97
16.03
18.16
14.52
6.10
-4.39
-13.24
-17.67
-15.93
-8.93
0.75
9.41
13.72
12.55
6.68
-0.70
-6.39
-7.61
-4.04
3.06
11.39
18.77
24.08
26.26
25.14
20.16
12.18
3.09
-4.13
-7.22
-6.41
-3.70
-2.67
-4.84
-9.17
-11.75
-8.99
-0.17
12.07
22.31
26.69
23.99
16.88
9.14
3.23
-0.57
-4.03
-8.09
-12.47
-14.80
-13.66
-9.47
-5.35
-5.36
-11.69
-23.58
-36.44
-45.09
-45.52
-37.51
-23.70
-7.68
7.72
21.68
33.41
41.60
43.17
35.90
20.50
1.79
-12.64
-17.06
-9.82
4.53
18.72
26.29
25.37
18.85
11.62
7.28
5.14
2.15
-5.07
-16.44
-28.37
-35.29
-33.13
-22.40
-7.33
5.29
10.84
8.26
0.66
-7.45
-12.80
-14.83
-15.76
-17.25
-19.58
-20.45
-16.95
-7.35
7.55
24.01
38.12
46.33
47.64
42.49
32.53
19.13
3.60
-12.26
-26.60
-36.61
-40.30
-36.57
-26.64
-12.99
1.45
13.86
23.00
27.74
27.84
22.63
12.35
-1.97
-18.13
-32.80
-43.31
-47.35
-44.47
-34.93
-20.62
-3.97
12.40
25.65
34.22
36.97
34.32
26.95
16.44
4.37
-7.61
-17.40
-23.58
-24.65
-20.68
-12.39
-1.90
8.56
17.45
23.87
28.36
30.93
31.48
28.56
21.17
9.35
-4.90
-17.52
-24.84
-24.48
-17.66
-7.40
2.31
9.24
13.83
17.89
23.26
29.17
32.98
30.68
20.45
3.87
-14.39
-28.35
-34.25
-31.36
-22.67
-11.87
-1.94
6.57
14.79
23.57
32.32
37.88
36.91
26.88
9.06
-11.91
-29.74
-39.16
-38.61
-30.15
-19.02
-9.83
-5.19
-4.44
-4.95
-4.30
-2.10
-0.66
-2.57
-9.56
-20.20
-30.72
-37.02
-36.94
-31.49
-23.70
-17.28
-13.34
-10.43
-5.09
4.96
19.04
32.91
40.53
38.20
25.85
8.42
-7.40
-16.06
-16.23
-10.47
-3.01
2.35
5.06
6.65
9.91
16.12
24.78
33.64
39.65
41.15
37.52
30.17
20.92
11.66
3.05
-5.01
-12.73
-20.23
-26.42
-30.26
-30.33
-26.61
-20.02
-12.49
-6.44
-2.87
-2.11
-2.75
-3.40
-2.78
-1.12
0.19
-0.61
-5.21
-13.24
-22.94
-30.68
-33.34
-29.18
-19.42
-8.11
0.36
2.39
-1.97
-9.92
-16.60
-18.44
-14.38
-6.12
3.25
11.68
18.22
23.50
27.37
28.84
26.15
18.07
6.13
-6.19
-13.84
-13.71
-5.66
6.45
16.77
20.56
16.25
6.68
-3.36
-8.89
-8.23
-2.89
3.46
7.33
8.21
7.90
9.78
15.28
23.18
29.15
28.58
19.84
5.43
-8.41
-15.93
-14.36
-6.49
1.51
3.53
-2.75
-13.87
-23.42
-24.97
-17.05
-3.08
9.96
16.10
13.98
7.21
2.25
3.16
9.94
17.58
19.90
13.61
0.22
-14.25
-23.45
-23.40
-15.25
-3.17
7.70
14.56
18.13
20.92
25.24
30.09
32.05
26.59
12.21
-8.14
-27.79
-38.99
-37.68
-24.58
-5.66
12.08
23.12
26.05
23.18
17.80
12.62
7.46
1.29
-7.20
-17.43
-27.18
-33.86
-35.50
-32.42
-26.10
-19.20
-13.23
-8.83
-5.44
-1.91
2.02
6.33
9.90
12.13
12.06
9.48
4.12
-4.10
-13.86
-22.91
-27.75
-26.19
-17.69
-5.13
6.96
14.70
16.59
14.98
13.39
15.31
20.81
27.28
30.34
26.73
16.69
3.33
-8.21
-14.66
-14.99
-11.66
-7.97
-6.21
-6.79
-7.75
-7.53
-5.14
-1.76
1.20
2.30
1.43
0.15
0.13
3.04
8.02
13.00
14.18
8.47
-4.96
-23.73
-42.06
-53.76
-53.95
-42.40
-22.66
-1.30
15.33
24.19
25.36
22.22
18.09
15.71
15.20
15.67
15.73
14.05
10.41
4.74
-1.98
-8.84
-13.61
-14.75
-11.39
-3.91
5.57
15.09
22.40
26.78
27.53
24.75
18.16
7.96
-3.83
-14.01
-18.12
-14.14
-2.94
10.28
19.15
19.38
11.00
-1.10
-11.00
-13.98
-10.00
-1.90
5.92
10.72
12.73
14.10
17.48
22.64
27.44
27.70
20.58
5.95
-12.79
-29.82
-39.87
-39.63
-30.38
-15.99
-1.93
7.57
11.06
9.72
6.95
5.59
7.93
13.72
21.55
28.53
31.85
30.07
23.22
13.73
3.97
-3.71
-9.15
-13.55
-18.92
-26.56
-35.56
-43.75
-47.86
-46.31
-38.85
-27.36
-14.67
-3.87
2.60
4.16
1.69
-1.68
-2.56
1.36
9.59
18.92
25.01
23.99
15.44
1.28
-14.26
-27.46
-35.75
-38.20
-35.44
-28.47
-19.61
-11.40
-6.76
-6.30
-8.12
-8.36
-3.41
7.09
20.38
31.35
36.62
36.06
33.13
31.95
34.37
38.68
39.88
33.86
19.50
-0.06
-19.60
-34.03
-40.62
-39.65
-32.72
-22.71
-12.10
-3.54
0.83
-0.29
-6.71
-16.12
-24.88
-28.41
-24.13
-11.59
6.59
25.49
39.80
45.37
41.01
28.37
12.44
-1.25
-8.23
-7.23
-0.53
7.85
13.28
13.29
7.15
-3.35
-15.75
-27.16
-34.97
-37.86
-35.03
-27.84
-18.37
-9.75
-3.91
-1.09
0.19
2.36
6.60
12.98
19.57
24.67
27.13
27.10
25.27
22.21
18.57
14.31
10.37
7.54
6.36
5.69
3.23
-3.04
-13.83
-26.49
-37.17
-41.88
-39.53
-32.05
-23.06
-16.26
-12.66
-11.52
-10.42
-8.10
-3.94
1.62
7.49
12.98
17.13
19.67
20.37
20.71
22.33
26.90
34.36
42.61
48.82
50.06
45.71
36.43
24.47
11.28
-1.86
-13.58
-22.17
-24.85
-20.71
-11.01
-0.47
5.19
1.87
-10.50
-27.59
-43.24
-51.61
-50.99
-42.74
-30.65
-18.95
-10.37
-5.87
-4.29
-3.68
-0.83
6.26
18.49
34.38
50.22
61.75
65.11
59.35
45.80
28.65
12.05
-0.44
-6.96
-7.68
-3.63
2.49
7.79
8.66
2.66
-11.08
-30.08
-49.05
-61.77
-62.88
-51.78
-32.19
-11.47
3.00
7.00
0.94
-10.69
-22.58
-30.33
-33.15
-31.91
-27.94
-21.66
-12.23
0.67
16.19
31.08
42.04
46.32
44.03
37.64
30.73
26.31
25.21
26.77
29.06
31.19
32.70
33.64
33.34
30.19
22.94
11.33
-2.11
-13.42
-18.65
-16.36
-9.04
-2.05
-1.39
-9.64
-25.37
-42.89
-55.93
-59.90
-53.94
-40.84
-24.97
-11.23
-2.45
0.18
-2.20
-7.37
-12.23
-13.85
-10.43
-1.33
11.49
24.96
35.17
39.29
36.23
27.17
14.75
1.88
-8.35
-14.17
-14.46
-9.08
0.68
12.39
22.35
27.07
24.10
14.33
0.86
-11.44
-18.89
-20.61
-18.22
-15.13
-13.51
-13.87
-14.35
-13.16
-9.77
-5.41
-2.91
-4.06
-9.45
-16.85
-23.29
-25.82
-23.43
-17.28
-9.61
-2.78
2.92
8.20
15.02
24.36
35.06
43.92
47.18
42.94
32.21
19.84
11.10
9.45
13.62
18.35
17.35
6.12
-14.48
-39.57
-61.58
-74.52
-75.95
-67.01
-51.65
-33.74
-17.28
-4.92
0.79
-1.13
-9.96
-22.48
-33.28
-37.30
-31.07
-15.80
4.41
23.39
36.19
40.59
37.54
30.64
23.48
19.36
19.25
23.13
29.52
36.26
41.31
42.61
39.84
33.77
27.21
22.80
22.29
25.44
29.83
32.92
32.63
29.23
23.69
17.61
11.36
4.82
-1.86
-8.32
-12.93
-15.48
-16.81
-19.82
-26.81
-38.06
-50.67
-59.42
-60.14
-51.08
-35.31
-18.12
-4.97
1.28
1.21
-2.55
-6.82
-10.44
-13.31
-16.45
-19.59
-20.88
-17.70
-8.34
5.88
21.49
33.48
38.81
37.11
31.14
24.74
20.33
18.39
17.29
15.96
13.99
12.94
14.25
18.22
23.06
25.40
23.24
16.40
8.04
2.29
2.56
8.88
17.46
22.77
19.95
8.51
-8.39
-24.51
-34.73
-37.13
-33.55
-27.93
-23.14
-20.04
-16.56
-10.67
-1.67
8.50
16.27
18.38
13.16
2.08
-12.14
-25.65
-35.58
-39.76
-37.17
-27.90
-12.77
5.32
22.85
35.48
40.35
36.73
27.03
15.56
6.13
0.85
-1.70
-3.84
-7.66
-12.22
-14.10
-9.02
4.93
24.87
44.12
54.39
50.56
32.72
6.89
-18.07
-34.21
-37.34
-28.79
-13.32
2.12
11.78
11.93
2.24
-14.58
-33.61
-48.57
-54.39
-48.36
-32.37
-11.71
6.60
16.73
16.54
7.61
-4.80
-15.35
-19.77
-17.12
-8.68
2.81
14.80
25.86
35.14
42.65
47.88
51.12
52.99
55.00
58.42
63.09
67.35
67.30
59.51
41.78
15.64
-14.53
-42.29
-61.67
-69.49
-65.40
-52.75
-36.53
-22.20
-13.75
-13.12
-19.69
-30.34
-41.31
-48.53
-50.23
-46.40
-38.68
-29.24
-19.94
-12.01
-6.15
-4.02
-7.16
-16.86
-31.83
-48.07
-59.58
-60.82
-50.27
-30.81
-9.41
7.37
15.77
17.30
17.04
20.28
29.80
43.65
56.92
63.91
61.71
50.61
34.04
16.69
2.00
-8.18
-14.24
-16.98
-17.30
-15.07
-10.29
-3.48
3.89
9.20
10.76
8.13
3.22
-1.31
-3.40
-3.02
-2.44
-3.92
-8.96
-15.86
-21.51
-22.36
-16.99
-6.65
5.36
15.15
20.85
21.97
20.25
17.64
15.49
14.08
12.76
10.55
5.92
-1.54
-11.88
-23.50
-33.75
-39.51
-38.23
-29.55
-15.29
0.30
13.02
19.58
19.80
16.35
13.01
13.00
16.44
21.22
23.51
21.02
13.69
3.77
-5.57
-13.03
-18.36
-22.73
-26.02
-26.92
-23.04
-13.55
-0.33
12.62
20.31
20.56
14.20
5.21
-1.98
-4.52
-2.14
3.18
9.26
13.99
16.88
17.29
14.66
8.02
-2.84
-16.16
-28.62
-35.55
-34.14
-24.07
-8.70
6.76
18.14
23.70
25.31
25.81
27.84
31.14
33.73
32.62
26.02
14.33
-0.79
-16.11
-29.05
-37.45
-40.26
-37.24
-29.18
-18.02
-6.01
3.87
9.64
9.95
5.28
-2.98
-12.35
-19.45
-21.43
-16.49
-5.57
8.81
22.45
31.83
35.20
32.99
27.29
20.12
13.58
8.52
6.01
6.56
10.15
15.06
17.48
13.99
2.63
-14.43
-31.88
-43.56
-45.98
-40.23
-30.93
-23.87
-22.09
-25.47
-30.46
-33.49
-32.51
-27.58
-20.38
-12.27
-4.38
3.32
10.30
16.26
20.72
23.72
26.17
28.81
32.46
36.38
39.37
39.27
35.23
28.03
20.12
15.29
15.82
22.03
30.88
38.11
39.83
34.69
24.23
11.49
0.19
-8.08
-12.74
-14.82
-15.04
-13.55
-10.37
-5.69
-0.94
2.37
2.28
-1.65
-9.23
-19.44
-30.83
-42.19
-51.60
-57.63
-58.37
-53.25
-42.86
-29.49
-16.50
-6.99
-3.16
-4.74
-10.32
-17.09
-23.01
-26.89
-28.60
-28.97
-28.11
-26.30
-22.86
-17.57
-10.24
-1.33
8.09
16.73
22.76
25.20
23.15
17.42
9.48
1.98
-2.34
-2.09
3.30
12.13
22.24
30.93
36.63
38.82
38.00
35.50
32.16
28.98
25.84
22.64
18.74
13.83
8.03
1.70
-3.46
-6.10
-4.94
-0.57
5.03
8.74
7.96
2.51
-5.72
-12.64
-15.37
-12.48
-5.44
3.15
11.07
17.20
22.03
25.80
28.70
29.38
26.96
21.23
13.47
6.39
2.13
2.31
6.17
12.06
17.56
21.43
23.55
24.60
25.59
26.06
24.97
20.60
12.92
3.54
-4.36
-7.75
-5.80
-0.12
5.27
6.80
2.30
-7.44
-19.98
-32.43
-43.05
-52.02
-59.54
-65.65
-68.38
-65.41
-54.97
-37.72
-17.86
-1.10
6.73
3.37
-9.44
-25.74
-38.67
-43.18
-37.72
-25.05
-9.54
4.10
13.39
17.17
15.84
10.27
1.74
-7.43
-14.85
-17.77
-15.32
-8.38
-0.05
6.43
9.15
7.92
4.56
0.77
-1.80
-2.56
-1.18
2.55
8.76
17.55
28.03
39.30
49.30
56.36
58.57
54.99
46.22
34.11
22.03
12.57
7.67
6.98
9.31
13.25
17.79
22.44
25.82
26.00
20.30
7.74
-10.48
-30.38
-47.12
-56.92
-57.75
-50.25
-36.06
-18.08
0.36
15.07
22.12
19.10
6.24
-12.11
-29.93
-40.78
-41.50
-32.57
-17.87
-2.96
7.80
11.76
9.35
2.34
-6.23
-13.82
-18.72
-20.41
-19.39
-16.00
-11.05
-4.91
1.05
5.57
7.38
6.06
2.88
-0.49
-1.78
-0.49
2.93
6.87
10.25
13.17
15.90
18.92
21.04
20.80
16.84
9.89
2.46
-2.11
-1.48
3.96
11.86
18.31
20.78
18.61
13.54
8.20
4.98
5.37
9.35
16.80
26.21
35.63
42.25
43.14
36.77
23.29
5.67
-12.19
-25.92
-33.00
-33.08
-28.07
-21.62
-17.41
-18.44
-25.31
-36.65
-48.92
-58.48
-62.74
-61.13
-55.31
-46.95
-37.64
-27.62
-17.53
-8.30
-1.56
1.25
0.63
-1.78
-3.00
-1.45
2.99
8.54
13.06
15.40
15.23
13.52
10.92
8.35
6.44
6.20
8.56
14.10
22.60
32.56
42.59
50.74
55.90
57.08
54.12
47.89
39.67
31.72
25.18
20.80
17.81
15.49
13.69
12.82
13.56
15.02
15.20
11.00
0.95
-14.13
-30.91
-45.10
-53.64
-55.06
-50.40
-41.38
-30.82
-21.47
-16.35
-17.42
-24.29
-34.43
-42.68
-44.71
-38.16
-24.99
-9.56
3.37
10.55
12.00
9.12
4.40
-0.48
-4.04
-5.24
-3.20
2.30
9.80
17.08
21.05
20.37
15.53
9.46
5.30
5.27
9.77
17.18
25.97
34.30
41.43
46.40
48.13
45.63
38.41
27.84
16.48
8.01
4.05
3.94
4.40
1.46
-6.69
-19.09
-31.54
-39.54
-39.93
-32.89
-21.30
-9.25
-0.29
4.26
4.64
2.71
0.09
-1.66
-2.00
-1.09
0.01
-0.72
-4.53
-12.04
-21.58
-30.36
-35.02
-33.57
-26.12
-14.61
-2.23
8.93
17.33
22.77
24.96
23.32
17.41
7.03
-5.95
-18.91
-28.53
-33.30
-33.17
-29.64
-24.10
-16.49
-5.97
8.52
25.78
42.21
52.49
52.29
41.14
22.57
3.50
-10.09
-14.72
-11.19
-2.80
6.38
13.11
15.91
13.78
6.98
-4.40
-18.98
-34.53
-47.60
-54.47
-53.01
-42.86
-26.65
-8.13
8.00
18.62
22.39
20.21
14.88
9.18
5.26
3.14
1.92
0.15
-2.87
-6.76
-11.01
-14.49
-17.09
-18.51
-19.13
-19.04
-18.36
-17.00
-14.27
-9.87
-2.81
6.57
17.63
28.29
36.48
40.72
41.05
39.26
37.26
36.87
37.90
38.95
38.15
34.35
27.87
19.91
12.42
6.13
1.42
-2.30
-5.53
-8.20
-10.70
-13.09
-16.51
-21.67
-29.34
-38.55
-47.23
-52.38
-51.12
-43.06
-29.67
-15.11
-3.66
1.09
-1.61
-9.89
-19.66
-25.65
-23.93
-12.77
5.51
25.26
39.19
41.65
31.18
11.21
-10.95
-27.98
-34.64
-30.17
-17.07
0.70
19.11
34.98
45.41
48.77
44.40
34.20
21.85
11.32
5.47
3.86
4.41
4.00
1.24
-3.66
-8.81
-12.36
-13.79
-13.36
-12.61
-12.46
-13.76
-16.29
-19.69
-22.77
-23.72
-21.10
-13.80
-2.60
10.36
21.20
26.30
23.28
12.79
-0.99
-12.31
-15.51
-8.61
6.16
23.23
36.59
42.68
41.16
34.56
25.60
16.62
8.53
2.06
-1.71
-1.66
2.81
10.18
17.69
21.75
20.58
14.27
4.74
-5.48
-15.28
-24.57
-34.26
-44.22
-53.47
-59.64
-60.35
-54.82
-43.92
-30.86
-18.80
-10.27
-5.37
-2.97
-1.36
0.31
1.42
1.26
-0.90
-3.97
-6.30
-5.74
-1.19
7.03
17.31
26.92
33.66
35.67
32.80
25.64
15.99
6.01
-2.03
-5.94
-4.91
1.11
10.13
18.96
23.82
21.97
13.29
0.32
-12.01
-19.45
-19.21
-11.92
-0.31
12.28
23.04
30.85
35.13
36.20
33.75
28.21
20.06
10.52
1.09
-7.45
-14.73
-21.72
-28.87
-36.49
-43.33
-47.64
-47.90
-43.52
-36.02
-27.47
-20.42
-15.59
-12.43
-9.11
-4.05
2.69
10.22
16.42
20.44
22.08
22.40
22.14
21.59
20.43
17.85
14.23
10.05
6.70
4.80
4.76
6.36
9.27
13.78
19.71
27.01
34.01
38.35
37.09
28.69
14.16
-3.14
-18.00
-26.71
-27.68
-23.04
-16.62
-11.94
-10.69
-11.83
-13.59
-13.92
-12.79
-10.75
-9.00
-8.05
-7.38
-6.78
-6.12
-6.63
-9.02
-13.61
-18.88
-22.77
-23.98
-22.65
-21.09
-21.36
-24.64
-29.10
-31.36
-27.96
-17.59
-2.59
13.08
24.90
31.02
31.53
28.35
23.00
16.23
8.73
1.24
-3.84
-4.65
-0.18
7.98
16.53
21.99
22.49
19.16
14.69
12.58
14.40
19.71
26.36
31.93
34.71
34.03
30.67
25.26
18.89
11.97
4.61
-2.87
-10.72
-18.52
-26.46
-34.10
-41.27
-46.75
-49.04
-46.63
-38.48
-25.96
-11.66
0.23
6.49
5.48
-1.43
-10.77
-18.24
-19.60
-12.96
1.29
19.62
36.43
45.48
42.77
28.45
7.30
-12.58
-24.01
-23.17
-11.74
4.90
20.32
29.60
31.02
25.26
15.20
3.86
-5.49
-10.37
-9.76
-4.08
3.94
11.17
14.32
12.30
5.79
-2.78
-10.64
-16.21
-18.94
-19.98
-20.67
-22.66
-26.48
-31.71
-36.52
-38.42
-35.67
-27.47
-15.05
-0.71
12.03
20.04
21.04
14.97
4.83
-4.70
-8.36
-3.78
7.62
20.84
29.70
30.08
21.52
7.48
-7.04
-17.17
-20.43
-16.45
-6.10
8.75
25.60
40.79
50.78
52.35
45.13
31.13
14.55
0.12
-9.41
-12.94
-11.81
-8.04
-4.26
-2.02
-2.05
-3.81
-5.25
-4.70
-0.65
6.35
14.43
20.43
22.22
19.38
14.01
9.88
10.09
16.08
25.72
34.35
36.48
28.58
10.95
-12.27
-34.32
-49.62
-54.99
-51.34
-42.03
-31.09
-22.09
-17.01
-16.85
-20.78
-27.24
-33.03
-35.01
-31.39
-22.29
-10.81
-0.51
5.38
6.46
4.06
0.76
-1.71
-3.14
-3.75
-4.49
-5.22
-5.92
-6.21
-6.40
-6.50
-6.11
-4.50
-0.36
6.47
15.47
24.33
30.54
31.87
27.90
20.49
12.62
8.00
8.10
12.47
18.42
22.74
23.36
20.03
14.57
8.72
4.26
1.19
-0.99
-2.82
-4.42
-5.04
-4.60
-3.12
-1.96
-1.99
-4.06
-7.92
-12.79
-18.23
-23.76
-29.76
-35.71
-41.07
-44.04
-43.08
-37.38
-27.32
-15.24
-3.47
5.55
11.20
13.65
14.20
13.87
13.27
13.19
13.78
15.90
19.41
23.61
26.61
26.50
22.29
14.53
5.90
-0.94
-3.62
-2.22
1.69
5.72
8.13
8.78
8.42
8.77
10.49
13.64
16.82
18.18
16.11
9.50
-0.97
-13.90
-26.27
-35.35
-38.73
-35.62
-27.49
-17.19
-8.82
-5.01
-6.95
-12.77
-19.32
-22.94
-21.20
-14.10
-2.94
9.38
20.59
28.45
31.93
30.49
24.65
16.31
7.73
1.84
-0.12
1.72
5.07
7.44
7.38
5.39
4.27
6.56
13.86
24.55
34.79
39.78
36.22
24.17
6.57
-11.45
-25.64
-33.21
-34.12
-29.78
-22.42
-14.97
-10.21
-10.92
-17.70
-28.86
-39.55
-44.06
-38.54
-22.77
-1.43
19.34
33.82
40.10
39.12
33.87
26.72
18.70
10.60
