1679899854.00
64.000000
-0.00
-0.00
-0.00
-0.00
-0.00
-0.00
-0.00
-0.00
-0.00
-0.00
0.00
0.01
0.01
-0.00
-0.03
-0.05
-0.05
0.00
0.13
0.36
0.66
1.01
1.37
1.72
2.06
2.40
2.79
3.24
3.80
4.42
5.06
5.66
6.20
6.68
7.15
7.68
8.31
9.14
10.09
11.04
11.88
12.56
13.14
13.76
14.65
15.96
17.91
20.32
22.90
25.38
27.58
29.57
31.68
34.32
37.81
42.54
48.15
54.10
59.83
64.97
69.58
74.14
79.34
85.71
93.76
103.00
112.62
121.73
129.77
136.75
143.30
150.75
157.77
166.64
177.95
191.79
206.97
220.57
228.25
225.36
208.53
176.87
132.76
80.05
23.07
-34.94
-92.44
-149.16
-205.23
-260.37
-313.74
-363.87
-409.83
-450.91
-486.50
-515.74
-537.23
-549.22
-549.96
-538.37
-514.21
-478.67
-433.88
-382.45
-327.02
-269.84
-212.63
-156.66
-102.95
-52.37
-5.90
35.58
71.43
101.35
125.50
144.38
158.69
169.15
176.37
180.75
182.57
182.07
179.51
175.23
169.65
163.18
156.15
148.81
141.30
133.69
126.02
118.33
110.69
103.16
95.80
88.68
81.83
75.25
68.95
62.95
57.25
51.86
46.78
42.03
37.59
33.45
29.61
26.07
22.81
19.83
17.11
14.67
12.48
10.54
8.83
7.35
6.07
4.97
4.05
3.27
2.62
2.09
1.65
1.30
1.01
0.79
0.61
0.47
0.37
0.28
0.22
0.18
0.15
0.13
0.12
0.13
0.13
0.15
0.17
0.20
0.24
0.27
0.31
0.35
0.40
0.45
0.49
0.54
0.59
0.64
0.70
0.76
0.82
0.89
0.97
1.05
1.15
1.25
1.37
1.50
1.65
1.81
2.00
2.21
2.43
2.68
2.96
3.27
3.61
3.97
4.38
4.81
5.29
5.80
6.35
6.94
7.57
8.25
8.97
9.73
10.54
11.39
12.29
13.23
14.23
15.29
16.42
17.60
18.84
20.11
21.37
22.58
23.64
24.45
24.85
24.71
23.91
22.36
20.04
16.98
13.28
9.06
4.49
-0.24
-4.91
-9.36
-13.38
-16.81
-19.53
-21.47
-22.61
-23.02
-22.85
-22.28
-21.47
-20.55
-19.57
-18.53
-17.38
-16.10
-14.75
-13.43
-12.30
-11.49
-11.02
-10.77
-10.55
-10.13
-9.38
-8.37
-7.37
-6.70
-6.65
-7.29
-8.41
-9.62
-10.48
-10.75
-10.48
-10.12
-10.21
-11.21
-13.25
-16.05
-19.02
-21.58
-23.35
-24.36
-25.08
-26.05
-27.92
-31.28
-36.58
-43.89
-52.48
-60.59
-65.64
-65.09
-57.32
-42.62
-23.28
-2.81
15.41
29.22
38.12
43.39
46.07
47.06
46.79
45.40
43.01
40.10
37.37
35.47
34.58
34.23
33.71
32.32
29.77
26.32
22.64
19.42
17.08
15.54
14.29
12.77
10.59
7.69
4.26
0.71
-2.65
-5.66
-8.34
-10.85
-13.26
-15.55
-17.52
-18.86
-19.19
-18.25
-16.03
-12.72
-8.74
-4.58
-0.65
2.76
5.50
7.55
8.95
9.78
10.18
10.33
10.44
10.65
11.05
11.60
12.20
12.74
13.14
13.38
13.48
13.52
13.51
13.43
13.22
12.80
12.16
11.24
10.10
8.74
7.24
5.61
3.90
2.14
0.40
-1.27
-2.76
-3.95
-4.79
-5.28
-5.57
-5.90
-6.51
-7.58
-9.11
-10.92
-12.75
-14.27
-15.21
-15.42
-14.83
-13.44
-11.30
-8.51
-5.27
-1.88
1.31
4.01
6.02
7.30
7.98
8.22
8.17
7.92
7.50
6.95
6.35
5.83
5.51
5.45
5.62
5.92
6.24
6.48
6.58
6.54
6.32
5.92
5.37
4.70
3.93
3.08
2.12
0.98
-0.36
-1.85
-3.38
-4.81
-6.00
-6.83
-7.19
-7.00
-6.24
-5.01
-3.60
-2.38
-1.69
-1.64
-2.07
-2.57
-2.72
-2.30
-1.35
-0.21
0.83
1.55
1.95
2.18
2.37
2.55
2.62
2.45
1.96
1.24
0.46
-0.15
-0.47
-0.43
-0.11
0.35
0.92
1.58
2.32
3.07
3.67
3.95
3.82
3.30
2.50
1.58
0.58
-0.48
-1.67
-2.98
-4.38
-5.86
-7.41
-9.11
-11.04
-13.26
-15.72
-18.27
-20.65
-22.63
-23.98
-24.53
-24.26
-23.21
-21.53
-19.39
-16.98
-14.47
-12.00
-9.72
-7.74
-6.17
-5.05
-4.34
-3.96
-3.78
-3.60
-3.23
-2.52
-1.41
0.05
1.63
3.07
4.13
4.69
4.79
4.60
4.28
3.97
3.69
3.41
2.98
2.29
1.27
-0.07
-1.61
-3.25
-4.91
-6.64
-8.52
-10.63
-12.90
-15.12
-16.99
-18.18
-18.49
-17.90
-16.51
-14.49
-12.02
-9.21
-6.22
-3.22
-0.41
2.00
3.88
5.20
6.04
6.48
6.66
6.61
6.39
6.03
5.56
5.07
4.62
4.27
4.01
3.80
3.56
3.16
2.49
1.46
0.01
-1.78
-3.75
-5.69
-7.42
-8.85
-10.00
-10.99
-12.01
-13.18
-14.60
-16.19
-17.79
-19.14
-19.93
-19.85
-18.71
-16.48
-13.30
-9.50
-5.43
-1.41
2.29
5.53
8.28
10.54
12.29
13.55
14.33
14.69
14.72
14.62
14.56
14.67
14.96
15.32
15.57
15.54
15.15
14.40
13.41
12.30
11.17
10.08
9.01
7.94
6.75
5.38
3.75
1.88
-0.19
-2.34
-4.52
-6.80
-9.26
-12.00
-14.97
-17.97
-20.73
-22.93
-24.31
-24.72
-24.06
-22.30
-19.52
-15.93
-11.88
-7.76
-3.89
-0.45
2.56
5.22
7.61
9.77
11.67
13.27
14.59
15.67
16.56
17.26
17.80
18.16
18.33
18.31
18.09
17.69
17.09
16.32
15.42
14.46
13.48
12.45
11.30
9.97
8.42
6.67
4.79
2.88
0.99
-0.93
-3.00
-5.36
-8.05
-11.02
-14.06
-16.93
-19.42
-21.30
-22.38
-22.44
-21.31
-18.92
-15.42
-11.12
-6.43
-1.69
2.89
7.20
11.16
14.61
17.33
19.13
20.02
20.19
20.00
19.82
19.89
20.20
20.67
21.12
21.43
21.54
21.42
21.09
20.58
19.95
19.27
18.58
17.87
17.02
15.87
14.27
12.14
9.57
6.76
3.93
1.26
-1.17
-3.42
-5.62
-7.94
-10.52
-13.42
-16.60
-19.87
-22.90
-25.28
-26.59
-26.48
-24.84
-21.75
-17.50
-12.53
-7.33
-2.31
2.20
6.04
9.18
11.63
13.49
14.83
15.80
16.51
17.09
17.57
17.95
18.21
18.32
18.35
18.39
18.58
18.92
19.30
19.54
19.47
19.00
18.15
16.95
15.43
13.58
11.34
8.78
6.05
3.41
1.10
-0.75
-2.19
-3.38
-4.58
-6.02
-7.87
-10.21
-12.99
-16.09
-19.24
-22.11
-24.31
-25.45
-25.28
-23.69
-20.83
-17.00
-12.60
-8.08
-3.78
0.10
3.47
6.34
8.76
10.74
12.29
13.41
14.11
14.43
14.49
14.43
14.42
14.54
14.81
15.16
15.47
15.65
15.62
15.41
15.04
14.54
13.85
12.89
11.58
9.94
8.04
6.05
4.15
2.44
0.94
-0.44
-1.83
-3.37
-5.11
-7.06
-9.15
-11.33
-13.57
-15.88
-18.29
-20.71
-22.92
-24.56
-25.17
-24.40
-22.13
-18.57
-14.18
-9.56
-5.22
-1.48
1.56
4.00
6.01
7.77
9.36
10.80
11.96
12.73
13.02
12.87
12.44
11.94
11.58
11.43
11.44
11.51
11.52
11.46
11.36
11.24
11.05
10.75
10.24
9.52
8.62
7.61
6.55
5.44
4.27
2.96
1.45
-0.29
-2.23
-4.28
-6.31
-8.25
-10.11
-11.99
-14.01
-16.25
-18.57
-20.71
-22.28
-22.98
-22.60
-21.18
-18.84
-15.79
-12.25
-8.42
-4.54
-0.88
2.29
4.76
6.41
7.27
7.48
7.32
7.11
7.06
7.31
7.80
8.37
8.89
9.29
9.64
10.05
10.57
11.11
11.48
11.47
10.94
9.96
8.68
7.35
6.12
5.06
4.13
3.27
2.35
1.29
-0.03
-1.63
-3.46
-5.40
-7.26
-8.87
-10.15
-11.20
-12.23
-13.48
-15.11
-17.05
-19.04
-20.63
-21.39
-21.00
-19.38
-16.69
-13.31
-9.64
-6.05
-2.81
0.01
2.36
4.25
5.65
6.54
6.94
6.94
6.72
6.46
6.30
6.26
6.25
6.14
5.88
5.54
5.29
5.33
5.72
6.32
6.89
7.16
6.98
6.40
5.63
4.86
4.22
3.61
2.90
1.92
0.59
-0.98
-2.66
-4.28
-5.80
-7.25
-8.71
-10.20
-11.73
-13.25
-14.75
-16.19
-17.54
-18.69
-19.43
-19.52
-18.74
-16.97
-14.22
-10.66
-6.57
-2.32
1.67
5.07
7.59
9.14
9.78
9.70
9.09
8.18
7.12
6.08
5.19
4.56
4.25
4.26
4.55
5.05
5.67
6.30
6.76
6.85
6.48
5.67
4.58
3.45
2.46
1.67
1.00
0.29
-0.57
-1.60
-2.77
-3.99
-5.22
-6.43
-7.57
-8.59
-9.42
-10.10
-10.77
-11.62
-12.81
-14.40
-16.24
-18.01
-19.29
-19.68
-18.88
-16.83
-13.69
-9.86
-5.87
-2.28
0.55
2.47
3.61
4.27
4.74
5.21
5.67
6.04
6.18
6.06
5.74
5.35
5.04
4.87
4.84
4.88
4.94
4.97
4.95
4.86
4.61
4.12
3.37
2.41
1.41
0.59
0.10
-0.12
-0.22
-0.50
-1.11
-2.10
-3.31
-4.60
-5.86
-7.07
-8.31
-9.62
-11.04
-12.54
-14.06
-15.49
-16.69
-17.45
-17.53
-16.80
-15.20
-12.88
-10.08
-7.10
-4.19
-1.51
0.83
2.74
4.14
4.98
5.29
5.14
4.70
4.10
3.52
3.05
2.77
2.73
2.90
3.22
3.55
3.73
3.66
3.33
2.87
2.50
2.44
2.77
3.38
4.01
4.37
4.25
3.67
2.77
1.73
0.70
-0.32
-1.37
-2.50
-3.69
-4.88
-5.97
-6.96
-7.91
-8.93
-10.08
-11.39
-12.78
-14.07
-15.09
-15.58
-15.33
-14.22
-12.30
-9.80
-7.06
-4.46
-2.25
-0.50
0.83
1.90
2.79
3.50
3.94
4.06
3.84
3.37
2.81
2.31
1.95
1.78
1.77
1.90
2.16
2.53
2.98
3.46
3.88
4.13
4.12
3.78
3.09
2.12
0.97
-0.18
-1.23
-2.13
-2.93
-3.75
-4.64
-5.56
-6.38
-6.97
-7.35
-7.68
-8.28
-9.38
-11.05
-13.08
-15.07
-16.53
-17.07
-16.45
-14.71
-12.08
-8.95
-5.74
-2.79
-0.33
1.55
2.82
3.48
3.51
2.92
1.86
0.61
-0.43
-0.95
-0.81
-0.13
0.82
1.82
2.74
3.64
4.60
5.67
6.70
7.50
7.85
7.65
6.99
6.06
5.05
4.08
3.18
2.30
1.35
0.27
-0.96
-2.29
-3.69
-5.10
-6.51
-7.94
-9.44
-11.06
-12.82
-14.65
-16.41
-17.85
-18.71
-18.72
-17.71
-15.63
-12.60
-8.92
-4.98
-1.19
2.09
4.66
6.46
7.58
8.19
8.42
8.43
8.33
8.22
8.17
8.24
8.41
8.64
8.82
8.87
8.77
8.56
8.27
7.90
7.42
6.73
5.79
4.64
3.37
2.11
0.97
-0.03
-0.92
-1.79
-2.69
-3.63
-4.59
-5.53
-6.47
-7.46
-8.60
-9.97
-11.64
-13.59
-15.73
-17.83
-19.60
-20.70
-20.86
-19.95
-17.99
-15.19
-11.86
-8.36
-4.99
-1.97
0.55
2.56
4.07
5.20
6.07
6.80
7.49
8.13
8.74
9.30
9.88
10.53
11.28
12.09
12.81
13.33
13.52
13.37
12.95
12.35
11.62
10.76
9.73
8.51
7.14
5.73
4.42
3.26
2.22
1.14
-0.15
-1.75
-3.60
-5.52
-7.37
-9.10
-10.92
-13.11
-15.85
-19.04
-22.22
-24.66
-25.70
-24.95
-22.45
-18.66
-14.21
-9.67
-5.48
-1.83
1.22
3.70
5.68
7.21
8.35
9.17
9.73
10.14
10.50
10.91
11.46
12.11
12.81
13.41
13.80
13.98
14.01
14.01
14.08
14.21
14.33
14.32
14.08
13.56
12.75
11.70
10.38
8.80
6.96
4.84
2.51
0.06
-2.37
-4.64
-6.62
-8.33
-9.85
-11.35
-12.99
-14.82
-16.73
-18.43
-19.59
-19.88
-19.17
-17.48
-15.01
-12.01
-8.76
-5.48
-2.35
0.47
2.87
4.76
6.14
7.11
7.83
8.53
9.35
10.33
11.43
12.50
13.42
14.13
14.66
15.10
15.52
15.93
16.31
16.53
16.51
16.19
15.59
14.78
13.81
12.76
11.67
10.52
9.28
7.87
6.25
4.40
2.42
0.47
-1.30
-2.87
-4.30
-5.74
-7.42
-9.42
-11.75
-14.26
-16.73
-18.90
-20.50
-21.31
-21.16
-19.98
-17.85
-14.99
-11.71
-8.37
-5.22
-2.41
0.04
2.18
4.09
5.83
7.40
8.77
9.92
10.80
11.49
12.06
12.62
13.20
13.84
14.48
15.07
15.56
15.92
16.17
16.30
16.33
16.26
16.03
15.55
14.76
13.65
12.31
10.91
9.59
8.42
7.33
6.16
4.83
3.34
1.82
0.40
-0.89
-2.22
-3.87
-6.12
-9.02
-12.38
-15.79
-18.79
-21.01
-22.22
-22.32
-21.28
-19.15
-16.03
-12.14
-7.83
-3.51
0.43
3.73
6.29
8.17
9.50
10.42
11.07
11.55
11.92
12.28
12.69
13.18
13.75
14.34
14.86
15.21
15.37
15.39
15.35
15.34
15.41
15.48
15.44
15.18
14.62
13.80
12.79
11.67
10.48
9.22
7.88
6.48
5.05
3.62
2.22
0.79
-0.74
-2.43
-4.33
-6.42
-8.70
-11.11
-13.65
-16.22
-18.65
-20.71
-22.07
-22.44
-21.69
-19.85
-17.13
-13.81
-10.21
-6.54
-2.97
0.39
3.42
5.99
8.01
9.46
10.38
10.93
11.29
11.61
12.02
12.54
13.15
13.80
14.46
15.12
15.76
16.31
16.66
16.72
16.43
15.83
15.01
14.09
13.13
12.18
11.22
10.20
9.10
7.87
6.51
5.00
3.38
1.70
0.04
-1.53
-2.95
-4.21
-5.35
-6.43
-7.58
-8.92
-10.57
-12.55
-14.76
-16.88
-18.51
-19.24
-18.84
-17.31
-14.96
-12.20
-9.39
-6.77
-4.35
-2.06
0.12
2.14
3.88
5.21
6.14
6.79
7.32
7.87
8.52
9.28
10.15
11.15
12.28
13.47
14.59
15.45
15.88
15.83
15.39
14.68
13.80
12.79
11.63
10.29
8.79
7.25
5.79
4.55
3.55
2.71
1.92
1.03
-0.03
-1.29
-2.72
-4.32
-6.10
-8.09
-10.29
-12.65
-15.04
-17.24
-19.01
-20.12
-20.37
-19.65
-17.94
-15.33
-12.04
-8.37
-4.69
-1.36
1.38
3.40
4.71
5.41
5.67
5.66
5.54
5.43
5.42
5.60
6.01
6.65
7.48
8.39
9.26
9.96
10.39
10.50
10.28
9.78
9.07
8.21
7.25
6.21
5.08
3.86
2.58
1.36
0.28
-0.61
-1.32
-2.00
-2.78
-3.76
-4.94
-6.21
-7.47
-8.70
-10.02
-11.57
-13.41
-15.37
-17.09
-18.10
-18.06
-16.82
-14.51
-11.47
-8.05
-4.57
-1.27
1.64
4.00
5.70
6.72
7.15
7.19
7.03
6.89
6.83
6.92
7.13
7.45
7.86
8.34
8.86
9.38
9.83
10.12
10.18
9.96
9.47
8.79
8.04
7.32
6.61
5.80
4.70
3.18
1.22
-1.06
-3.41
-5.58
-7.40
-8.83
-9.98
-11.07
-12.33
-13.92
-15.89
-18.14
-20.43
-22.40
-23.74
-24.16
-23.57
-21.99
-19.55
-16.45
-12.92
-9.23
-5.64
-2.41
0.27
2.31
3.76
4.76
5.48
5.99
6.35
6.55
6.56
6.47
6.38
6.39
6.52
6.72
6.85
6.84
6.71
6.59
6.62
6.88
7.30
7.69
7.79
7.41
6.50
5.23
3.80
2.41
1.16
-0.03
-1.24
-2.55
-3.99
-5.57
-7.28
-9.17
-11.24
-13.47
-15.74
-17.83
-19.51
-20.58
-20.87
-20.28
-18.81
-16.52
-13.61
-10.43
-7.36
-4.66
-2.44
-0.58
1.09
2.69
4.22
5.60
6.71
7.56
8.26
8.94
9.67
10.37
10.94
11.28
11.40
11.48
11.66
12.02
12.48
12.79
12.66
11.93
10.63
8.98
7.24
5.62
4.13
2.64
1.00
-0.79
-2.59
-4.14
-5.29
-6.09
-6.82
-7.87
-9.51
-11.79
-14.50
-17.27
-19.72
-21.57
-22.59
-22.62
-21.57
-19.44
-16.40
-12.80
-9.04
-5.53
-2.52
-0.10
1.74
3.07
3.99
4.61
5.10
5.56
6.07
6.60
7.08
7.48
7.84
8.33
9.06
10.03
11.09
11.98
12.48
12.51
12.14
11.54
10.85
10.09
9.19
8.06
6.67
5.16
3.72
2.50
1.52
0.60
-0.51
-1.99
-3.86
-5.95
-8.03
-10.02
-11.97
-14.07
-16.42
-18.88
-21.03
-22.37
-22.48
-21.21
-18.79
-15.63
-12.20
-8.85
-5.73
-2.85
-0.14
2.38
4.64
6.52
7.88
8.71
9.09
9.23
9.37
9.72
10.35
11.18
12.01
12.68
13.08
13.24
13.20
13.05
12.80
12.44
11.92
11.25
10.48
9.65
8.79
7.85
6.79
5.56
4.19
2.74
1.25
-0.23
-1.74
-3.31
-4.93
-6.60
-8.33
-10.18
-12.21
-14.46
-16.88
-19.25
-21.21
-22.35
-22.36
-21.14
-18.82
-15.74
-12.28
-8.74
-5.34
-2.17
0.71
3.19
5.20
6.66
7.56
8.03
8.23
8.37
8.60
8.98
9.53
10.21
10.95
11.68
12.31
12.76
12.99
13.00
12.84
12.59
12.29
11.91
11.36
10.53
9.39
8.00
6.53
5.14
3.91
2.81
1.70
0.46
-0.95
-2.48
-4.02
-5.53
-7.08
-8.77
-10.69
-12.84
-15.10
-17.27
-19.13
-20.49
-21.19
-21.09
-20.15
-18.32
-15.69
-12.46
-8.91
-5.32
-1.97
0.96
3.36
5.15
6.36
7.06
7.39
7.57
7.79
8.19
8.81
9.60
10.41
11.09
11.55
11.78
11.85
11.86
11.94
12.12
12.39
12.65
12.77
12.58
12.00
11.00
9.68
8.21
6.76
5.42
4.15
2.81
1.29
-0.40
-2.11
-3.63
-4.88
-5.95
-7.12
-8.67
-10.70
-13.05
-15.33
-17.09
-17.95
-17.69
-16.30
-13.91
-10.81
-7.32
-3.80
-0.53
2.25
4.42
5.91
6.71
6.85
6.50
5.92
5.40
5.19
5.32
5.67
6.06
6.33
6.50
6.67
6.94
7.32
7.74
8.05
8.12
7.92
7.48
6.91
6.31
5.77
5.34
4.97
4.54
3.86
2.80
1.33
-0.43
-2.28
-4.02
-5.58
-7.02
-8.50
-10.13
-11.94
-13.81
-15.51
-16.77
-17.36
-17.10
-15.94
-13.94
-11.30
-8.28
-5.18
-2.21
0.45
2.73
4.59
6.03
7.04
7.58
7.67
7.36
6.84
6.33
6.08
6.23
6.75
7.48
8.20
8.75
9.11
9.34
9.52
9.64
9.60
9.26
8.55
7.45
6.07
4.53
2.92
1.28
-0.39
-2.08
-3.81
-5.58
-7.39
-9.20
-10.97
-12.66
-14.31
-15.98
-17.78
-19.77
-21.84
-23.71
-24.98
-25.28
-24.40
-22.34
-19.29
-15.59
-11.62
-7.77
-4.35
-1.55
0.62
2.26
3.57
4.72
5.78
6.71
7.44
7.93
8.21
8.38
8.57
8.86
9.28
9.84
10.51
11.25
12.01
12.65
13.02
13.00
12.56
11.80
10.85
9.83
8.80
7.70
6.45
4.95
3.24
1.40
-0.42
-2.13
-3.74
-5.34
-7.09
-9.10
-11.43
-14.07
-16.90
-19.74
-22.28
-24.11
-24.88
-24.33
-22.45
-19.51
-15.96
-12.30
-8.92
-6.00
-3.47
-1.24
0.81
2.72
4.42
5.86
7.02
7.95
8.74
9.48
10.19
10.89
11.55
12.17
12.74
13.27
13.77
14.21
14.55
14.78
14.85
14.73
14.37
13.69
12.67
11.32
9.77
8.18
6.67
5.30
3.99
2.61
1.04
-0.78
-2.84
-5.05
-7.37
-9.75
-12.17
-14.62
-16.97
-19.06
-20.61
-21.34
-21.03
-19.64
-17.28
-14.26
-10.94
-7.63
-4.56
-1.78
0.73
2.95
4.86
6.35
7.32
7.81
7.95
7.96
8.06
8.36
8.88
9.56
10.29
10.99
11.56
11.95
12.07
11.86
11.30
10.43
9.36
8.22
7.12
6.07
5.03
3.88
2.55
1.04
-0.51
-1.93
-3.08
-3.87
-4.40
-4.86
-5.48
-6.44
-7.81
-9.61
-11.79
-14.22
-16.67
-18.78
-20.16
-20.43
-19.44
-17.30
-14.38
-11.13
-8.00
-5.23
-2.87
-0.82
1.07
2.91
4.70
6.32
7.61
8.41
8.68
8.51
8.09
7.63
7.30
7.21
7.32
7.57
7.91
8.28
8.68
9.05
9.29
9.25
8.79
7.80
6.35
4.61
2.86
1.35
0.21
-0.60
-1.25
-1.93
-2.84
-4.05
-5.61
-7.54
-9.82
-12.41
-15.14
-17.72
-19.79
-21.01
-21.10
-20.00
-17.83
-14.82
-11.27
-7.48
-3.67
-0.03
3.31
6.25
8.67
10.49
11.67
12.26
12.40
12.36
12.37
12.61
13.10
13.74
14.36
14.79
14.96
14.83
14.45
13.81
12.91
11.73
10.27
8.52
6.60
4.58
2.61
0.75
-0.96
-2.52
-3.97
-5.37
-6.79
-8.31
-9.99
-11.87
-13.92
-16.03
-18.00
-19.57
-20.48
-20.47
-19.41
-17.29
-14.29
-10.67
-6.80
-3.02
0.40
3.26
5.50
7.13
8.21
8.86
9.23
9.44
9.60
9.75
9.87
9.93
9.89
9.71
9.44
9.08
8.70
8.34
7.98
7.55
6.92
6.03
4.83
3.38
1.81
0.23
-1.27
-2.65
-3.93
-5.11
-6.24
-7.39
-8.66
-10.14
-11.80
-13.48
-14.92
-15.80
-15.90
-15.19
-13.79
-11.93
-9.79
-7.46
-4.97
-2.31
0.39
2.95
5.10
6.61
7.41
7.60
7.38
7.03
6.71
6.52
6.49
6.68
7.10
7.74
8.46
9.04
9.22
8.83
7.86
6.49
4.96
3.48
2.17
1.04
0.03
-0.93
-1.93
-3.09
-4.54
-6.41
-8.68
-11.13
-13.37
-14.89
-15.29
-14.38
-12.24
-9.22
-5.79
-2.42
0.59
3.07
5.00
6.43
7.42
8.03
8.32
8.35
8.27
8.18
8.19
8.31
8.50
8.69
8.84
8.95
9.04
9.09
9.02
8.73
8.11
7.11
5.76
4.15
2.41
0.66
-1.01
-2.57
-4.03
-5.57
-7.40
-9.75
-12.66
-15.94
-19.16
-21.79
-23.37
-23.68
-22.70
-20.60
-17.60
-13.93
-9.85
-5.65
-1.66
1.82
4.62
6.70
8.12
8.96
9.25
9.04
8.42
7.62
6.90
6.48
6.40
6.53
6.65
6.57
6.23
5.66
5.01
4.39
3.82
3.22
2.53
1.69
0.72
-0.32
-1.36
-2.41
-3.53
-4.90
-6.63
-8.77
-11.21
-13.76
-16.14
-18.07
-19.31
-19.67
-18.97
-17.19
-14.42
-10.97
-7.23
-3.58
-0.30
2.51
4.83
6.72
8.20
9.33
10.17
10.84
11.41
11.92
12.36
12.71
13.00
13.34
13.80
14.37
14.84
14.94
14.45
13.38
11.96
10.49
9.20
8.07
6.90
5.48
3.72
1.79
-0.05
-1.56
-2.73
-3.77
-4.98
-6.61
-8.72
-11.12
-13.49
-15.49
-16.80
-17.21
-16.60
-14.92
-12.26
-8.81
-4.90
-0.88
2.91
6.23
8.98
11.18
12.91
14.28
15.37
16.23
16.88
17.34
17.59
17.63
17.52
17.36
17.25
17.27
17.39
17.47
17.30
16.75
15.85
14.73
13.61
12.59
11.64
10.61
9.39
7.92
6.29
4.59
2.86
1.07
-0.89
-3.02
-5.22
-7.30
-9.02
-10.18
-10.64
-10.34
-9.36
-7.91
-6.34
-5.01
-4.19
-3.93
-4.08
-4.40
-4.69
-4.87
-5.04
-5.31
-5.68
-6.03
-6.14
-5.85
-5.13
-4.09
-2.96
-1.93
-1.10
-0.48
-0.05
0.20
0.27
0.07
-0.45
-1.25
-2.22
-3.19
-4.03
-4.73
-5.39
-6.24
-7.48
-9.16
-11.09
-12.92
-14.24
-14.78
-14.47
-13.40
-11.71
-9.47
-6.67
-3.33
0.41
4.20
7.61
10.30
12.13
13.23
13.80
14.01
13.94
13.54
12.78
11.76
10.67
9.73
9.11
8.88
8.97
9.21
9.40
9.31
8.71
7.54
5.85
3.92
2.08
0.58
-0.52
-1.39
-2.34
-3.68
-5.53
-7.82
-10.34
-12.79
-14.98
-16.77
-18.10
-18.95
-19.25
-18.96
-18.01
-16.41
-14.27
-11.76
-9.08
-6.45
-4.02
-1.91
-0.22
1.01
1.82
2.33
2.71
3.15
3.72
4.42
5.19
5.88
6.42
6.75
6.85
6.72
6.43
6.06
5.68
5.32
4.91
4.31
3.37
2.03
0.40
-1.33
-2.94
-4.33
-5.55
-6.74
-8.10
-9.81
-11.96
-14.48
-17.13
-19.50
-21.10
-21.53
-20.60
-18.39
-15.21
-11.42
-7.39
-3.35
0.50
3.94
6.74
8.72
9.79
10.09
9.88
9.46
9.01
8.62
8.22
7.81
7.44
7.24
7.32
7.69
8.23
8.79
9.19
9.36
9.34
9.15
8.81
8.29
7.53
6.51
5.25
3.81
2.28
0.73
-0.81
-2.37
-4.02
-5.88
-8.01
-10.36
-12.71
-14.71
-15.97
-16.27
-15.59
-14.13
-12.20
-10.01
-7.66
-5.11
-2.35
0.51
3.20
5.44
6.98
7.77
7.97
7.83
7.60
7.41
7.29
7.19
7.02
6.83
6.68
6.71
6.97
7.44
7.98
8.44
8.67
8.62
8.33
7.83
7.18
6.34
5.26
3.91
2.35
0.69
-0.90
-2.30
-3.51
-4.62
-5.83
-7.32
-9.16
-11.27
-13.42
-15.27
-16.51
-16.92
-16.42
-15.05
-12.97
-10.38
-7.52
-4.62
-1.86
0.62
2.74
4.40
5.55
6.13
6.20
5.92
5.50
5.19
5.16
5.42
5.88
6.34
6.73
7.02
7.28
7.61
8.03
8.51
8.95
9.20
9.13
8.67
7.76
6.47
4.91
3.26
1.68
0.30
-0.89
-1.95
-3.06
-4.35
-5.92
-7.75
-9.80
-11.95
-14.04
-15.86
-17.15
-17.61
-17.01
-15.29
-12.62
-9.35
-5.92
-2.71
0.02
2.16
3.68
4.67
5.15
5.23
5.08
4.95
5.05
5.55
6.43
7.51
8.50
9.14
9.26
8.90
8.23
7.46
6.76
6.16
5.64
5.10
4.48
3.81
3.07
2.29
1.43
0.43
-0.73
-2.07
-3.53
-5.07
-6.62
-8.15
-9.59
-10.85
-11.81
-12.29
-12.15
-11.29
-9.74
-7.62
-5.17
-2.65
-0.30
1.73
3.36
4.52
5.17
5.31
5.02
4.46
3.84
3.36
3.16
3.21
3.40
3.60
3.69
3.65
3.53
3.39
3.30
3.27
3.30
3.27
3.05
2.50
1.55
0.28
-1.13
-2.46
-3.61
-4.64
-5.71
-6.98
-8.52
-10.23
-11.93
-13.46
-14.73
-15.70
-16.33
-16.46
-15.89
-14.53
-12.41
-9.81
-7.08
-4.49
-2.19
-0.21
1.49
2.88
3.85
4.31
4.30
3.95
3.51
3.20
3.16
3.40
3.82
4.32
4.79
5.17
5.42
5.50
5.42
5.11
4.62
3.92
2.99
1.80
0.34
-1.36
-3.17
-4.87
-6.24
-7.08
-7.37
-7.29
-7.17
-7.40
-8.23
-9.69
-11.59
-13.57
-15.24
-16.30
-16.55
-15.85
-14.21
-11.72
-8.64
-5.31
-2.08
0.79
3.18
5.13
6.68
7.81
8.48
8.62
8.28
7.68
7.10
6.81
6.88
7.23
7.69
8.10
8.41
8.61
8.73
8.74
8.55
8.05
7.20
6.00
4.57
3.05
1.58
0.25
-0.91
-1.88
-2.70
-3.44
-4.18
-5.02
-6.09
-7.48
-9.27
-11.39
-13.65
-15.74
-17.29
-17.98
-17.61
-16.18
-13.83
-10.85
-7.53
-4.15
-0.95
1.89
4.28
6.17
7.51
8.32
8.62
8.50
8.11
7.64
7.30
7.20
7.39
7.82
8.41
9.08
9.79
10.47
11.02
11.29
11.17
10.61
9.71
8.66
7.62
6.69
5.76
4.63
3.09
1.09
-1.26
-3.67
-5.84
-7.54
-8.78
-9.73
-10.66
-11.85
-13.40
-15.21
-17.01
-18.45
-19.21
-19.06
-17.93
-15.88
-13.07
-9.75
-6.18
-2.63
0.67
3.51
5.75
7.29
8.13
8.39
8.28
8.06
7.98
8.12
8.43
8.76
9.01
9.17
9.35
9.66
10.11
10.55
10.76
10.58
9.99
9.15
8.27
7.53
6.90
6.27
5.44
4.33
2.98
1.54
0.16
-1.05
-2.11
-3.09
-4.07
-5.17
-6.49
-8.09
-9.95
-11.92
-13.75
-15.08
-15.58
-15.03
-13.39
-10.78
-7.48
-3.85
-0.26
2.95
5.51
7.33
8.42
8.92
8.98
8.74
8.26
7.58
6.84
6.17
5.76
5.74
6.09
6.72
7.47
8.18
8.70
8.91
8.72
8.12
7.22
6.21
5.25
4.48
3.84
3.23
2.55
1.75
0.92
0.10
-0.68
-1.48
-2.42
-3.54
-4.81
-6.14
-7.44
-8.68
-9.88
-11.05
-12.10
-12.84
-12.97
-12.24
-10.50
-7.79
-4.42
-0.80
2.57
5.29
7.15
8.16
8.45
8.23
7.71
7.04
6.37
5.83
5.46
5.28
5.19
5.13
5.04
5.01
5.15
5.54
6.15
6.81
7.32
7.49
7.26
6.66
5.77
4.64
3.30
1.76
0.09
-1.61
-3.21
-4.59
-5.79
-6.91
-8.10
-9.52
-11.19
-13.08
-15.04
-16.88
-18.39
-19.38
-19.63
-18.99
-17.40
-14.91
-11.76
-8.30
-4.89
-1.84
0.68
2.62
4.04
5.07
5.80
6.29
6.57
6.69
6.72
6.79
7.08
7.67
8.54
9.46
10.14
10.30
9.88
9.04
8.11
7.45
7.24
7.38
7.52
7.31
6.48
5.01
3.09
1.02
-0.93
-2.65
-4.16
-5.57
-6.97
-8.43
-9.96
-11.60
-13.39
-15.36
-17.47
-19.53
-21.20
-22.14
-22.04
-20.79
-18.52
-15.51
-12.09
-8.58
-5.17
-2.02
0.75
3.06
4.87
6.22
7.21
7.97
8.56
8.98
9.20
9.19
9.01
8.82
8.79
9.06
9.64
10.40
11.16
11.69
11.83
11.56
10.92
10.02
9.00
7.94
6.89
5.84
4.75
3.56
2.27
0.88
-0.54
-1.93
-3.25
-4.56
-5.98
-7.64
-9.64
-11.95
-14.43
-16.76
-18.59
-19.65
-19.82
-19.11
-17.67
-15.66
-13.21
-10.43
-7.39
-4.22
-1.10
1.72
4.02
5.66
6.69
7.27
7.61
7.94
8.40
9.03
9.84
10.73
11.59
12.30
12.78
13.05
13.15
13.17
13.16
13.07
12.80
12.23
11.31
10.13
8.81
7.54
6.37
5.29
4.20
3.02
1.68
0.18
-1.46
-3.24
-5.09
-6.98
-8.85
-10.69
-12.56
-14.48
-16.41
-18.14
-19.33
-19.60
-18.71
-16.67
-13.80
-10.55
-7.37
-4.54
-2.09
0.10
2.16
4.10
5.84
7.21
8.08
8.44
8.42
8.23
8.14
8.34
8.90
9.78
10.82
11.80
12.56
13.07
13.38
13.59
13.75
13.73
13.38
12.54
11.22
9.56
7.83
6.24
4.86
3.65
2.51
1.43
0.42
-0.49
-1.35
-2.29
-3.50
-5.08
-7.03
-9.19
-11.34
-13.24
-14.67
-15.47
-15.53
-14.86
-13.54
-11.73
-9.61
-7.26
-4.71
-1.97
0.85
3.53
5.79
7.38
8.22
8.48
8.46
8.48
8.71
9.13
9.62
10.02
10.29
10.48
10.64
10.78
10.83
10.67
10.25
9.59
8.76
7.90
7.10
6.42
5.84
5.35
4.86
4.30
3.54
2.53
1.29
-0.11
-1.59
-3.09
-4.66
-6.28
-7.98
-9.67
-11.21
-12.50
-13.44
-13.97
-14.02
-13.52
-12.41
-10.70
-8.50
-5.97
-3.29
-0.63
1.86
4.03
5.73
6.85
7.41
7.56
7.57
7.64
7.91
8.37
8.93
9.56
10.19
10.81
11.31
11.56
11.45
11.01
10.34
9.61
8.89
8.12
7.14
5.85
4.30
2.64
1.06
-0.40
-1.84
-3.41
-5.19
-7.12
-9.05
-10.88
-12.61
-14.37
-16.29
-18.37
-20.35
-21.87
-22.53
-22.07
-20.47
-17.91
-14.69
-11.21
-7.77
-4.63
-1.90
0.40
2.27
3.73
4.76
5.35
5.54
5.48
5.37
5.43
5.77
6.39
7.21
8.09
8.89
9.46
9.71
9.59
9.10
8.35
7.48
6.56
5.64
4.65
3.49
2.10
0.51
-1.14
-2.66
-3.90
-4.82
-5.54
-6.25
-7.18
-8.49
-10.24
-12.37
-14.69
-16.96
-18.90
-20.25
-20.80
-20.44
-19.13
-16.97
-14.17
-11.03
-7.87
-4.92
-2.32
-0.04
1.97
3.77
5.34
6.59
7.45
7.89
8.03
8.03
8.13
8.46
9.08
9.88
10.75
11.53
12.14
12.59
12.89
13.04
13.03
12.73
12.03
10.90
9.39
7.64
5.85
4.14
2.54
0.98
-0.61
-2.27
-3.96
-5.61
-7.19
-8.71
-10.24
-11.85
-13.58
-15.35
-17.05
-18.48
-19.39
-19.53
-18.69
-16.83
-14.08
-10.76
-7.29
-4.03
-1.21
1.10
2.97
4.50
5.76
6.78
7.63
8.37
9.07
9.82
10.65
11.54
12.46
13.31
13.99
14.42
14.53
14.34
13.94
13.40
12.80
12.15
11.41
10.54
9.51
8.35
7.09
5.72
4.19
2.49
0.62
-1.34
-3.29
-5.15
-6.91
-8.62
-10.35
-12.17
-14.14
-16.21
-18.29
-20.11
-21.34
-21.62
-20.75
-18.72
-15.78
-12.33
-8.78
-5.40
-2.36
0.28
2.44
4.05
5.08
5.57
5.74
5.85
6.13
6.74
7.63
8.66
9.63
10.41
10.93
11.21
11.34
11.38
11.45
11.61
11.86
12.17
12.41
12.42
12.07
11.28
10.07
8.57
6.93
5.30
3.77
2.37
1.07
-0.17
-1.38
-2.62
-3.93
-5.42
-7.17
-9.26
-11.57
-13.84
-15.65
-16.58
-16.36
-15.00
-12.82
-10.23
-7.66
-5.31
-3.16
-1.08
1.05
3.23
5.34
7.16
8.51
9.31
9.64
9.68
9.64
9.66
9.76
9.89
9.94
9.86
9.72
9.63
9.67
9.79
9.83
9.56
8.84
7.67
6.18
4.61
3.14
1.90
0.93
0.22
-0.29
-0.69
-1.10
-1.62
-2.28
-3.08
-4.02
-5.13
-6.50
-8.19
-10.11
-12.01
-13.49
-14.12
-13.66
-12.14
-9.83
-7.12
-4.35
-1.75
0.59
2.63
4.32
5.58
6.34
6.62
6.51
6.24
6.03
6.04
6.26
6.64
7.06
7.46
7.84
8.25
8.74
9.22
9.56
9.59
9.24
8.57
7.72
6.84
5.94
4.91
3.56
1.74
-0.51
-2.95
-5.20
-6.96
-8.11
-8.84
-9.49
-10.42
-11.87
-13.81
-16.00
-18.11
-19.78
-20.71
-20.69
-19.59
-17.43
-14.45
-11.12
-8.10
-6.02
-5.28
-5.86
-7.34
-9.03
-10.22
-10.43
-9.50
-7.57
-4.96
-2.03
0.91
3.58
5.82
7.55
8.72
9.45
9.86
10.10
10.33
10.61
10.91
11.12
11.16
10.96
10.62
10.34
10.33
10.71
11.43
12.25
12.86
13.02
12.62
11.75
10.54
9.13
7.57
5.86
4.00
2.04
0.12
-1.62
-3.09
-4.35
-5.53
-6.86
-8.54
-10.69
-13.25
-16.06
-18.84
-21.24
-22.96
-23.73
-23.42
-22.00
-19.61
-16.44
-12.82
-9.10
-5.56
-2.43
0.24
2.50
4.44
6.11
7.51
8.55
9.20
9.48
9.47
9.32
9.19
9.18
9.40
9.88
10.61
11.50
12.39
13.08
13.40
13.26
12.67
11.72
10.51
9.13
7.64
6.12
4.61
3.14
1.68
0.20
-1.29
-2.72
-3.98
-5.05
-6.05
-7.21
-8.79
-10.92
-13.51
-16.23
-18.60
-20.21
-20.77
-20.20
-18.62
-16.23
-13.29
-10.06
-6.79
-3.66
-0.90
1.37
3.04
4.17
4.93
5.60
6.45
7.59
8.96
10.33
11.45
12.17
12.50
12.58
12.59
12.67
12.86
13.05
13.16
13.08
12.76
12.20
11.41
10.44
9.35
8.25
7.18
6.13
5.05
3.79
2.31
0.62
-1.13
-2.77
-4.22
-5.53
-6.92
-8.60
-10.69
-13.15
-15.78
-18.29
-20.40
-21.80
-22.27
-21.62
-19.85
-17.15
-13.89
-10.53
-7.42
-4.73
-2.41
-0.34
1.58
3.33
4.83
6.00
6.83
7.39
7.82
8.21
8.63
9.11
9.69
10.37
11.15
11.96
12.67
13.16
13.32
13.13
12.59
11.76
10.69
9.46
8.15
6.87
5.71
4.70
3.79
2.87
1.86
0.72
-0.51
-1.76
-2.96
-4.12
-5.30
-6.59
-8.08
-9.76
-11.46
-12.92
-13.82
-13.90
-13.08
-11.43
-9.17
-6.58
-3.92
-1.43
0.75
2.54
3.95
5.01
5.78
6.32
6.61
6.65
6.47
6.20
5.99
6.06
6.50
7.30
8.32
9.35
10.18
10.66
10.69
10.28
9.54
8.64
7.78
7.05
6.46
5.87
5.06
3.92
2.45
0.78
-0.91
-2.44
-3.75
-4.85
-5.81
-6.71
-7.67
-8.74
-9.99
-11.42
-12.91
-14.22
-15.03
-15.06
-14.17
-12.38
-9.96
-7.22
-4.47
-1.92
0.36
2.35
4.02
5.31
6.13
6.42
6.26
5.85
5.43
5.23
5.32
5.65
6.10
6.54
6.92
7.24
7.55
7.87
8.13
8.24
8.09
7.60
6.74
5.56
4.14
2.58
0.94
-0.68
-2.24
-3.69
-5.00
-6.16
-7.21
-8.22
-9.31
-10.60
-12.21
-14.16
-16.35
-18.53
-20.35
-21.46
-21.58
-20.62
-18.69
-16.05
-13.04
-9.97
-7.05
-4.37
-2.00
0.03
1.64
2.86
3.76
4.48
5.16
5.87
6.59
7.21
7.64
7.85
7.92
7.94
8.04
8.24
8.49
8.72
8.87
8.95
9.01
9.02
8.89
8.50
7.70
6.47
4.88
3.09
1.23
-0.57
-2.26
-3.84
-5.33
-6.76
-8.20
-9.76
-11.55
-13.59
-15.75
-17.77
-19.32
-20.12
-20.03
-19.05
-17.27
-14.84
-11.92
-8.69
-5.36
-2.14
0.79
3.25
5.21
6.66
7.66
8.28
8.60
8.70
8.66
8.61
8.67
8.99
9.61
10.43
11.25
11.84
12.04
11.85
11.42
10.90
10.39
9.81
9.03
7.91
6.43
4.71
2.90
1.14
-0.49
-1.99
-3.37
-4.68
-6.01
-7.44
-9.04
-10.84
-12.79
-14.76
-16.54
-17.95
-18.84
-19.09
-18.61
-17.35
-15.32
-12.64
-9.51
-6.20
-2.96
-0.01
2.55
4.67
6.36
7.60
8.40
8.75
8.69
8.36
7.96
7.74
7.86
8.35
9.09
9.87
10.47
10.82
10.94
10.91
10.79
10.52
9.99
9.11
7.88
6.43
4.97
3.69
2.63
1.72
0.80
-0.28
-1.56
-2.99
-4.51
-6.11
-7.85
-9.85
-12.15
-14.63
-17.02
-18.94
-20.04
-20.11
-19.16
-17.32
-14.86
-12.06
-9.19
-6.45
-3.94
-1.67
0.41
2.26
3.84
5.03
5.73
5.98
5.96
5.93
6.13
6.73
7.68
8.89
10.15
11.28
12.17
12.75
12.99
12.88
12.45
11.72
10.75
9.60
8.36
7.13
5.96
4.86
3.80
2.71
1.56
0.37
-0.82
-1.96
-3.02
-4.04
-5.09
-6.30
-7.73
-9.42
-11.27
-13.10
-14.66
-15.67
-15.92
-15.28
-13.79
-11.58
-8.85
-5.83
-2.78
0.10
2.62
4.64
6.07
6.93
7.28
7.28
7.14
7.05
7.17
7.54
8.10
8.71
9.21
9.47
9.44
9.20
8.88
8.65
8.60
8.70
8.82
8.75
8.36
7.64
6.69
5.64
4.58
3.47
2.29
1.04
-0.23
-1.42
-2.54
-3.66
-4.97
-6.62
-8.63
-10.84
-12.96
-14.60
-15.45
-15.31
-14.10
-11.96
-9.15
-6.07
-3.13
-0.62
1.37
2.91
4.20
5.36
6.45
7.41
8.14
8.59
8.77
8.79
8.78
8.85
9.05
9.36
9.66
9.81
9.77
9.50
9.09
8.62
8.12
7.56
6.84
5.92
4.80
3.56
2.25
0.91
-0.48
-1.90
-3.33
-4.69
-6.01
-7.37
-8.95
-10.89
-13.14
-15.49
-17.56
-18.98
-19.48
-19.03
-17.76
-15.81
-13.39
-10.64
-7.75
-4.91
-2.31
-0.09
1.73
3.17
4.33
5.29
6.08
6.70
7.16
7.45
7.57
7.57
7.48
7.39
7.37
7.40
7.47
7.51
7.45
7.28
6.98
6.54
5.85
4.85
3.47
1.78
-0.07
-1.86
-3.45
-4.79
-5.95
-7.04
-8.15
-9.39
-10.86
-12.62
-14.70
-16.98
-19.20
-20.99
-22.02
-22.05
-21.10
-19.33
-16.97
-14.26
-11.39
-8.50
-5.68
-3.04
-0.63
1.50
3.32
4.74
5.70
6.15
6.14
5.86
5.57
5.54
5.92
6.68
7.67
8.66
9.45
9.89
9.97
9.74
9.32
8.82
8.32
7.81
7.22
6.50
5.61
4.58
3.44
2.19
0.79
-0.84
-2.70
-4.76
-6.89
-9.04
-11.17
-13.29
-15.38
-17.27
-18.72
-19.44
-19.24
-18.11
-16.14
-13.55
-10.55
-7.33
-4.04
-0.89
1.95
4.27
5.96
7.04
7.66
8.11
8.63
9.40
10.37
11.40
12.33
13.00
13.40
13.58
13.56
13.34
12.90
12.24
11.44
10.63
9.85
9.10
8.26
7.17
5.75
4.09
2.32
0.65
-0.86
-2.19
-3.45
-4.76
-6.22
-7.91
-9.86
-12.04
-14.30
-16.38
-17.97
-18.75
-18.55
-17.38
-15.43
-12.98
-10.33
-7.68
-5.14
-2.73
-0.42
1.75
3.71
5.37
6.66
7.55
8.14
8.55
8.94
9.45
10.15
11.05
12.03
12.92
13.53
13.73
13.52
13.03
12.48
12.06
11.82
11.67
11.40
10.76
9.65
8.09
6.26
4.34
2.50
0.78
-0.86
-2.46
-4.05
-5.55
-6.90
-8.10
-9.27
-10.68
-12.53
-14.86
-17.38
-19.54
-20.71
-20.45
-18.70
-15.76
-12.16
-8.43
-4.93
-1.81
0.95
3.42
5.60
7.42
8.75
9.48
9.60
9.28
8.83
8.58
8.75
9.36
10.16
10.83
11.10
10.93
10.52
10.16
10.02
10.07
10.04
9.69
8.88
7.74
6.55
5.55
4.76
4.03
3.11
1.84
0.25
-1.44
-2.98
-4.21
-5.12
-5.88
-6.72
-7.80
-9.10
-10.46
-11.58
-12.15
-11.98
-10.98
-9.28
-7.08
-4.63
-2.15
0.20
2.27
3.93
5.05
5.62
5.73
5.58
5.41
5.40
5.68
6.21
6.89
7.56
8.08
8.37
8.43
8.39
8.36
8.45
8.65
8.88
8.98
8.77
8.14
7.09
5.72
4.19
2.61
1.11
-0.29
-1.59
-2.83
-4.08
-5.40
-6.84
-8.46
-10.26
-12.21
-14.17
-15.91
-17.14
-17.53
-16.89
-15.22
-12.77
-9.92
-7.07
-4.45
-2.14
-0.05
1.92
3.76
5.34
6.50
7.12
7.26
7.06
6.77
6.54
6.44
6.41
6.40
6.37
6.30
6.22
6.15
6.08
6.01
5.95
5.93
5.88
5.71
5.29
4.52
3.38
1.97
0.44
-1.05
-2.45
-3.74
-5.02
-6.36
-7.84
-9.51
-11.35
-13.33
-15.36
-17.30
-18.94
-20.04
-20.35
-19.67
-17.96
-15.35
-12.14
-8.73
-5.52
-2.75
-0.48
1.38
2.96
4.31
5.43
6.26
6.80
7.16
7.50
7.94
8.53
9.19
9.80
10.26
10.53
10.65
10.67
10.62
10.49
10.25
9.81
9.12
8.12
6.81
5.24
3.44
1.53
-0.42
-2.31
-4.07
-5.70
-7.20
-8.64
-10.08
-11.60
-13.24
-14.99
-16.77
-18.40
-19.68
-20.36
-20.22
-19.10
-17.02
-14.14
-10.77
-7.26
-3.91
-0.91
1.66
3.76
5.38
6.50
7.18
7.56
7.85
8.28
8.93
9.74
10.51
11.07
11.28
11.19
10.85
10.36
9.79
9.19
8.62
8.11
7.67
7.27
6.78
6.11
5.21
4.10
2.86
1.56
0.27
-1.03
-2.38
-3.83
-5.42
-7.18
-9.12
-11.14
-13.10
-14.77
-15.90
-16.29
-15.86
-14.64
-12.76
-10.41
-7.78
-5.04
-2.29
0.40
2.98
5.36
7.42
9.01
10.02
10.46
10.43
10.12
9.70
9.31
8.99
8.76
8.62
8.56
8.60
8.68
8.75
8.77
8.70
8.56
8.34
8.01
7.48
6.72
5.70
4.46
3.12
1.76
0.44
-0.85
-2.11
-3.40
-4.71
-6.08
-7.54
-9.18
-11.03
-13.02
-14.99
-16.67
-17.78
-18.08
-17.50
-16.10
-14.06
-11.65
-9.08
-6.48
-3.87
-1.28
1.25
3.57
5.48
6.86
7.74
8.27
8.65
9.05
9.49
9.93
10.31
10.64
11.01
11.49
12.04
12.48
12.59
12.21
11.35
10.25
9.14
8.18
7.32
6.38
5.16
3.61
1.87
0.17
-1.26
-2.37
-3.24
-4.10
-5.14
-6.48
-8.13
-9.98
-11.88
-13.58
-14.86
-15.47
-15.25
-14.14
-12.23
-9.74
-6.93
-4.09
-1.42
0.98
3.09
4.90
6.39
7.51
8.24
8.58
8.59
8.36
7.98
7.51
7.02
6.67
6.58
6.83
7.37
7.94
8.21
7.93
7.07
5.84
4.58
3.53
2.75
2.07
1.30
0.32
-0.76
-1.69
-2.27
-2.50
-2.61
-2.96
-3.86
-5.37
-7.32
-9.35
-11.12
-12.40
-13.16
-13.42
-13.19
-12.41
-11.00
-8.96
-6.41
-3.63
-0.94
1.36
3.08
4.17
4.70
4.77
4.51
4.04
3.54
3.13
2.96
3.09
3.49
4.07
4.69
5.27
5.75
6.10
6.31
6.36
6.23
5.94
5.49
4.92
4.22
3.37
2.30
0.99
-0.50
-2.05
-3.59
-5.11
-6.75
-8.68
-11.02
-13.68
-16.39
-18.78
-20.47
-21.24
-21.00
-19.84
-17.96
-15.52
-12.67
-9.53
-6.23
-2.94
0.11
2.63
4.43
5.43
5.72
5.57
5.29
5.13
5.18
5.39
5.63
5.77
5.79
5.76
5.81
6.05
6.52
7.16
7.82
8.28
8.33
7.83
6.76
5.20
3.34
1.42
-0.41
-2.04
-3.50
-4.83
-6.15
-7.55
-9.10
-10.86
-12.85
-14.94
-16.93
-18.52
-19.41
-19.36
-18.29
-16.29
-13.59
-10.54
-7.50
-4.71
-2.32
-0.30
1.43
3.00
4.45
5.74
6.78
7.52
7.97
8.21
8.40
8.67
9.10
9.72
10.46
11.21
11.81
12.11
12.03
11.59
10.86
9.95
8.93
7.81
6.56
5.21
3.79
2.40
1.12
-0.07
-1.26
-2.59
-4.20
-6.17
-8.46
-10.94
-13.42
-15.69
-17.55
-18.84
-19.43
-19.24
-18.19
-16.28
-13.61
-10.36
-6.86
-3.45
-0.43
2.02
3.89
5.26
6.27
7.02
7.55
7.92
8.15
8.31
8.49
8.73
9.05
9.37
9.58
9.60
9.41
9.02
8.49
7.83
6.98
5.91
4.58
3.00
1.19
-0.80
-2.98
-5.31
-7.75
-10.19
-12.50
-14.63
-16.66
-18.82
-21.41
-24.69
-28.74
-33.45
-38.52
-43.55
-48.17
-52.12
-55.27
-57.60
-59.21
-60.29
-61.02
-61.66
-62.39
-63.39
-64.79
-66.65
-69.01
-71.80
-74.75
-77.44
-79.25
-79.47
-77.44
-72.69
-64.94
-54.16
-40.54
-24.45
-6.45
12.71
32.15
50.91
68.12
83.06
95.23
104.35
110.34
113.27
113.36
111.00
106.70
101.06
94.68
88.04
81.44
75.01
68.70
62.40
56.03
49.55
43.04
36.74
30.91
25.85
21.75
18.69
16.61
15.38
14.82
14.79
15.12
15.63
16.14
16.47
16.50
16.21
15.70
15.08
14.46
13.91
13.40
12.91
12.44
12.02
11.70
11.51
11.42
11.37
11.29
11.15
10.94
10.64
10.17
9.47
8.44
7.11
5.62
4.17
2.89
1.85
0.90
-0.14
-1.41
-2.92
-4.57
-6.18
-7.71
-9.21
-10.76
-12.43
-14.14
-15.64
-16.65
-16.92
-16.36
-14.99
-12.89
-10.20
-7.08
-3.76
-0.49
2.44
4.82
6.52
7.52
7.90
7.80
7.47
7.14
7.02
7.20
7.60
8.08
8.46
8.66
8.68
8.59
8.42
8.15
7.72
7.07
6.20
5.14
3.93
2.61
1.17
-0.31
-1.74
-3.00
-4.03
-4.90
-5.79
-6.89
-8.34
-10.15
-12.21
-14.32
-16.27
-17.81
-18.72
-18.83
-18.07
-16.44
-14.13
-11.34
-8.35
-5.39
-2.67
-0.33
1.53
2.91
3.83
4.37
4.64
4.79
4.96
5.30
5.89
6.68
7.50
8.14
8.42
8.30
7.90
7.43
7.05
6.78
6.49
6.02
5.25
4.19
2.94
1.60
0.22
-1.21
-2.70
-4.26
-5.85
-7.45
-9.10
-10.90
-12.90
-15.09
-17.34
-19.42
-21.04
-21.90
-21.71
-20.32
-17.78
-14.38
-10.62
-7.04
-4.04
-1.75
0.03
1.66
3.38
5.19
6.84
8.01
8.51
8.43
8.10
7.84
7.85
8.09
8.37
8.50
8.41
8.18
7.94
7.79
7.75
7.68
7.40
6.80
5.81
4.53
3.11
1.72
0.46
-0.66
-1.74
-2.91
-4.28
-5.93
-7.86
-10.01
-12.21
-14.29
-16.01
-17.18
-17.66
-17.43
-16.50
-14.95
-12.85
-10.25
-7.29
-4.12
-1.00
1.84
4.23
6.09
7.44
8.33
8.85
9.09
9.16
9.16
9.14
9.11
9.08
8.98
8.83
8.68
8.58
8.54
8.54
8.53
8.42
8.18
7.78
7.20
6.39
5.29
3.83
2.05
0.04
-2.07
-4.06
-5.82
-7.32
-8.64
-9.96
-11.48
-13.29
-15.33
-17.34
-18.92
-19.64
-19.21
-17.57
-14.95
-11.78
-8.49
-5.44
-2.75
-0.40
1.71
3.62
5.30
6.63
7.53
8.04
8.32
8.56
8.93
9.45
10.07
10.64
11.04
11.24
11.27
11.17
10.95
10.60
10.07
9.35
8.46
7.44
6.34
5.17
3.95
2.68
1.35
-0.06
-1.58
-3.22
-4.96
-6.76
-8.57
-10.37
-12.16
-13.91
-15.57
-16.96
-17.86
-18.01
-17.31
-15.79
-13.63
-11.07
-8.31
-5.51
-2.73
-0.09
2.26
4.12
5.36
5.93
5.95
5.71
5.52
5.66
6.22
7.16
8.25
9.22
9.84
10.03
9.85
9.46
9.06
8.75
8.56
8.37
8.05
7.50
6.66
5.50
4.06
2.35
0.50
-1.38
-3.13
-4.67
-6.05
-7.43
-9.01
-10.92
-13.08
-15.22
-16.92
-17.76
-17.47
-16.01
-13.63
-10.69
-7.63
-4.73
-2.14
0.15
2.20
4.01
5.50
6.56
7.10
7.19
6.96
6.64
6.39
6.29
6.38
6.65
7.13
7.82
8.70
9.62
10.43
10.95
11.06
10.73
10.00
8.95
7.67
6.24
4.77
3.33
1.96
0.67
-0.56
-1.77
-3.01
-4.38
-5.97
-7.84
-9.96
-12.13
-14.06
-15.40
-15.89
-15.42
-14.03
-11.88
-9.18
-6.12
-2.92
0.14
2.77
4.70
5.81
6.11
5.82
5.24
4.69
4.38
4.42
4.70
5.07
5.31
5.33
5.14
4.87
4.67
4.63
4.69
4.68
4.39
3.71
2.66
1.41
0.17
-0.91
-1.77
-2.46
-3.06
-3.67
-4.39
-5.30
-6.51
-8.15
-10.23
-12.65
-15.09
-17.11
-18.26
-18.23
-16.92
-14.52
-11.38
-7.94
-4.66
-1.85
0.30
1.78
2.67
3.14
3.37
3.47
3.51
3.50
3.45
3.41
3.43
3.58
3.83
4.09
4.23
4.22
4.12
4.11
4.37
4.89
5.42
5.60
5.03
3.57
1.43
-0.98
-3.18
-4.91
-6.15
-7.08
-7.98
-9.07
-10.47
-12.17
-14.10
-16.05
-17.76
-18.86
-19.08
-18.26
-16.43
-13.82
-10.74
-7.52
-4.45
-1.76
0.40
1.98
3.04
3.78
4.37
4.96
5.57
6.17
6.66
6.97
7.13
7.16
7.13
7.03
6.85
6.58
6.26
5.95
5.70
5.50
5.29
4.96
4.39
3.54
2.41
1.06
-0.40
-1.90
-3.42
-4.99
-6.69
-8.59
-10.71
-12.91
-15.03
-16.84
-18.13
-18.71
-18.50
-17.40
-15.46
-12.80
-9.69
-6.50
-3.53
-0.96
1.21
3.10
4.83
6.39
7.66
8.49
8.79
8.64
8.27
7.89
7.65
7.56
7.56
7.56
7.54
7.57
7.73
8.04
8.39
8.52
8.18
7.16
5.50
3.46
1.40
-0.40
-1.83
-3.00
-4.19
-5.62
-7.46
-9.70
-12.22
-14.85
-17.32
-19.30
-20.40
-20.28
-18.81
-16.08
-12.48
-8.54
-4.74
-1.36
1.51
3.92
5.93
7.53
8.64
9.22
9.33
9.20
9.11
9.30
9.85
10.63
11.39
11.90
12.15
12.30
12.57
13.10
13.80
14.39
14.53
14.04
12.95
11.48
9.89
8.34
6.81
5.18
3.31
1.13
-1.32
-3.91
-6.50
-8.96
-11.18
-13.13
-14.76
-15.99
-16.69
-16.65
-15.73
-13.91
-11.33
-8.32
-5.26
-2.40
0.17
2.50
4.66
6.60
8.12
9.02
9.17
8.70
7.95
7.35
7.21
7.63
8.45
9.36
10.12
10.59
10.81
10.86
10.79
10.54
10.00
9.12
7.89
6.44
4.89
3.33
1.81
0.34
-1.09
-2.51
-3.96
-5.51
-7.17
-8.92
-10.61
-12.04
-12.95
-13.14
-12.51
-11.03
-8.85
-6.16
-3.23
-0.30
2.40
4.75
6.69
8.15
9.09
9.46
9.29
8.67
7.85
7.04
6.45
6.17
6.21
6.48
6.88
7.31
7.67
7.88
7.87
7.65
7.26
6.70
5.96
4.97
3.68
2.14
0.49
-1.04
-2.29
-3.22
-4.02
-5.00
-6.49
-8.67
-11.48
-14.60
-17.54
-19.73
-20.72
-20.29
-18.49
-15.64
-12.23
-8.72
-5.46
-2.55
0.07
2.55
4.97
7.23
9.12
10.40
10.94
10.80
10.21
9.50
8.97
8.79
8.98
9.42
9.94
10.38
10.64
10.65
10.39
9.87
9.10
8.15
7.08
5.95
4.81
3.69
2.54
1.31
-0.05
-1.60
-3.33
-5.19
-7.12
-9.05
-10.95
-12.83
-14.71
-16.58
-18.39
-19.94
-20.94
-21.14
-20.34
-18.55
-15.92
-12.66
-9.01
-5.19
-1.36
2.25
5.37
7.76
9.26
9.91
9.92
9.59
9.26
9.14
9.33
9.73
10.22
10.61
10.77
10.65
10.32
9.92
9.56
9.30
9.08
8.76
8.20
7.32
6.17
4.85
3.45
2.00
0.49
-1.14
-2.86
-4.61
-6.28
-7.84
-9.32
-10.82
-12.47
-14.32
-16.26
-18.05
-19.32
-19.75
-19.12
-17.39
-14.73
-11.44
-7.84
-4.25
-0.85
2.28
5.15
7.70
9.84
11.40
12.25
12.37
11.97
11.37
10.91
10.78
10.96
11.24
11.42
11.39
11.16
10.91
10.77
10.78
10.80
10.64
10.11
9.11
7.65
5.87
3.94
2.02
0.23
-1.39
-2.79
-4.01
-5.10
-6.15
-7.34
-8.86
-10.84
-13.25
-15.84
-18.16
-19.67
-19.97
-18.93
-16.70
-13.68
-10.36
-7.09
-4.08
-1.33
1.23
3.63
5.82
7.64
8.94
9.67
9.91
9.88
9.80
9.85
10.06
10.34
10.55
10.59
10.43
10.17
9.89
9.70
9.59
9.48
9.27
8.84
8.15
7.17
5.95
4.50
2.85
1.03
-0.85
-2.66
-4.27
-5.65
-6.89
-8.18
-9.75
-11.65
-13.79
-15.94
-17.83
-19.24
-20.00
-19.95
-18.92
-16.81
-13.64
-9.71
-5.49
-1.51
1.82
4.37
6.23
7.63
8.76
9.69
10.37
10.77
10.90
10.85
10.69
10.48
10.22
9.92
9.64
9.44
9.38
9.44
9.54
9.51
9.25
8.70
7.92
7.02
6.08
5.13
4.12
2.97
1.63
0.12
-1.45
-2.97
-4.31
-5.47
-6.49
-7.50
-8.60
-9.85
-11.21
-12.58
-13.74
-14.44
-14.42
-13.48
-11.58
-8.88
-5.71
-2.51
0.36
2.68
4.43
5.68
6.54
7.08
7.30
7.21
6.87
6.42
6.01
5.74
5.66
5.71
5.80
5.79
5.61
5.22
4.68
4.08
3.59
3.29
3.19
3.14
2.93
2.35
1.34
-0.01
-1.41
-2.60
-3.46
-4.04
-4.58
-5.31
-6.40
-7.84
-9.53
-11.27
-12.85
-14.08
-14.78
-14.80
-14.01
-12.39
-10.00
-7.01
-3.65
-0.25
2.94
5.66
7.74
9.10
9.78
9.86
9.52
8.96
8.40
7.97
7.76
7.71
7.74
7.74
7.64
7.43
7.16
6.86
6.55
6.17
5.61
4.77
3.60
2.12
0.44
-1.33
-3.08
-4.77
-6.44
-8.10
-9.73
-11.31
-12.81
-14.32
-15.94
-17.79
-19.84
-21.84
-23.36
-23.93
-23.19
-21.07
-17.78
-13.75
-9.47
-5.36
-1.72
1.31
3.68
5.40
6.50
7.07
7.21
7.09
6.84
6.55
6.21
5.78
5.29
4.80
4.49
4.51
4.88
5.51
6.18
6.70
6.93
6.80
6.30
5.40
4.08
2.39
0.42
-1.63
-3.52
-5.05
-6.19
-7.03
-7.81
-8.84
-10.32
-12.34
-14.76
-17.30
-19.57
-21.19
-21.84
-21.33
-19.58
-16.70
-12.97
-8.80
-4.69
-1.01
1.97
4.19
5.70
6.56
6.82
6.56
5.95
5.29
4.93
5.08
5.73
6.58
7.29
7.57
7.39
6.91
6.44
6.17
6.15
6.26
6.25
5.88
5.03
3.71
2.06
0.30
-1.40
-2.94
-4.31
-5.59
-6.86
-8.19
-9.64
-11.23
-12.99
-14.88
-16.79
-18.47
-19.55
-19.66
-18.55
-16.19
-12.84
-8.94
-5.00
-1.48
1.40
3.59
5.22
6.52
7.60
8.52
9.21
9.64
9.78
9.72
9.56
9.42
9.32
9.26
9.18
9.10
9.06
9.11
9.23
9.27
9.06
8.46
7.46
6.17
4.78
3.44
2.24
1.15
0.14
-0.90
-2.08
-3.51
-5.27
-7.38
-9.69
-11.96
-13.87
-15.17
-15.74
-15.58
-14.74
-13.26
-11.21
-8.65
-5.74
-2.73
0.10
2.52
4.39
5.71
6.50
6.85
6.84
6.61
6.28
5.96
5.77
5.77
5.95
6.27
6.64
6.98
7.20
7.23
7.07
6.75
6.30
5.76
5.05
4.08
2.74
1.07
-0.80
-2.57
-4.03
-5.10
-5.95
-6.88
-8.20
-10.06
-12.34
-14.73
-16.81
-18.22
-18.70
-18.10
-16.40
-13.70
-10.21
-6.30
-2.41
1.08
3.91
6.01
7.47
8.43
8.98
9.16
8.99
8.59
8.10
7.78
7.78
8.13
8.72
9.31
9.67
9.67
9.31
8.69
7.94
7.18
6.44
5.71
4.93
4.05
3.08
2.02
0.92
-0.15
-1.17
-2.15
-3.19
-4.39
-5.83
-7.52
-9.29
-10.92
-12.05
-12.37
-11.68
-9.96
-7.41
-4.38
-1.29
1.48
3.70
5.32
6.41
7.11
7.48
7.55
7.32
6.82
6.23
5.74
5.55
5.73
6.20
6.78
7.31
7.65
7.75
7.62
7.29
6.79
6.10
5.24
4.19
2.99
1.72
0.45
-0.75
-1.90
-3.12
-4.62
-6.50
-8.77
-11.16
-13.26
-14.57
-14.74
-13.66
-11.50
-8.61
-5.39
-2.14
0.97
3.83
6.35
8.36
9.72
10.33
10.24
9.64
8.84
8.12
7.66
7.45
7.43
7.47
7.50
7.51
7.53
7.57
7.56
7.38
6.86
5.91
4.51
2.80
0.96
-0.84
-2.51
-4.14
-5.88
-7.92
-10.37
-13.17
-16.11
-18.88
-21.08
-22.32
-22.32
-20.94
-18.27
-14.59
-10.39
-6.14
-2.29
0.90
3.34
5.09
6.26
6.97
7.28
7.28
7.10
6.88
6.79
6.93
7.28
7.77
8.25
8.64
8.95
9.21
9.44
9.55
9.36
8.70
7.50
5.84
3.96
2.12
0.47
-0.98
-2.42
-4.09
-6.16
-8.71
-11.66
-14.83
-17.97
-20.81
-23.05
-24.39
-24.56
-23.43
-21.00
-17.51
-13.39
-9.10
-5.11
-1.69
1.07
3.24
5.00
6.47
7.74
8.85
9.83
10.75
11.65
12.52
13.26
13.72
13.76
13.35
12.63
11.83
11.18
10.76
10.48
10.13
9.48
8.39
6.90
5.13
3.19
1.13
-1.10
-3.55
-6.19
-8.92
-11.53
-13.85
-15.77
-17.19
-18.00
-18.03
-17.04
-14.91
-11.68
-7.68
-3.35
0.82
4.46
7.42
9.71
11.40
12.51
13.07
13.13
12.84
12.44
12.19
12.23
12.52
12.91
13.20
13.33
13.37
13.48
13.74
14.07
14.16
13.67
12.38
10.32
7.81
5.27
3.08
1.37
0.06
-1.15
-2.59
-4.48
-6.89
-9.70
-12.66
-15.45
-17.75
-19.29
-19.83
-19.22
-17.40
-14.50
-10.85
-6.91
-3.23
-0.15
2.23
4.03
5.47
6.75
7.89
8.75
9.22
9.25
9.01
8.76
8.75
9.10
9.74
10.46
11.02
11.21
10.95
10.25
9.21
7.93
6.45
4.81
3.05
1.26
-0.45
-1.96
-3.22
-4.37
-5.58
-7.07
-8.89
-10.89
-12.73
-14.02
-14.48
-13.99
-12.62
-10.52
-7.83
-4.70
-1.23
2.46
6.19
9.74
12.85
15.22
16.66
17.09
16.63
15.57
14.27
13.07
12.13
11.46
10.94
10.48
10.04
9.67
9.41
9.23
9.04
8.67
8.01
7.03
5.89
4.76
3.80
3.09
2.55
2.01
1.19
-0.08
-1.85
-3.95
-6.12
-8.08
-9.66
-10.75
-11.29
-11.25
-10.48
-8.94
-6.64
-3.80
-0.75
2.10
4.45
6.14
7.17
7.61
7.54
7.06
6.23
5.19
4.14
3.22
2.62
2.38
2.49
2.85
3.31
3.74
4.01
4.05
3.80
3.31
2.58
1.66
0.59
-0.60
-1.87
-3.17
-4.50
-5.90
-7.43
-9.17
-11.12
-13.18
-15.10
-16.55
-17.17
-16.70
-15.06
-12.36
-8.93
-5.21
-1.66
1.40
3.79
5.51
6.67
7.37
7.66
7.58
7.20
6.69
6.25
6.08
6.22
6.57
6.89
7.02
6.87
6.54
6.16
5.84
5.55
5.15
4.45
3.38
1.95
0.34
-1.27
-2.79
-4.24
-5.78
-7.56
-9.63
-11.82
-13.85
-15.31
-15.85
-15.28
-13.60
-11.00
-7.84
-4.52
-1.40
1.25
3.32
4.82
5.88
6.63
7.14
7.43
7.48
7.31
6.98
6.59
6.23
5.93
5.67
5.42
5.19
4.95
4.74
4.54
4.28
3.90
3.32
2.50
1.43
0.13
-1.33
-2.87
-4.45
-6.07
-7.78
-9.58
-11.45
-13.16
-14.35
-14.63
-13.71
-11.59
-8.55
-5.04
-1.52
1.69
4.45
6.70
8.38
9.41
9.74
9.41
8.56
7.47
6.32
5.25
4.31
3.48
2.79
2.30
2.08
2.12
2.36
2.68
2.93
2.95
2.61
1.80
0.44
-1.40
-3.56
-5.76
-7.79
-9.55
-11.10
-12.65
-14.34
-16.21
-18.17
-19.90
-21.04
-21.24
-20.27
-18.08
-14.90
-11.09
-7.09
-3.29
0.11
3.00
5.33
7.02
7.99
8.27
8.04
7.64
7.36
7.35
7.50
7.57
7.37
6.88
6.32
5.91
5.81
5.92
6.02
5.87
5.33
4.45
3.33
2.07
0.76
-0.61
-2.04
-3.48
-4.97
-6.56
-8.36
-10.49
-12.92
-15.51
-17.94
-19.86
-20.88
-20.71
-19.20
-16.38
-12.49
-7.98
-3.42
0.63
3.75
5.78
6.86
7.31
7.47
7.61
7.83
8.09
8.31
8.45
8.51
8.56
8.63
8.70
8.67
8.45
8.02
7.47
6.93
6.53
6.23
5.91
5.35
4.36
2.92
1.11
-0.84
-2.71
-4.37
-5.82
-7.19
-8.68
-10.43
-12.39
-14.34
-15.87
-16.59
-16.25
-14.77
-12.33
-9.22
-5.84
-2.51
0.49
3.01
4.97
6.40
7.35
7.87
8.08
8.01
7.78
7.53
7.40
7.48
7.76
8.14
8.44
8.53
8.34
7.90
7.34
6.79
6.34
5.97
5.58
5.01
4.16
2.99
1.56
-0.07
-1.82
-3.67
-5.62
-7.71
-9.94
-12.28
-14.65
-16.90
-18.81
-20.14
-20.62
-20.02
-18.25
-15.40
-11.73
-7.69
-3.74
-0.25
2.55
4.64
6.13
7.21
8.02
8.63
9.00
9.11
8.94
8.55
8.04
7.52
7.08
6.75
6.52
6.37
6.26
6.13
5.92
5.61
5.14
4.49
3.65
2.60
1.33
-0.12
-1.71
-3.30
-4.78
-6.07
-7.15
-8.14
-9.17
-10.36
-11.69
-12.98
-13.96
-14.30
-13.76
-12.27
-9.97
-7.14
-4.14
-1.26
1.32
3.49
5.21
6.47
7.30
7.70
7.79
7.66
7.43
7.19
7.02
6.96
7.03
7.27
7.62
7.97
8.20
8.18
7.88
7.34
6.62
5.78
4.81
3.66
2.27
0.70
-0.96
-2.60
-4.18
-5.72
-7.30
-8.96
-10.69
-12.35
-13.75
-14.60
-14.64
-13.70
-11.79
-9.11
-6.01
-2.84
0.12
2.79
5.20
7.35
9.14
10.31
10.62
10.03
8.77
7.25
5.91
5.01
4.60
4.55
4.69
4.93
5.16
5.35
5.40
5.24
4.81
4.11
3.20
2.12
0.89
-0.45
-1.85
-3.22
-4.52
-5.77
-7.13
-8.82
-10.98
-13.57
-16.34
-18.83
-20.60
-21.30
-20.78
-19.11
-16.47
-13.13
-9.40
-5.59
-1.97
1.27
3.99
6.18
7.84
8.98
9.60
9.72
9.43
8.83
8.09
7.34
6.69
6.21
5.97
6.01
6.30
6.73
7.06
7.07
6.59
5.61
4.28
2.82
1.38
0.02
-1.34
-2.81
-4.45
-6.25
-8.10
-9.96
-11.90
-14.06
-16.51
-19.16
-21.67
-23.54
-24.31
-23.69
-21.67
-18.46
-14.42
-9.94
-5.42
-1.25
2.30
5.03
6.93
8.09
8.71
8.93
8.83
8.47
7.93
7.37
6.97
6.90
7.21
7.80
8.52
9.21
9.80
10.28
10.68
11.03
11.21
11.04
10.35
9.01
7.04
4.64
2.07
-0.37
-2.52
-4.37
-6.08
-7.86
-9.95
-12.41
-15.12
-17.82
-20.14
-21.76
-22.43
-22.06
-20.69
-18.43
-15.45
-11.95
-8.15
-4.30
-0.62
2.72
5.57
7.86
9.53
10.58
11.07
11.19
11.15
11.15
11.28
11.50
11.68
11.69
11.49
11.13
10.75
10.43
10.22
10.09
9.96
9.74
9.35
8.73
7.84
6.72
5.41
4.02
2.60
1.17
-0.31
-1.90
-3.72
-5.89
-8.47
-11.45
-14.63
-17.64
-20.00
-21.31
-21.28
-19.94
-17.49
-14.23
-10.46
-6.43
-2.39
1.44
4.79
7.52
9.52
10.81
11.49
11.68
11.56
11.33
11.22
11.41
11.92
12.65
13.39
13.96
14.27
14.36
14.31
14.19
13.97
13.57
12.92
11.97
10.76
9.32
7.73
6.01
4.22
2.39
0.57
-1.19
-2.89
-4.56
-6.30
-8.27
-10.58
-13.29
-16.28
-19.20
-21.57
-22.85
-22.69
-21.02
-18.10
-14.40
-10.42
-6.54
-2.96
0.30
3.25
5.90
8.18
10.01
11.33
12.14
12.50
12.56
12.46
12.34
12.28
12.29
12.35
12.47
12.67
13.02
13.52
14.10
14.53
14.60
14.13
13.16
11.87
10.48
9.12
7.75
6.28
4.61
2.79
0.92
-0.87
-2.56
-4.25
-6.06
-8.08
-10.25
-12.44
-14.43
-16.01
-16.94
-17.05
-16.24
-14.48
-11.91
-8.74
-5.26
-1.77
1.47
4.28
6.50
8.04
8.91
9.20
9.10
8.89
8.79
8.90
9.19
9.49
9.58
9.39
8.95
8.53
8.42
8.78
9.52
10.35
10.85
10.72
9.89
8.44
6.60
4.52
2.31
0.07
-2.07
-3.96
-5.47
-6.63
-7.62
-8.73
-10.20
-12.01
-13.92
-15.48
-16.24
-15.85
-14.21
-11.47
-7.97
-4.17
-0.51
2.66
5.13
6.85
7.89
8.34
8.39
8.22
8.05
8.05
8.31
8.78
9.27
9.55
9.48
9.11
8.66
8.37
8.39
8.65
8.88
8.79
8.13
6.89
5.18
3.22
1.19
-0.79
-2.65
-4.35
-5.83
-7.10
-8.24
-9.42
-10.89
-12.79
-15.11
-17.61
-19.83
-21.25
-21.42
-20.09
-17.36
-13.56
-9.23
-4.91
-1.03
2.21
4.79
6.77
8.24
9.18
9.57
9.43
8.94
8.35
7.95
7.92
8.20
8.57
8.74
8.54
7.99
7.29
6.71
6.43
6.39
6.37
6.10
5.37
4.19
2.74
1.20
-0.24
-1.59
-2.93
-4.40
-6.06
-7.96
-10.10
-12.48
-15.10
-17.85
-20.55
-22.87
-24.47
-25.09
-24.57
-22.95
-20.37
-17.02
-13.17
-9.06
-5.00
-1.23
2.03
4.65
6.58
7.83
8.50
8.75
8.80
8.85
9.04
9.41
9.95
10.61
11.31
12.00
12.60
13.02
13.13
12.87
12.24
11.34
10.26
9.10
7.84
6.46
4.88
3.12
1.20
-0.77
-2.73
-4.58
-6.31
-7.99
-9.73
-11.67
-13.89
-16.32
-18.71
-20.69
-21.94
-22.23
-21.52
-19.90
-17.51
-14.47
-10.86
-6.88
-2.79
1.10
4.46
7.11
9.03
10.33
11.18
11.71
11.97
12.01
11.86
11.63
11.43
11.36
11.43
11.59
11.72
11.75
11.67
11.52
11.34
11.16
10.86
10.28
9.21
7.60
5.50
3.15
0.87
-1.10
-2.68
-3.96
-5.20
-6.60
-8.30
-10.27
-12.40
-14.56
-16.62
-18.43
-19.79
-20.43
-20.06
-18.52
-15.87
-12.38
-8.47
-4.53
-0.85
2.42
5.21
7.46
9.09
10.09
10.53
10.62
10.61
10.73
11.08
11.63
12.25
12.79
13.17
13.36
13.38
13.30
13.15
12.93
12.61
12.15
11.51
10.65
9.54
8.15
6.51
4.71
2.86
1.09
-0.51
-1.97
-3.39
-4.88
-6.58
-8.56
-10.86
-13.46
-16.28
-19.09
-21.54
-23.17
-23.56
-22.47
-19.98
-16.46
-12.45
-8.48
-4.86
-1.70
1.06
3.50
5.66
7.45
8.77
9.55
9.81
9.68
9.40
9.23
9.41
10.00
10.94
12.01
12.98
13.60
13.81
13.64
13.23
12.70
12.13
11.49
10.71
9.74
8.54
7.14
5.56
3.84
2.02
0.15
-1.72
-3.55
-5.35
-7.13
-8.97
-10.88
-12.88
-14.87
-16.70
-18.10
-18.82
-18.58
-17.22
-14.74
-11.33
-7.40
-3.41
0.20
3.14
5.29
6.70
7.47
7.72
7.64
7.37
7.16
7.20
7.57
8.19
8.85
9.28
9.36
9.15
8.87
8.75
8.88
9.16
9.33
9.15
8.48
7.34
5.85
4.13
2.31
0.50
-1.17
-2.59
-3.70
-4.63
-5.60
-6.86
-8.60
-10.77
-13.17
-15.52
-17.49
-18.80
-19.21
-18.48
-16.52
-13.44
-9.55
-5.35
-1.39
1.94
4.46
6.20
7.36
8.13
8.62
8.87
8.87
8.59
8.11
7.56
7.06
6.72
6.55
6.45
6.27
5.89
5.31
4.59
3.92
3.41
3.06
2.74
2.20
1.21
-0.32
-2.27
-4.36
-6.29
-7.84
-9.05
-10.22
-11.72
-13.81
-16.50
-19.46
-22.17
-24.06
-24.77
-24.14
-22.28
-19.42
-15.83
-11.76
-7.49
-3.30
0.54
3.79
6.28
7.96
8.87
9.13
8.89
8.35
7.70
7.14
6.84
6.88
7.23
7.76
8.28
8.66
8.83
8.80
8.64
8.36
7.95
7.35
6.48
5.32
3.87
2.17
0.26
-1.78
-3.85
-5.79
-7.46
-8.85
-10.10
-11.49
-13.28
-15.61
-18.33
-21.05
-23.26
-24.47
-24.37
-22.92
-20.30
-16.88
-13.06
-9.19
-5.53
-2.26
0.56
2.90
4.73
6.10
7.01
7.59
7.97
8.31
8.73
9.33
10.07
10.88
11.61
12.11
12.29
12.14
11.74
11.21
10.65
10.08
9.45
8.61
7.46
5.97
4.20
2.28
0.33
-1.53
-3.24
-4.78
-6.20
-7.61
-9.15
-10.99
-13.22
-15.77
-18.40
-20.75
-22.41
-23.07
-22.52
-20.72
-17.82
-14.06
-9.80
-5.39
-1.18
2.58
5.71
8.17
9.96
11.15
11.85
12.19
12.29
12.25
12.20
12.14
12.13
12.19
12.35
12.61
12.88
13.06
13.04
12.79
12.32
11.70
10.99
10.11
8.95
7.42
5.54
3.48
1.46
-0.32
-1.82
-3.12
-4.43
-5.95
-7.85
-10.17
-12.86
-15.76
-18.61
-21.07
-22.77
-23.40
-22.80
-20.92
-17.93
-14.06
-9.70
-5.28
-1.23
2.13
4.65
6.40
7.63
8.57
9.34
9.97
10.38
10.56
10.58
10.58
10.71
11.06
11.63
12.35
13.09
13.71
14.08
14.09
13.71
12.97
11.93
10.70
9.40
8.11
6.89
5.76
4.69
3.58
2.33
0.84
-0.94
-2.95
-5.12
-7.35
-9.61
-11.93
-14.31
-16.67
-18.79
-20.37
-21.11
-20.79
-19.36
-16.99
-13.95
-10.54
-7.02
-3.53
-0.10
3.23
6.37
9.12
11.26
12.57
12.99
12.65
11.85
10.99
10.39
10.27
10.61
11.28
12.12
13.02
13.92
14.78
15.53
16.00
16.04
15.53
14.45
12.90
11.03
9.02
7.02
5.16
3.52
2.10
0.86
-0.38
-1.77
-3.43
-5.37
-7.54
-9.82
-12.13
-14.38
-16.46
-18.22
-19.40
-19.76
-19.15
-17.56
-15.15
-12.16
-8.86
-5.49
-2.25
0.70
3.17
5.04
6.21
6.66
6.51
5.98
5.35
4.87
4.67
4.75
4.97
5.19
5.31
5.30
5.26
5.27
5.37
5.53
5.65
5.60
5.28
4.58
3.50
2.07
0.41
-1.37
-3.13
-4.83
-6.50
-8.20
-10.03
-12.05
-14.32
-16.88
-19.76
-22.94
-26.29
-29.48
-31.95
-33.07
-32.23
-29.13
-23.84
-16.87
-9.02
-1.14
6.05
12.05
16.65
19.84
21.72
22.41
22.08
20.87
18.93
16.38
13.27
9.63
5.52
1.06
-3.56
-8.11
-12.39
-16.32
-19.99
-23.62
-27.54
-32.06
-37.30
-43.19
-49.41
-55.46
-60.72
-64.62
-66.77
-66.99
-65.35
-62.11
-57.60
-52.16
-46.06
-39.49
-32.59
-25.44
-18.08
-10.51
-2.70
5.42
13.92
22.80
32.00
41.33
50.40
58.72
65.67
70.74
73.59
74.22
72.93
70.17
66.37
61.83
56.77
51.40
46.03
41.07
36.91
33.82
31.86
30.81
30.40
30.29
30.18
29.86
29.14
27.94
26.28
24.33
22.37
20.67
19.44
18.70
18.31
17.98
17.39
16.23
14.30
11.60
8.27
4.53
0.66
-3.19
-6.94
-10.55
-13.99
-17.06
-19.53
-21.18
-21.90
-21.80
-21.04
-19.84
-18.25
-16.27
-13.84
-11.05
-8.11
-5.33
-3.04
-1.38
-0.34
0.21
0.44
0.50
0.50
0.56
0.83
1.44
2.53
4.03
5.80
7.58
9.17
10.47
11.51
12.39
13.16
13.79
14.13
14.03
13.38
12.14
10.38
8.21
5.76
3.18
0.54
-2.07
-4.59
-6.97
-9.19
-11.25
-13.22
-15.27
-17.53
-20.07
-22.72
-25.05
-26.52
-26.61
-25.05
-21.95
-17.76
-13.09
-8.55
-4.52
-1.19
1.41
3.36
4.70
5.52
6.00
6.35
6.81
7.57
8.68
10.03
11.38
12.50
13.23
13.52
13.48
13.21
12.87
12.50
12.11
11.67
11.15
10.56
9.92
9.20
8.33
7.21
5.74
3.89
1.77
-0.42
-2.46
-4.24
-5.78
-7.26
-8.91
-10.82
-12.97
-15.16
-17.09
-18.46
-18.98
-18.47
-16.92
-14.45
-11.35
-8.00
-4.72
-1.74
0.84
2.97
4.64
5.85
6.59
6.93
7.00
6.95
6.85
6.75
6.66
6.64
6.80
7.20
7.87
8.67
9.41
9.86
9.91
9.55
8.82
7.83
6.67
5.40
4.07
2.69
1.23
-0.33
-1.97
-3.63
-5.16
-6.51
-7.69
-8.87
-10.25
-12.00
-14.14
-16.49
-18.74
-20.51
-21.44
-21.26
-19.87
-17.34
-13.96
-10.13
-6.27
-2.73
0.34
2.85
4.80
6.15
6.85
6.88
6.30
5.33
4.22
3.28
2.70
2.58
2.89
3.58
4.52
5.60
6.64
7.47
7.94
7.95
7.53
6.80
5.94
5.06
4.17
3.20
2.00
0.49
-1.31
-3.29
-5.28
-7.13
-8.82
-10.41
-12.07
-13.95
-16.13
-18.55
-21.02
-23.20
-24.67
-25.03
-23.99
-21.55
-17.97
-13.77
-9.49
-5.60
-2.29
0.45
2.73
4.59
6.02
6.91
7.22
7.08
6.76
6.60
6.87
7.63
8.75
9.92
10.84
11.34
11.39
11.13
10.77
10.48
10.26
9.97
9.38
8.32
6.71
4.64
2.31
-0.04
-2.21
-4.06
-5.59
-6.85
-7.90
-8.89
-9.90
-11.09
-12.56
-14.35
-16.41
-18.54
-20.44
-21.72
-22.06
-21.21
-19.16
-16.08
-12.30
-8.25
-4.29
-0.71
2.38
4.99
7.14
8.88
10.24
11.20
11.79
12.06
12.12
12.06
11.98
11.95
12.05
12.32
12.77
13.33
13.82
14.03
13.77
12.98
11.74
10.21
8.59
6.99
5.45
3.87
2.16
0.28
-1.78
-3.89
-5.94
-7.81
-9.47
-10.98
-12.50
-14.21
-16.23
-18.58
-21.05
-23.32
-24.97
-25.61
-25.01
-23.15
-20.21
-16.53
-12.55
-8.68
-5.26
-2.50
-0.47
0.89
1.70
2.08
2.16
1.97
1.52
0.80
-0.16
-1.30
-2.54
-3.79
-4.96
-5.97
-6.80
-7.46
-8.03
-8.66
-9.60
-11.08
-13.26
-16.11
-19.35
-22.57
-25.38
-27.67
-29.62
-31.70
-34.32
-37.64
-41.36
-44.74
-46.98
-47.50
-46.25
-43.73
-40.76
-38.16
-36.23
-34.51
-31.56
-25.13
-12.53
8.64
39.68
80.05
127.11
176.36
222.29
259.67
284.65
295.63
293.34
280.29
259.77
234.84
207.66
179.35
150.46
121.46
93.11
66.46
42.38
21.06
1.85
-16.43
-34.87
-53.83
-72.89
-91.18
-107.85
-122.47
-134.83
-144.64
-151.32
-154.26
-153.29
-149.22
-143.77
-138.96
-136.26
-136.02
-137.39
-138.82
-138.80
-136.34
-131.21
-123.70
-114.35
-103.78
-92.46
-80.78
-68.90
-56.82
-44.36
-31.35
-17.92
-4.56
7.75
17.76
24.13
25.89
22.77
15.45
5.57
-4.65
-12.88
-17.36
-17.34
-13.24
-6.42
1.36
8.47
13.87
17.24
18.87
19.36
19.29
19.09
18.92
18.81
18.67
18.48
18.24
18.02
17.87
17.78
17.67
17.40
16.78
15.66
13.95
11.68
9.04
6.38
4.10
2.59
2.13
2.85
4.66
7.26
10.23
13.04
15.19
16.34
16.40
15.47
13.79
11.60
9.11
6.45
3.78
1.34
-0.60
-1.76
-2.00
-1.37
-0.06
1.73
3.82
6.13
8.60
11.11
13.48
15.45
16.77
17.29
17.00
16.06
14.65
12.97
11.11
9.11
6.93
4.54
1.96
-0.79
-3.68
-6.69
-9.80
-12.92
-15.91
-18.54
-20.56
-21.72
-21.86
-20.90
-18.87
-15.94
-12.43
-8.75
-5.30
-2.35
0.02
1.94
3.55
4.99
6.23
7.14
7.64
7.75
7.61
7.44
7.42
7.62
8.00
8.52
9.09
9.69
10.27
10.71
10.92
10.76
10.20
9.26
8.05
6.66
5.15
3.53
1.80
0.01
-1.79
-3.53
-5.15
-6.67
-8.15
-9.65
-11.23
-12.81
-14.24
-15.30
-15.76
-15.44
-14.22
-12.13
-9.24
-5.71
-1.81
2.14
5.79
8.85
11.16
12.72
13.68
14.22
14.48
14.51
14.31
13.89
13.32
12.75
12.34
12.17
12.18
12.17
11.93
11.33
10.39
9.21
7.91
6.50
4.89
2.94
0.56
-2.19
-5.08
-7.87
-10.36
-12.52
-14.47
-16.35
-18.22
-20.07
-21.82
-23.40
-24.78
-25.97
-26.90
-27.42
-27.27
-26.15
-23.90
-20.53
-16.26
-11.49
-6.67
-2.20
1.61
4.62
6.84
8.33
9.24
9.71
9.81
9.62
9.18
8.56
7.91
7.37
7.07
7.06
7.31
7.67
8.04
8.28
8.31
8.08
7.48
6.42
4.87
2.86
0.55
-1.85
-4.12
-6.08
-7.62
-8.77
-9.61
-10.35
-11.21
-12.43
-14.14
-16.25
-18.46
-20.26
-21.10
-20.56
-18.50
-15.07
-10.71
-5.89
-1.08
3.46
7.55
11.09
13.94
15.93
16.97
17.12
16.62
15.87
15.23
14.97
15.12
15.62
16.33
17.17
18.06
18.95
19.73
20.25
20.38
20.06
19.38
18.43
17.31
16.02
14.51
12.67
10.42
7.79
4.90
1.94
-0.86
-3.38
-5.60
-7.65
-9.76
-12.11
-14.70
-17.32
-19.57
-21.00
-21.24
-20.16
-17.81
-14.45
-10.42
-6.05
-1.69
2.39
5.96
8.90
11.14
12.65
13.42
13.46
12.92
12.04
11.16
10.61
10.53
10.88
11.42
11.92
12.24
12.45
12.68
13.06
13.55
14.03
14.31
14.25
13.79
12.98
11.87
10.44
8.67
6.53
4.04
1.35
-1.35
-3.93
-6.31
-8.59
-10.88
-13.27
-15.69
-17.86
-19.40
-19.90
-19.11
-16.98
-13.75
-9.79
-5.52
-1.32
2.61
6.15
9.24
11.85
13.92
15.38
16.26
16.61
16.59
16.33
15.96
15.54
15.17
14.97
15.05
15.49
16.18
16.87
17.28
17.15
16.45
15.32
14.02
12.69
11.35
9.82
7.88
5.37
2.35
-0.94
-4.16
-7.00
-9.23
-10.81
-11.92
-12.82
-13.86
-15.29
-17.11
-19.06
-20.62
-21.21
-20.41
-18.14
-14.64
-10.40
-5.92
-1.58
2.42
6.00
9.05
11.42
12.91
13.42
13.04
12.06
10.86
9.80
9.10
8.76
8.71
8.84
9.06
9.27
9.37
9.24
8.78
7.93
6.70
5.23
3.61
1.94
0.27
-1.42
-3.13
-4.89
-6.67
-8.41
-10.05
-11.52
-12.81
-13.95
-15.07
-16.26
-17.61
-19.11
-20.59
-21.79
-22.39
-22.12
-20.84
-18.62
-15.64
-12.15
-8.42
-4.63
-0.97
2.38
5.22
7.38
8.78
9.46
9.61
9.46
9.22
9.03
8.96
9.00
9.13
9.31
9.50
9.69
9.86
10.03
10.15
10.14
9.92
9.45
8.75
7.90
7.01
6.09
5.10
3.96
2.57
0.91
-0.98
-2.99
-5.00
-6.91
-8.67
-10.27
-11.77
-13.21
-14.57
-15.70
-16.36
-16.24
-15.13
-13.01
-10.01
-6.45
-2.65
1.09
4.52
7.43
9.67
11.17
11.95
12.15
11.98
11.67
11.35
11.06
10.84
10.69
10.62
10.61
10.57
10.36
9.87
9.08
8.09
7.07
6.13
5.24
4.24
2.94
1.25
-0.71
-2.69
-4.44
-5.78
-6.70
-7.35
-7.92
-8.57
-9.37
-10.34
-11.44
-12.61
-13.73
-14.58
-14.86
-14.24
-12.50
-9.68
-6.02
-1.89
2.27
6.15
9.53
12.23
14.13
15.12
15.19
14.51
13.41
12.27
11.39
10.93
10.79
10.81
10.84
10.78
10.65
10.48
10.32
10.12
9.86
9.49
8.93
8.18
7.22
6.05
4.72
3.25
1.68
0.06
-1.55
-3.06
-4.32
-5.27
-5.91
-6.44
-7.18
-8.45
-10.33
-12.64
-14.87
-16.39
-16.70
-15.58
-13.13
-9.72
-5.83
-1.90
1.74
4.90
7.43
9.26
10.29
10.56
10.15
9.31
8.38
7.70
7.47
7.65
7.99
8.17
7.99
7.47
6.80
6.27
6.02
6.06
6.25
6.42
6.37
5.92
4.95
3.40
1.34
-0.98
-3.24
-5.15
-6.60
-7.72
-8.72
-9.86
-11.27
-12.95
-14.82
-16.78
-18.69
-20.36
-21.49
-21.79
-21.03
-19.19
-16.47
-13.23
-9.86
-6.71
-4.01
-1.89
-0.37
0.64
1.26
1.61
1.72
1.59
1.22
0.62
-0.06
-0.61
-0.84
-0.63
-0.03
0.76
1.55
2.16
2.51
2.58
2.37
1.85
0.98
-0.23
-1.69
-3.24
-4.75
-6.07
-7.14
-7.98
-8.66
-9.34
-10.18
-11.29
-12.69
-14.20
-15.61
-16.59
-16.86
-16.24
-14.64
-12.11
-8.85
-5.19
-1.48
1.89
4.70
6.84
8.38
9.43
10.10
10.40
10.35
9.96
9.30
8.51
7.79
7.32
7.24
7.58
8.20
8.84
9.19
9.06
8.42
7.44
6.38
5.40
4.52
3.57
2.40
0.98
-0.64
-2.30
-3.92
-5.51
-7.15
-8.84
-10.55
-12.11
-13.43
-14.49
-15.36
-16.12
-16.82
-17.35
-17.53
-17.06
-15.71
-13.36
-10.06
-6.11
-1.96
1.93
5.17
7.60
9.20
10.12
10.48
10.41
9.99
9.35
8.62
7.99
7.63
7.59
7.85
8.30
8.81
9.29
9.67
9.89
9.90
9.64
9.08
8.21
7.08
5.76
4.25
2.54
0.60
-1.54
-3.73
-5.72
-7.29
-8.31
-8.87
-9.21
-9.59
-10.21
-11.15
-12.39
-13.78
-15.10
-16.07
-16.35
-15.66
-13.84
-10.94
-7.26
-3.19
0.81
4.38
7.25
9.26
10.43
10.83
10.69
10.20
9.59
8.97
8.40
7.90
7.50
7.25
7.23
7.47
7.91
8.45
8.97
9.35
9.50
9.38
8.99
8.37
7.57
6.62
5.57
4.40
3.11
1.71
0.22
-1.28
-2.69
-3.92
-4.92
-5.75
-6.54
-7.49
-8.71
-10.25
-11.96
-13.60
-14.89
-15.57
-15.50
-14.62
-12.92
-10.43
-7.29
-3.68
0.10
3.68
6.73
9.02
10.44
11.03
10.99
10.55
10.00
9.60
9.50
9.79
10.40
11.16
11.89
12.37
12.47
12.20
11.61
10.85
10.00
9.10
8.08
6.86
5.39
3.74
2.01
0.35
-1.19
-2.61
-3.99
-5.37
-6.73
-7.99
-9.07
-9.98
-10.80
-11.69
-12.80
-14.17
-15.70
-17.16
-18.27
-18.74
-18.37
-17.10
-15.01
-12.35
-9.42
-6.55
-3.99
-1.93
-0.45
0.42
0.72
0.53
0.04
-0.55
-1.03
-1.20
-0.97
-0.34
0.56
1.52
2.33
2.86
3.15
3.29
3.46
3.73
4.03
4.17
3.94
3.17
1.90
0.31
-1.37
-2.95
-4.31
-5.41
-6.30
-7.02
-7.64
-8.23
-8.89
-9.67
-10.60
-11.70
-12.86
-13.98
-14.85
-15.25
-14.91
-13.65
-11.42
-8.37
-4.83
-1.23
2.05
4.75
6.77
8.17
9.06
9.56
9.83
9.93
9.97
9.97
9.94
9.88
9.72
9.44
9.03
8.53
8.03
7.58
7.26
7.04
6.88
6.68
6.35
5.80
5.03
4.04
2.87
1.49
-0.09
-1.82
-3.60
-5.29
-6.74
-7.89
-8.74
-9.45
-10.18
-11.06
-12.17
-13.46
-14.76
-15.79
-16.22
-15.81
-14.39
-12.01
-8.91
-5.41
-1.86
1.47
4.42
6.91
8.87
10.24
10.99
11.16
10.86
10.33
9.80
9.50
9.50
9.77
10.17
10.53
10.74
10.80
10.78
10.75
10.69
10.51
10.02
9.06
7.58
5.70
3.62
1.55
-0.35
-2.06
-3.57
-4.93
-6.16
-7.27
-8.32
-9.42
-10.66
-12.15
-13.89
-15.82
-17.82
-19.68
-21.12
-21.79
-21.41
-19.83
-17.16
-13.71
-9.95
-6.27
-2.93
-0.03
2.41
4.38
5.90
6.99
7.71
8.18
8.49
8.69
8.78
8.76
8.64
8.47
8.33
8.31
8.45
8.76
9.20
9.65
9.98
10.03
9.72
9.09
8.18
7.09
5.85
4.45
2.89
1.22
-0.46
-2.10
-3.71
-5.36
-7.11
-8.95
-10.77
-12.40
-13.78
-14.90
-15.80
-16.51
-16.88
-16.72
-15.79
-13.97
-11.28
-7.86
-3.98
0.05
3.89
7.23
9.87
11.73
12.84
13.38
13.53
13.49
13.39
13.38
13.54
13.89
14.35
14.77
15.00
14.99
14.75
14.39
13.99
13.61
13.22
12.81
12.34
11.80
11.11
10.17
8.85
7.12
5.07
2.90
0.82
-1.04
-2.67
-4.15
-5.57
-6.99
-8.48
-10.13
-11.98
-14.01
-15.99
-17.55
-18.27
-17.90
-16.41
-14.08
-11.23
-8.17
-5.06
-2.01
0.87
3.36
5.21
6.28
6.63
6.50
6.20
5.97
5.86
5.82
5.80
5.75
5.75
5.87
6.11
6.43
6.73
6.88
6.85
6.55
5.99
5.14
3.99
2.53
0.80
-1.11
-3.05
-4.85
-6.37
-7.53
-8.33
-8.92
-9.50
-10.26
-11.34
-12.72
-14.27
-15.71
-16.76
-17.18
-16.85
-15.78
-14.06
-11.84
-9.22
-6.33
-3.27
-0.21
2.62
4.94
6.53
7.28
7.23
6.57
5.56
4.51
3.68
3.22
3.18
3.47
3.94
4.45
4.95
5.42
5.87
6.24
6.46
6.39
6.00
5.33
4.46
3.44
2.25
0.84
-0.83
-2.64
-4.32
-5.57
-6.22
-6.31
-6.16
-6.18
-6.76
-8.03
-9.84
-11.83
-13.46
-14.28
-13.96
-12.43
-9.90
-6.76
-3.49
-0.46
2.07
4.01
5.38
6.22
6.57
6.49
6.05
5.39
4.69
4.13
3.80
3.74
3.89
4.15
4.35
4.40
4.26
4.00
3.75
3.67
3.77
3.97
4.05
3.80
3.16
2.20
1.16
0.29
-0.23
-0.41
-0.42
-0.51
-0.94
-1.89
-3.38
-5.27
-7.26
-8.95
-9.95
-9.96
-8.86
-6.75
-3.84
-0.41
3.26
6.97
10.55
13.84
16.65
18.77
20.09
20.61
20.49
20.02
19.51
19.19
19.11
19.22
19.32
19.27
18.99
18.54
18.02
17.53
17.06
16.47
15.61
14.39
12.78
10.88
8.81
6.68
4.53
2.32
-0.01
-2.52
-5.24
-8.16
-11.26
-14.51
-17.88
-21.29
-24.55
-27.42
-29.59
-30.78
-30.85
-29.79
-27.76
-25.00
-21.79
-18.36
-14.94
-11.74
-8.95
-6.76
-5.25
-4.37
-3.97
-3.82
-3.69
-3.37
-2.75
-1.79
-0.52
0.94
2.47
3.90
5.09
5.90
6.29
6.24
5.81
5.04
4.02
2.79
1.43
0.05
-1.23
-2.31
-3.15
-3.83
-4.43
-5.06
-5.79
-6.64
-7.61
-8.75
-10.00
-11.25
-12.19
-12.41
-11.52
-9.32
-5.93
-1.76
2.62
6.63
9.90
12.27
13.76
14.51
14.65
14.39
13.88
13.31
12.81
12.45
12.23
12.11
12.05
12.06
12.15
12.35
12.63
12.94
13.19
13.30
13.28
13.13
12.90
12.58
12.09
11.32
10.15
8.50
6.40
3.99
1.51
-0.79
-2.76
-4.47
-6.15
-8.13
-10.67
-13.77
-17.13
-20.25
-22.55
-23.63
-23.39
-21.96
-19.65
-16.75
-13.46
-9.89
-6.15
-2.39
1.17
4.19
6.41
7.66
7.96
7.49
6.54
5.41
4.39
3.65
3.30
3.32
3.68
4.32
5.16
6.11
7.04
7.83
8.39
8.65
8.65
8.40
7.93
7.20
6.15
4.75
3.05
1.22
-0.49
-1.94
-3.10
-4.16
-5.41
-7.10
-9.31
-11.85
-14.32
-16.18
-16.94
-16.32
-14.27
-10.97
-6.77
-2.02
2.86
7.53
11.67
15.03
17.52
19.10
19.86
19.85
19.17
17.87
16.13
14.22
12.51
11.32
10.81
10.93
11.41
11.94
12.25
12.21
11.77
10.97
9.92
8.70
7.40
6.07
4.71
3.29
1.81
0.30
-1.10
-2.25
-3.11
-3.80
-4.60
-5.81
-7.64
-10.08
-12.87
-15.61
-17.84
-19.19
-19.46
-18.62
-16.82
-14.32
-11.42
-8.42
-5.49
-2.75
-0.26
1.87
3.54
4.61
5.06
4.95
4.46
3.80
3.15
2.66
2.43
2.54
3.05
3.97
5.19
6.51
7.65
8.36
8.51
8.09
7.23
6.08
4.78
3.43
2.07
0.69
-0.69
-2.07
-3.42
-4.76
-6.13
-7.61
-9.32
-11.25
-13.29
-15.18
-16.56
-17.14
-16.77
-15.51
-13.57
-11.24
-8.73
-6.16
-3.54
-0.88
1.71
4.03
5.81
6.86
7.14
6.81
6.16
5.46
4.88
4.46
4.19
4.07
4.15
4.55
5.28
6.20
7.10
7.71
7.83
7.40
6.47
5.16
3.58
1.81
-0.02
-1.82
-3.47
-4.87
-6.01
-7.01
-8.06
-9.41
-11.27
-13.66
-16.41
-19.13
-21.41
-22.79
-23.02
-22.01
-19.86
-16.79
-13.08
-8.98
-4.74
-0.55
3.38
6.75
9.32
10.85
11.27
10.77
9.76
8.77
8.21
8.29
8.90
9.75
10.47
10.87
10.89
10.67
10.39
10.15
9.89
9.43
8.58
7.21
5.39
3.31
1.23
-0.71
-2.52
-4.34
-6.29
-8.37
-10.41
-12.24
-13.74
-14.95
-15.98
-16.89
-17.55
-17.70
-17.01
-15.30
-12.62
-9.24
-5.56
-1.99
1.16
3.72
5.61
6.85
7.47
7.57
7.30
6.78
6.18
5.69
5.45
5.59
6.13
6.94
7.79
8.42
8.64
8.43
7.92
7.25
6.53
5.82
5.08
4.26
3.38
2.44
1.48
0.47
-0.66
-1.97
-3.50
-5.20
-6.98
-8.72
-10.27
-11.49
-12.21
-12.28
-11.58
-10.09
-7.86
-5.07
-1.95
1.20
4.09
6.52
8.36
9.54
10.05
9.91
9.23
8.17
6.92
5.67
4.56
3.63
2.82
2.12
1.52
1.11
0.98
1.11
1.45
1.83
2.12
2.18
1.94
1.31
0.23
-1.33
-3.30
-5.51
-7.71
-9.68
-11.29
-12.60
-13.77
-15.05
-16.60
-18.42
-20.26
-21.71
-22.32
-21.75
-19.90
-16.93
-13.23
-9.22
-5.28
-1.67
1.48
4.08
6.04
7.29
7.81
7.65
6.96
6.00
5.07
4.50
4.51
5.13
6.22
7.43
8.43
8.99
9.09
8.82
8.33
7.67
6.77
5.54
3.95
2.08
0.07
-1.88
-3.71
-5.41
-7.04
-8.69
-10.41
-12.27
-14.30
-16.51
-18.80
-20.96
-22.63
-23.41
-22.94
-21.02
-17.74
-13.51
-8.95
-4.77
-1.47
0.82
2.33
3.58
5.04
6.97
9.27
11.69
13.94
15.92
17.73
19.73
22.42
26.45
32.50
41.07
52.20
65.25
78.90
91.37
101.04
106.88
108.70
107.03
102.63
96.17
87.98
78.29
67.52
56.53
46.57
38.91
34.39
33.02
34.06
36.28
38.50
39.92
40.29
39.63
38.06
35.55
31.95
27.23
21.66
15.87
10.69
6.81
4.47
3.36
2.70
1.56
-0.88
-5.17
-11.44
-19.50
-28.87
-38.87
-48.68
-57.53
-64.79
-70.12
-73.52
-75.18
-75.41
-74.46
-72.41
-69.28
-65.13
-60.28
-55.30
-50.91
-47.69
-45.82
-44.95
-44.30
-42.95
-40.24
-36.02
-30.61
-24.65
-18.71
-13.10
-7.81
-2.62
2.72
8.30
14.11
20.06
26.03
31.94
37.68
43.08
47.94
51.98
55.07
57.15
58.33
58.83
58.86
58.62
58.18
57.56
56.59
55.01
52.45
48.56
43.10
36.03
27.51
17.86
7.45
-3.31
-14.09
-24.59
-34.57
-43.88
-52.49
-60.46
-67.83
-74.53
-80.33
-84.95
-88.13
-89.82
-90.32
-90.15
-89.93
-90.18
-91.16
-92.80
-94.74
-96.52
-97.62
-97.66
-96.40
-93.80
-89.97
-85.14
-79.55
-73.50
-67.26
-61.11
-55.40
-50.47
-46.68
-44.17
-42.84
-42.25
-41.71
-40.49
-37.89
-33.30
-26.18
-16.03
-2.57
14.04
32.82
52.00
69.32
82.79
91.39
95.47
96.52
96.54
97.13
98.93
101.65
104.37
106.18
106.56
105.39
102.79
98.78
93.19
85.74
76.25
64.89
52.18
38.86
25.65
12.98
0.99
-10.37
-21.11
-31.01
-39.56
-46.10
-50.18
-51.74
-51.27
-49.66
-47.87
-46.61
-46.04
-45.84
-45.41
-44.16
-41.86
-38.64
-34.97
-31.36
-28.21
-25.64
-23.56
-21.72
-19.90
-17.87
-15.46
-12.56
-9.17
-5.40
-1.56
1.99
4.90
7.02
8.42
9.37
10.24
11.28
12.57
14.00
15.40
16.60
17.48
18.01
18.15
17.88
17.12
15.86
14.13
12.08
9.88
7.69
5.61
3.60
1.56
-0.56
-2.66
-4.55
-5.99
-6.89
-7.40
-7.84
-8.58
-9.79
-11.36
-12.95
-14.25
-15.13
-15.74
-16.34
-17.15
-18.24
-19.45
-20.63
-21.60
-22.34
-22.85
-23.13
-23.14
-22.81
-22.19
-21.39
-20.57
-19.79
-18.92
-17.64
-15.54
-12.30
-7.87
-2.54
3.16
8.63
13.49
17.64
21.29
24.73
28.05
31.00
33.04
33.56
32.25
29.26
25.21
21.04
17.67
15.78
15.65
17.09
19.61
22.46
24.88
26.20
26.05
24.37
21.38
17.50
13.19
8.86
4.85
1.41
-1.33
-3.30
-4.55
-5.24
-5.52
-5.58
-5.56
-5.61
-5.83
-6.32
-7.11
-8.15
-9.32
-10.44
-11.39
-12.12
-12.65
-13.10
-13.57
-14.14
-14.86
-15.74
-16.85
-18.23
-19.90
-21.76
-23.57
-24.98
-25.61
-25.16
-23.55
-20.84
-17.29
-13.15
-8.68
-4.11
0.36
4.59
8.54
12.27
15.89
19.44
22.81
25.70
27.70
28.55
28.21
26.88
24.95
22.75
20.47
18.22
15.98
13.79
11.66
9.57
7.41
5.00
2.18
-1.05
-4.50
-7.86
-10.83
-13.25
-15.14
-16.64
-17.92
-19.13
-20.34
-21.58
-22.90
-24.34
-25.89
-27.43
-28.70
-29.34
-29.09
-27.78
-25.46
-22.34
-18.74
-15.05
-11.65
-8.89
-7.05
-6.24
-6.37
-7.11
-8.03
-8.69
-8.84
-8.44
-7.59
-6.43
-4.99
-3.25
-1.14
1.24
3.68
5.82
7.38
8.22
8.41
8.19
7.80
7.37
6.88
6.29
5.55
4.70
3.84
3.08
2.42
1.76
0.92
-0.29
-2.01
-4.26
-6.96
-9.88
-12.69
-15.05
-16.68
-17.39
-17.16
-16.04
-14.15
-11.60
-8.50
-5.00
-1.34
2.11
4.96
6.85
7.64
7.42
6.45
5.07
3.59
2.19
0.96
0.01
-0.55
-0.61
-0.09
0.96
2.36
3.85
5.15
6.11
6.72
7.07
7.28
7.31
7.04
6.21
4.62
2.25
-0.74
-3.95
-7.00
-9.67
-11.90
-13.86
-15.78
-17.74
-19.66
-21.30
-22.31
-22.40
-21.43
-19.49
-16.80
-13.67
-10.37
-7.05
-3.75
-0.51
2.56
5.28
7.44
8.95
9.85
10.30
10.54
10.70
10.85
10.96
11.06
11.19
11.44
11.84
12.34
12.82
13.16
13.31
13.32
13.28
13.31
13.49
13.81
14.20
14.48
14.46
13.96
12.91
11.44
9.71
7.92
6.06
4.01
1.54
-1.42
-4.73
-7.96
-10.62
-12.30
-12.83
-12.29
-10.91
-8.95
-6.60
-4.00
-1.29
1.37
3.80
5.82
7.36
8.47
9.30
10.00
10.66
11.21
11.55
11.55
11.23
10.72
10.23
9.96
9.92
9.97
9.81
9.20
7.96
6.13
3.87
1.44
-0.85
-2.80
-4.28
-5.36
-6.29
-7.47
-9.25
-11.82
-15.11
-18.81
-22.48
-25.69
-28.13
-29.56
-29.82
-28.76
-26.29
-22.47
-17.58
-12.12
-6.67
-1.76
2.33
5.53
7.97
9.77
11.04
11.79
12.11
12.12
12.07
12.19
12.57
13.17
13.78
14.24
14.48
14.63
14.88
15.31
15.86
16.28
16.26
15.55
14.06
11.83
9.05
6.02
3.11
0.64
-1.18
-2.46
-3.57
-5.03
-7.27
-10.40
-14.06
-17.57
-20.15
-21.29
-20.85
-19.08
-16.46
-13.46
-10.35
-7.21
-3.99
-0.67
2.60
5.53
7.79
9.17
9.73
9.82
9.98
10.66
12.11
14.18
16.48
18.58
20.19
21.31
22.09
22.66
22.97
22.77
21.83
20.06
17.69
15.17
12.96
11.30
10.14
9.17
8.05
6.58
4.72
2.51
-0.03
-2.96
-6.35
-10.14
-13.98
-17.20
-19.07
-19.03
-16.97
-13.34
-8.97
-4.73
-1.16
1.61
3.83
5.79
7.61
9.14
10.09
10.27
9.73
8.83
8.02
7.71
8.00
8.77
9.74
10.69
11.55
12.36
13.23
14.18
15.09
15.72
15.90
15.52
14.65
13.41
11.91
10.17
8.17
5.90
3.43
0.86
-1.67
-4.13
-6.58
-9.11
-11.73
-14.24
-16.31
-17.54
-17.64
-16.52
-14.33
-11.35
-7.90
-4.24
-0.57
2.96
6.17
8.82
10.67
11.56
11.53
10.79
9.79
8.97
8.69
9.03
9.86
10.83
11.60
12.02
12.12
12.11
12.19
12.44
12.75
12.90
12.64
11.81
10.34
8.28
5.74
2.88
-0.07
-2.94
-5.57
-7.94
-10.15
-12.44
-14.99
-17.85
-20.87
-23.66
-25.76
-26.67
-26.07
-23.85
-20.21
-15.63
-10.76
-6.24
-2.47
0.46
2.68
4.41
5.79
6.78
7.29
7.33
7.11
6.95
7.16
7.84
8.83
9.89
10.81
11.59
12.34
13.27
14.41
15.61
16.61
17.11
16.97
16.21
15.01
13.57
12.05
10.45
8.70
6.74
4.53
2.08
-0.52
-3.21
-5.99
-8.94
-12.07
-15.27
-18.20
-20.37
-21.30
-20.71
-18.65
-15.46
-11.65
-7.75
-4.11
-0.94
1.70
3.82
5.49
6.80
7.89
8.92
10.03
11.35
12.90
14.59
16.30
17.85
19.13
20.11
20.86
21.53
22.25
23.04
23.78
24.26
24.27
23.73
22.64
21.13
19.32
17.29
15.08
12.70
10.21
7.68
5.17
2.65
0.05
-2.76
-5.89
-9.35
-12.95
-16.38
-19.19
-20.97
-21.39
-20.38
-18.09
-14.86
-11.13
-7.34
-3.81
-0.74
1.83
3.95
5.74
7.36
8.97
10.65
12.45
14.34
16.27
18.18
20.01
21.65
22.96
23.77
23.91
23.22
21.62
19.20
16.13
12.70
9.25
6.04
3.24
0.88
-1.07
-2.77
-4.39
-6.11
-8.06
-10.29
-12.72
-15.24
-17.73
-20.17
-22.66
-25.31
-28.18
-31.17
-33.91
-35.86
-36.49
-35.34
-32.20
-27.12
-20.41
-12.64
-4.54
3.08
9.52
14.37
17.53
19.23
19.90
20.02
19.95
19.92
20.03
20.28
20.62
20.91
20.99
20.71
20.00
18.95
17.76
16.66
15.73
14.92
13.98
12.67
10.90
8.75
6.47
4.28
2.28
0.40
-1.47
-3.41
-5.36
-7.19
-8.81
-10.26
-11.76
-13.53
-15.63
-17.82
-19.60
-20.41
-19.84
-17.83
-14.67
-10.83
-6.88
-3.23
-0.13
2.37
4.32
5.83
7.03
8.04
8.98
9.91
10.83
11.60
12.06
12.10
11.77
11.27
10.90
10.88
11.23
11.72
12.04
11.92
11.31
10.42
9.61
9.27
9.60
10.60
12.01
13.38
14.23
14.22
13.36
12.13
11.46
12.45
15.94
22.13
30.30
38.99
46.24
50.15
49.44
43.85
34.31
22.82
11.91
3.97
0.64
2.39
8.54
17.73
28.49
39.75
51.12
62.74
75.04
88.31
102.32
116.25
128.72
138.12
143.05
142.79
137.49
128.09
115.89
102.13
87.66
72.94
58.29
44.18
31.32
20.53
12.35
6.70
2.76
-0.90
-5.81
-13.07
-22.92
-34.60
-46.65
-57.37
-65.39
-70.00
-71.38
-70.48
-68.79
-67.95
-69.41
-73.96
-81.49
-90.96
-100.73
-109.07
-114.81
-117.63
-117.96
-116.62
-114.32
-111.45
-108.13
-104.44
-100.60
-96.94
-93.68
-90.78
-87.84
-84.25
-79.41
-72.97
-64.97
-55.83
-46.26
-37.07
-29.03
-22.61
-17.79
-13.85
-9.40
-2.60
8.29
24.24
44.96
68.68
92.51
113.12
127.74
134.81
134.34
127.66
116.76
103.68
89.93
76.42
63.59
51.50
40.07
29.15
18.66
8.58
-0.80
-8.92
-15.08
-18.73
-19.87
-19.33
-18.57
-19.30
-22.79
-29.35
-38.22
-47.84
-56.46
-62.65
-65.67
-65.51
-62.84
-58.65
-53.95
-49.36
-44.62
-38.48
-29.03
-14.60
5.32
29.64
55.97
81.53
104.05
122.21
135.31
142.81
144.00
138.37
126.34
109.76
91.66
75.19
62.45
53.65
47.28
40.91
32.34
20.15
4.00
-15.64
-37.79
-61.15
-84.23
-105.37
-122.98
-135.93
-143.88
-147.44
-147.92
-146.76
-144.98
-142.78
-139.71
-135.10
-128.60
-120.43
-111.32
-102.22
-93.92
-86.89
-81.32
-77.22
-74.52
-73.08
-72.61
-72.60
-72.42
-71.52
-69.54
-66.44
-62.44
-57.89
-53.12
-48.22
-43.11
-37.48
-31.08
-23.83
-16.00
-8.22
-1.31
3.90
6.93
7.84
7.33
6.70
7.35
10.22
15.39
22.10
28.68
33.19
34.15
30.92
23.77
13.71
2.03
-9.78
-20.17
-27.92
-32.24
-32.80
-29.77
-23.79
-15.85
-7.40
0.26
6.22
9.62
9.94
7.40
2.92
-2.23
-6.84
-10.85
-14.44
-17.34
-20.17
-23.86
-28.85
-35.03
-41.92
-48.91
-56.82
-65.74
-73.97
-81.39
-89.00
-97.56
-107.44
-118.57
-130.36
-144.00
-159.09
-172.15
-182.22
-190.29
-197.27
-203.78
-209.76
-214.16
-217.33
-216.41
-203.64
-174.67
-129.33
-70.40
-3.88
62.02
135.37
210.34
258.65
277.26
275.89
261.38
239.94
216.73
195.65
179.22
165.88
154.76
148.49
146.65
147.06
148.43
150.11
151.51
151.71
147.26
136.29
120.86
102.10
80.83
59.03
39.03
22.90
12.14
6.47
5.93
11.77
22.63
34.87
44.45
48.07
44.32
34.21
19.98
4.86
-7.61
-16.03
-20.63
-22.13
-21.04
-17.63
-12.20
-5.72
0.52
5.55
8.64
9.58
8.81
7.16
5.33
3.68
2.20
0.67
-1.14
-3.30
-5.62
-7.81
-9.47
-10.39
-10.55
-10.18
-9.63
-9.23
-9.24
-9.71
-10.51
-11.44
-12.27
-12.89
-13.32
-13.69
-14.12
-14.72
-15.45
-16.23
-17.03
-17.86
-18.81
-19.97
-21.28
-22.56
-23.43
-23.49
-22.47
-20.32
-17.24
-13.64
-9.98
-6.60
-3.66
-1.15
1.04
2.93
4.47
5.53
6.02
5.98
5.65
5.27
5.04
5.05
5.24
5.56
6.01
6.62
7.37
8.19
8.87
9.24
9.17
8.65
7.84
6.90
5.97
5.09
4.20
3.15
1.80
0.05
-2.09
-4.53
-7.11
-9.63
-11.90
-13.68
-14.77
-14.91
-13.97
-11.94
-9.03
-5.66
-2.31
0.66
3.00
4.72
5.94
6.78
7.32
7.59
7.56
7.30
6.94
6.68
6.70
7.09
7.80
8.68
9.54
10.24
10.73
11.04
11.22
11.28
11.14
10.73
9.95
8.85
7.50
6.07
4.67
3.32
1.87
0.16
-1.88
-4.12
-6.24
-7.85
-8.55
-8.16
-6.70
-4.41
-1.62
1.31
4.03
6.29
7.93
8.95
9.38
9.38
9.07
8.59
8.04
7.46
6.92
6.43
6.03
5.73
5.53
5.39
5.30
5.24
5.15
5.00
4.74
4.31
3.69
2.81
1.72
0.48
-0.81
-2.03
-3.15
-4.24
-5.47
-7.01
-8.93
-11.11
-13.26
-14.97
-15.82
-15.55
-14.09
-11.57
-8.27
-4.55
-0.72
2.96
6.33
9.33
11.89
13.94
15.44
16.35
16.74
16.69
16.35
15.85
15.28
14.73
14.28
14.00
13.92
14.05
14.33
14.63
14.84
14.84
14.55
13.93
12.94
11.53
9.69
7.46
4.94
2.31
-0.27
-2.73
-5.14
-7.64
-10.31
-13.06
-15.55
-17.28
-17.78
-16.75
-14.21
-10.48
-6.05
-1.41
3.04
7.01
10.32
12.84
14.49
15.26
15.25
14.71
13.99
13.40
13.18
13.38
13.95
14.71
15.51
16.22
16.70
16.85
16.53
15.70
14.39
12.71
10.83
8.93
7.10
5.35
3.63
1.86
-0.01
-2.00
-4.08
-6.20
-8.26
-10.21
-12.05
-13.73
-15.18
-16.19
-16.43
-15.59
-13.46
-10.16
-6.09
-1.86
1.97
5.03
7.26
8.77
9.76
10.34
10.55
10.40
9.95
9.39
8.97
8.89
9.25
9.92
10.73
11.44
11.90
12.09
12.03
11.75
11.24
10.44
9.30
7.86
6.25
4.67
3.27
2.06
0.93
-0.34
-1.91
-3.86
-6.10
-8.34
-10.15
-11.08
-10.73
-8.94
-5.87
-1.89
2.46
6.72
10.61
14.06
17.03
19.43
21.08
21.76
21.44
20.28
18.71
17.21
16.16
15.70
15.75
16.10
16.55
16.93
17.15
17.16
16.93
16.43
15.66
14.57
13.18
11.47
9.49
7.26
4.84
2.27
-0.41
-3.13
-5.78
-8.31
-10.73
-13.15
-15.69
-18.35
-20.94
-23.04
-24.12
-23.78
-21.85
-18.45
-13.98
-8.90
-3.69
1.25
5.61
9.18
11.82
13.53
14.42
14.67
14.53
14.24
13.98
13.90
14.02
14.28
14.54
14.69
14.61
14.33
13.88
13.36
12.78
12.08
11.16
9.94
8.38
6.49
4.34
1.99
-0.46
-2.93
-5.32
-7.54
-9.58
-11.58
-13.71
-16.17
-18.97
-21.89
-24.46
-26.12
-26.37
-25.00
-22.08
-17.94
-13.06
-7.94
-2.98
1.50
5.28
8.24
10.37
11.73
12.50
12.92
13.23
13.59
14.05
14.54
14.90
15.04
14.94
14.70
14.43
14.21
14.03
13.76
13.25
12.41
11.27
9.91
8.45
6.95
5.38
3.69
1.83
-0.18
-2.22
-4.16
-5.90
-7.41
-8.83
-10.32
-12.09
-14.22
-16.65
-19.12
-21.24
-22.58
-22.75
-21.57
-19.03
-15.38
-11.06
-6.53
-2.19
1.67
4.90
7.43
9.23
10.27
10.60
10.35
9.81
9.31
9.12
9.32
9.78
10.30
10.66
10.79
10.74
10.61
10.42
10.13
9.61
8.80
7.72
6.51
5.31
4.15
3.01
1.76
0.31
-1.33
-3.04
-4.69
-6.15
-7.46
-8.77
-10.27
-12.12
-14.35
-16.80
-19.15
-21.03
-22.07
-22.04
-20.85
-18.54
-15.26
-11.27
-6.91
-2.55
1.45
4.83
7.45
9.34
10.64
11.49
12.00
12.19
12.08
11.68
11.10
10.50
10.07
9.94
10.11
10.45
10.71
10.65
10.11
9.11
7.84
6.53
5.37
4.40
3.50
2.51
1.32
-0.10
-1.66
-3.30
-4.93
-6.51
-8.02
-9.41
-10.69
-11.91
-13.23
-14.80
-16.69
-18.77
-20.72
-22.11
-22.51
-21.72
-19.73
-16.75
-13.13
-9.26
-5.54
-2.25
0.45
2.56
4.18
5.42
6.40
7.12
7.59
7.85
7.99
8.21
8.65
9.32
10.11
10.80
11.19
11.22
10.99
10.70
10.50
10.43
10.34
10.01
9.30
8.20
6.86
5.48
4.23
3.09
1.93
0.60
-0.96
-2.66
-4.33
-5.82
-7.15
-8.46
-9.97
-11.86
-14.15
-16.69
-19.19
-21.20
-22.29
-22.12
-20.55
-17.72
-14.01
-9.96
-6.08
-2.73
-0.09
1.89
3.38
4.57
5.56
6.37
6.90
7.08
6.89
6.44
5.98
5.73
5.83
6.22
6.75
7.22
7.52
7.66
7.68
7.59
7.35
6.84
6.02
4.90
3.60
2.19
0.78
-0.61
-1.95
-3.25
-4.52
-5.79
-7.12
-8.53
-10.06
-11.64
-13.25
-14.82
-16.36
-17.81
-19.08
-19.97
-20.21
-19.60
-18.07
-15.67
-12.60
-9.09
-5.39
-1.79
1.43
4.00
5.76
6.75
7.14
7.19
7.12
7.07
7.07
7.13
7.25
7.50
7.91
8.44
8.96
9.29
9.29
8.90
8.15
7.18
6.13
5.14
4.31
3.62
2.96
2.18
1.15
-0.17
-1.74
-3.41
-5.03
-6.49
-7.76
-8.91
-10.06
-11.29
-12.67
-14.18
-15.79
-17.34
-18.69
-19.57
-19.75
-19.01
-17.22
-14.41
-10.80
-6.73
-2.58
1.29
4.65
7.38
9.48
10.98
11.98
12.51
12.62
12.37
11.87
11.29
10.79
10.53
10.55
10.84
11.31
11.85
12.36
12.75
12.93
12.83
12.40
11.67
10.73
9.72
8.71
7.74
6.70
5.53
4.21
2.79
1.40
0.14
-0.92
-1.83
-2.65
-3.53
-4.63
-6.07
-7.93
-10.13
-12.39
-14.34
-15.54
-15.67
-14.67
-12.67
-10.05
-7.17
-4.34
-1.72
0.61
2.54
3.95
4.65
4.48
3.37
1.37
-1.38
-4.70
-8.40
-12.27
-16.08
-19.59
-22.60
-25.00
-26.87
-28.32
-29.52
-30.54
-31.40
-32.05
-32.44
-32.62
-32.65
-32.61
-32.56
-32.48
-32.30
-31.94
-31.27
-30.19
-28.69
-26.83
-24.72
-22.50
-20.22
-17.88
-15.43
-12.74
-9.69
-6.08
-1.74
3.45
9.47
16.10
22.95
29.54
35.43
40.32
44.11
46.84
48.64
49.70
50.16
50.16
49.76
49.06
48.13
47.07
45.94
44.76
43.48
41.98
40.14
37.85
35.13
32.01
28.59
24.92
21.00
16.85
12.44
7.81
3.06
-1.67
-6.23
-10.48
-14.32
-17.72
-20.68
-23.23
-25.46
-27.47
-29.33
-31.01
-32.29
-32.85
-32.36
-30.65
-27.81
-24.13
-20.00
-15.74
-11.51
-7.41
-3.55
-0.13
2.56
4.33
5.09
4.94
4.13
2.94
1.61
0.38
-0.62
-1.35
-1.86
-2.30
-2.86
-3.62
-4.51
-5.41
-6.18
-6.84
-7.55
-8.47
-9.68
-11.07
-12.39
-13.43
-14.05
-14.32
-14.40
-14.47
-14.65
-14.99
-15.45
-15.97
-16.47
-16.80
-16.77
-16.20
-14.94
-12.91
-10.14
-6.78
-3.05
0.74
4.24
7.22
9.57
11.31
12.55
13.36
13.76
13.71
13.23
12.38
11.35
10.34
9.45
8.74
8.17
7.70
7.36
7.22
7.28
7.51
7.75
7.77
7.38
6.45
4.97
3.02
0.76
-1.65
-4.08
-6.44
-8.69
-10.78
-12.65
-14.26
-15.62
-16.80
-17.91
-19.04
-20.12
-20.96
-21.19
-20.47
-18.53
-15.32
-11.05
-6.05
-0.83
4.11
8.36
11.65
13.90
15.20
15.74
15.74
15.41
14.92
14.42
14.05
13.88
13.89
13.98
14.00
13.86
13.53
13.08
12.59
12.09
11.53
10.84
9.91
8.67
7.11
5.25
3.18
1.01
-1.10
-3.03
-4.70
-6.13
-7.44
-8.75
-10.22
-11.90
-13.79
-15.77
-17.58
-18.88
-19.23
-18.30
-15.95
-12.37
-8.00
-3.39
0.98
4.83
8.06
10.68
12.67
13.97
14.53
14.40
13.75
12.90
12.15
11.75
11.74
11.94
12.10
11.96
11.41
10.48
9.40
8.37
7.52
6.83
6.22
5.64
5.18
4.97
5.14
5.64
6.26
6.71
6.77
6.38
5.65
4.67
3.48
1.91
-0.24
-3.12
-6.64
-10.54
-14.32
-17.49
-19.63
-20.51
-20.15
-18.71
-16.50
-13.84
-10.99
-8.11
-5.30
-2.64
-0.22
1.80
3.31
4.22
4.63
4.68
4.65
4.80
5.35
6.38
7.84
9.60
11.45
13.23
14.83
16.27
17.57
18.77
19.83
20.62
20.99
20.80
20.05
18.82
17.26
15.49
13.59
11.52
9.28
6.84
4.25
1.55
-1.29
-4.34
-7.75
-11.62
-15.93
-20.46
-24.76
-28.24
-30.35
-30.78
-29.50
-26.82
-23.26
-19.40
-15.68
-12.33
-9.40
-6.83
-4.59
-2.71
-1.23
-0.11
0.76
1.59
2.58
3.83
5.34
7.04
8.82
10.66
12.52
14.39
16.27
18.07
19.74
21.20
22.37
23.12
23.28
22.65
21.09
18.63
15.45
11.89
8.27
4.84
1.64
-1.41
-4.49
-7.75
-11.28
-15.03
-18.89
-22.66
-26.11
-28.97
-30.97
-31.90
-31.59
-30.01
-27.27
-23.56
-19.24
-14.69
-10.32
-6.51
-3.49
-1.33
0.06
0.90
1.39
1.71
1.98
2.32
2.83
3.65
4.87
6.47
8.34
10.30
12.12
13.67
14.86
15.70
16.26
16.56
16.60
16.29
15.53
14.19
12.24
9.74
6.88
3.91
1.07
-1.47
-3.69
-5.67
-7.58
-9.54
-11.69
-14.04
-16.50
-18.78
-20.45
-21.06
-20.25
-17.97
-14.47
-10.28
-5.97
-2.02
1.34
4.06
6.19
7.76
8.77
9.26
9.36
9.34
9.47
9.95
10.80
11.90
13.08
14.16
15.06
15.74
16.19
16.39
16.31
15.94
15.29
14.44
13.47
12.38
11.15
9.67
7.86
5.71
3.31
0.77
-1.73
-4.10
-6.31
-8.42
-10.56
-12.81
-15.20
-17.62
-19.89
-21.77
-23.01
-23.42
-22.86
-21.33
-18.91
-15.76
-12.11
-8.25
-4.51
-1.20
1.45
3.38
4.64
5.43
6.01
6.56
7.17
7.86
8.61
9.41
10.28
11.23
12.25
13.18
13.81
13.96
13.57
12.75
11.72
10.73
9.89
9.13
8.20
6.84
4.93
2.56
0.04
-2.29
-4.18
-5.58
-6.68
-7.83
-9.33
-11.31
-13.71
-16.27
-18.67
-20.64
-22.02
-22.70
-22.56
-21.43
-19.15
-15.76
-11.50
-6.90
-2.55
1.09
3.81
5.73
7.15
8.30
9.30
10.09
10.57
10.74
10.72
10.74
11.03
11.72
12.78
14.06
15.30
16.20
16.57
16.28
15.40
14.09
12.59
11.08
9.63
8.24
6.81
5.25
3.52
1.64
-0.31
-2.27
-4.19
-6.01
-7.71
-9.27
-10.75
-12.20
-13.74
-15.43
-17.24
-18.99
-20.39
-21.13
-20.89
-19.52
-17.01
-13.60
-9.68
-5.69
-2.00
1.16
3.75
5.82
7.47
8.73
9.60
10.05
10.11
9.91
9.64
9.46
9.48
9.67
9.95
10.19
10.32
10.32
10.17
9.88
9.46
8.92
8.26
7.48
6.58
5.49
4.18
2.67
1.06
-0.52
-1.94
-3.20
-4.39
-5.65
-7.06
-8.59
-10.13
-11.55
-12.81
-14.00
-15.30
-16.76
-18.27
-19.50
-20.02
-19.46
-17.64
-14.66
-10.90
-6.83
-2.89
0.55
3.35
5.47
6.98
7.96
8.45
8.53
8.25
7.79
7.35
7.17
7.40
8.02
8.87
9.69
10.30
10.62
10.73
10.73
10.67
10.57
10.41
10.19
9.95
9.69
9.37
8.78
7.74
6.13
3.97
1.46
-1.08
-3.42
-5.38
-6.97
-8.24
-9.31
-10.30
-11.33
-12.54
-14.00
-15.74
-17.58
-19.22
-20.25
-20.32
-19.27
-17.14
-14.18
-10.77
-7.20
-3.73
-0.49
2.38
4.74
6.47
7.54
8.04
8.18
8.20
8.30
8.55
8.91
9.26
9.48
9.55
9.52
9.54
9.73
10.13
10.69
11.21
11.43
11.17
10.38
9.23
7.97
6.88
6.04
5.34
4.56
3.47
2.02
0.31
-1.48
-3.18
-4.76
-6.32
-7.96
-9.80
-11.83
-13.99
-16.18
-18.28
-20.11
-21.48
-22.13
-21.86
-20.56
-18.30
-15.29
-11.81
-8.22
-4.79
-1.75
0.76
2.71
4.16
5.21
5.98
6.60
7.11
7.55
7.97
8.44
9.01
9.74
10.64
11.60
12.48
13.05
13.13
12.62
11.52
10.00
8.25
6.51
4.92
3.50
2.18
0.82
-0.64
-2.20
-3.80
-5.33
-6.71
-7.92
-9.00
-10.02
-11.08
-12.27
-13.67
-15.30
-17.07
-18.78
-20.11
-20.78
-20.57
-19.42
-17.46
-14.95
-12.15
-9.28
-6.46
-3.71
-1.06
1.46
3.71
5.56
6.85
7.57
7.79
7.66
7.42
7.24
7.24
7.46
7.92
8.56
9.31
10.05
10.65
10.95
10.85
10.35
9.52
8.54
7.55
6.66
5.87
5.08
4.07
2.65
0.75
-1.55
-4.02
-6.40
-8.52
-10.32
-11.90
-13.36
-14.77
-16.09
-17.30
-18.31
-19.10
-19.57
-19.54
-18.74
-16.96
-14.16
-10.54
-6.54
-2.60
0.94
3.94
6.34
8.11
9.18
9.45
8.91
7.69
6.08
4.46
3.16
2.39
2.21
2.49
3.02
3.56
3.91
3.97
3.75
3.35
2.91
2.56
2.42
2.50
2.72
2.94
2.96
2.62
1.83
0.64
-0.75
-2.07
-3.15
-3.96
-4.64
-5.46
-6.61
-8.17
-10.09
-12.19
-14.28
-16.14
-17.52
-18.19
-17.94
-16.66
-14.41
-11.44
-8.10
-4.81
-1.84
0.68
2.78
4.56
6.06
7.23
7.95
8.10
7.71
7.01
6.36
6.13
6.50
7.41
8.54
9.51
10.08
10.15
9.83
9.23
8.47
7.54
6.44
5.18
3.80
2.39
0.99
-0.38
-1.72
-3.06
-4.34
-5.52
-6.56
-7.46
-8.27
-9.13
-10.16
-11.45
-12.98
-14.62
-16.13
-17.14
-17.30
-16.34
-14.20
-11.05
-7.29
-3.45
0.03
2.90
5.18
7.02
8.60
9.94
10.91
11.27
10.89
9.87
8.54
7.36
6.73
6.81
7.55
8.69
9.88
10.84
11.39
11.46
11.08
10.34
9.34
8.19
6.93
5.55
4.04
2.44
0.83
-0.68
-2.03
-3.24
-4.46
-5.83
-7.42
-9.12
-10.81
-12.33
-13.67
-14.89
-16.05
-17.04
-17.56
-17.23
-15.76
-13.14
-9.66
-5.77
-1.90
1.60
4.53
6.76
8.19
8.81
8.71
8.14
7.39
6.76
6.39
6.28
6.34
6.46
6.61
6.82
7.13
7.52
7.98
8.44
8.81
8.99
8.87
8.36
7.43
6.11
4.50
2.75
0.96
-0.79
-2.46
-3.97
-5.31
-6.48
-7.58
-8.74
-10.02
-11.42
-12.78
-13.90
-14.61
-14.82
-14.53
-13.71
-12.36
-10.48
-8.10
-5.34
-2.43
0.42
3.03
5.27
7.08
8.43
9.25
9.54
9.34
8.79
8.13
7.61
7.45
7.76
8.50
9.47
10.40
11.07
11.37
11.33
11.06
10.65
10.11
9.30
8.08
6.41
4.35
2.12
-0.07
-2.10
-3.95
-5.71
-7.44
-9.19
-10.94
-12.66
-14.35
-16.01
-17.57
-18.84
-19.56
-19.46
-18.37
-16.26
-13.25
-9.61
-5.61
-1.57
2.25
5.65
8.48
10.68
12.26
13.32
14.01
14.52
15.02
15.69
16.64
17.94
19.52
21.25
22.94
24.50
25.94
27.39
29.01
30.84
32.76
34.47
35.67
36.19
36.14
35.81
35.54
35.50
35.68
35.81
35.54
34.56
32.59
29.47
25.13
19.68
13.44
7.09
1.60
-1.95
-2.75
-0.44
4.69
11.85
20.01
28.09
35.11
40.13
42.28
40.89
35.81
27.66
17.89
8.46
1.26
-2.52
-2.61
0.37
5.35
11.14
16.66
21.07
23.71
24.14
22.23
18.20
12.53
5.82
-1.44
-8.86
-16.19
-23.09
-29.11
-33.71
-36.33
-36.57
-34.24
-29.35
-22.17
-13.19
-3.12
7.15
16.63
24.49
30.30
34.06
36.20
37.36
38.11
38.76
39.29
39.42
38.85
37.44
35.30
32.81
30.43
28.53
27.24
26.35
25.47
24.13
22.03
19.15
15.69
11.98
8.29
4.70
1.15
-2.49
-6.30
-10.20
-13.99
-17.48
-20.54
-23.10
-25.20
-26.95
-28.44
-29.77
-30.98
-32.04
-32.86
-33.33
-33.42
-33.21
-32.92
-32.76
-32.85
-33.15
-33.47
-33.62
-33.49
-33.17
-32.83
-32.67
-32.76
-33.04
-33.31
-33.30
-32.77
-31.61
-29.81
-27.49
-24.84
-22.09
-19.46
-17.13
-15.24
-13.88
-13.06
-12.75
-12.82
-13.07
-13.26
-13.21
-12.78
-12.01
-11.01
-9.97
-9.01
-8.20
-7.51
-6.92
-6.43
-6.11
-6.02
-6.19
-6.53
-6.94
-7.29
-7.54
-7.69
-7.82
-8.01
-8.35
-8.84
-9.51
-10.30
-11.13
-11.91
-12.50
-12.82
-12.89
-12.82
-12.80
-13.02
-13.57
-14.37
-15.21
-15.79
-15.91
-15.45
-14.46
-13.07
-11.43
-9.63
-7.72
-5.81
-3.99
-2.44
-1.22
-0.31
0.39
1.00
1.52
1.93
2.12
2.05
1.73
1.25
0.76
0.31
-0.02
-0.24
-0.38
-0.53
-0.79
-1.34
-2.28
-3.57
-5.11
-6.67
-8.07
-9.19
-9.92
-10.14
-9.74
-8.70
-7.15
-5.45
-3.99
-3.11
-2.88
-3.14
-3.63
-4.21
-4.89
-5.80
-7.08
-8.74
-10.65
-12.55
-14.17
-15.26
-15.67
-15.32
-14.24
-12.54
-10.45
-8.17
-5.90
-3.76
-1.82
-0.15
1.20
2.14
2.65
2.80
2.72
2.51
2.29
2.05
1.78
1.49
1.23
1.13
1.26
1.60
1.96
2.09
1.76
0.90
-0.29
-1.45
-2.19
-2.28
-1.74
-0.83
0.07
0.69
0.89
0.79
0.75
1.23
2.63
5.18
8.73
12.83
16.81
20.08
22.30
23.41
23.48
22.50
20.24
16.37
10.72
3.65
-3.88
-10.48
-14.78
-15.83
-13.30
-7.48
0.94
11.12
22.15
33.08
42.93
50.86
56.24
58.74
58.28
54.88
48.51
39.28
27.64
14.60
1.84
-8.54
-14.53
-14.93
-9.82
-0.81
9.25
16.91
19.08
13.90
1.24
-17.29
-38.92
-60.55
-79.48
-93.91
-102.98
-106.58
-105.15
-99.56
-91.09
-81.27
-71.67
-63.51
-57.41
-53.21
-50.22
-47.52
-44.44
-40.81
-36.94
-33.50
-31.18
-30.48
-31.50
-33.91
-37.13
-40.45
-43.14
-44.71
-44.96
-44.06
-42.40
-40.44
-38.52
-36.83
-35.39
-34.20
-33.25
-32.52
-31.82
-30.81
-29.06
-26.21
-22.22
-17.33
-12.01
-6.72
-1.73
2.88
7.12
10.96
14.32
17.02
18.97
20.19
20.85
21.16
21.22
21.05
20.58
19.78
18.69
17.44
16.18
14.96
13.80
12.57
11.25
9.82
8.37
6.96
5.68
4.58
3.79
3.55
4.11
5.67
8.17
11.38
14.90
18.40
21.73
24.89
28.04
31.33
34.90
38.77
42.93
47.25
51.53
55.55
59.09
62.12
64.68
66.95
69.05
71.03
72.82
74.32
75.39
75.91
75.71
74.52
72.07
68.12
62.53
55.27
46.35
35.86
23.87
10.57
-3.71
-18.37
-32.69
-45.83
-57.12
-66.10
-72.68
-77.10
-79.93
-81.90
-83.77
-86.11
-89.11
-92.54
-95.81
-98.12
-98.79
-97.37
-93.82
-88.51
-82.03
-75.08
-68.30
-62.14
-56.79
-52.15
-47.86
-43.43
-38.45
-32.75
-26.53
-20.25
-14.43
-9.44
-5.36
-1.97
1.00
3.74
6.30
8.54
10.36
11.74
12.77
13.62
14.38
15.02
15.40
15.28
14.52
13.12
11.33
9.50
7.96
6.86
6.03
5.12
3.66
1.38
-1.65
-5.10
-8.49
-11.37
-13.50
-14.85
-15.47
-15.42
-14.65
-13.04
-10.51
-7.08
-2.95
1.50
5.89
9.82
13.03
15.40
16.99
17.91
18.34
18.47
18.46
18.45
18.58
18.89
19.31
19.63
19.60
19.07
18.15
17.16
16.55
16.66
17.56
18.93
20.23
20.87
20.39
18.61
15.60
11.70
7.39
3.25
-0.17
-2.54
-3.88
-4.50
-4.95
-5.76
-7.23
-9.31
-11.67
-13.87
-15.46
-16.16
-15.87
-14.62
-12.50
-9.65
-6.21
-2.37
1.73
5.93
10.11
14.15
17.93
21.31
24.12
26.24
27.63
28.39
28.76
29.04
29.53
30.36
31.43
32.54
33.40
33.82
33.82
33.55
33.14
32.62
31.83
30.47
28.33
25.41
21.93
18.27
14.79
11.66
8.85
6.24
3.76
1.46
-0.57
-2.25
-3.61
-4.79
-5.95
-7.17
-8.44
-9.58
-10.36
-10.45
-9.52
-7.31
-3.69
1.23
7.13
13.54
19.98
26.16
31.87
36.97
41.24
44.40
46.19
46.63
46.11
45.34
45.07
45.80
47.50
49.61
51.30
51.80
50.74
48.27
44.94
41.43
38.30
35.84
33.99
32.49
30.98
29.10
26.60
23.37
19.51
15.31
11.19
7.56
4.64
2.42
0.61
-1.27
-3.67
-6.85
-10.76
-15.03
-19.08
-22.27
-24.13
-24.40
-23.17
-20.80
-17.77
-14.60
-11.68
-9.22
-7.23
-5.54
-3.90
-2.08
0.02
2.36
4.77
7.03
8.97
10.50
11.61
12.33
12.78
13.10
13.46
13.99
14.66
15.34
15.76
15.70
15.07
14.03
12.90
12.01
11.48
11.18
10.79
10.00
8.69
7.00
5.20
3.55
2.05
0.52
-1.32
-3.68
-6.48
-9.45
-12.22
-14.52
-16.28
-17.64
-18.67
-19.32
-19.31
-18.25
-15.87
-12.17
-7.56
-2.67
1.85
5.55
8.29
10.20
11.53
12.56
13.40
14.11
14.67
15.08
15.36
15.58
15.83
16.16
16.61
17.15
17.71
18.19
18.49
18.59
18.46
18.13
17.58
16.80
15.74
14.40
12.85
11.21
9.61
8.18
6.95
5.85
4.76
3.52
2.01
0.17
-1.96
-4.27
-6.54
-8.46
-9.72
-10.03
-9.24
-7.30
-4.42
-0.91
2.81
6.30
9.20
11.29
12.52
13.03
13.11
13.09
13.17
13.38
13.51
13.34
12.75
11.85
10.92
10.30
10.12
10.27
10.52
10.62
10.52
10.31
10.15
10.03
9.82
9.28
8.27
6.84
5.18
3.55
2.07
0.73
-0.60
-2.04
-3.67
-5.52
-7.54
-9.76
-12.18
-14.75
-17.37
-19.82
-21.79
-22.99
-23.18
-22.28
-20.39
-17.83
-14.95
-12.11
-9.52
-7.23
-5.15
-3.21
-1.39
0.19
1.40
2.17
2.52
2.57
2.45
2.28
2.16
2.20
2.50
3.08
3.89
4.69
5.20
5.21
4.63
3.61
2.38
1.15
0.04
-1.00
-2.08
-3.31
-4.71
-6.27
-7.92
-9.60
-11.26
-12.91
-14.59
-16.40
-18.48
-20.95
-23.85
-27.03
-30.20
-32.95
-34.88
-35.72
-35.40
-34.03
-31.81
-28.99
-25.78
-22.48
-19.40
-16.89
-15.20
-14.43
-14.46
-15.00
-15.72
-16.32
-16.53
-16.17
-15.10
-13.22
-10.53
-7.22
-3.59
0.02
3.36
6.30
8.84
10.94
12.55
13.63
14.34
15.04
16.27
18.57
22.23
27.21
33.18
39.68
46.29
52.63
58.46
63.49
67.51
70.42
72.34
73.64
74.84
76.47
78.92
82.38
86.80
91.88
97.11
101.84
105.37
107.16
107.10
105.55
103.32
101.43
100.71
101.45
103.32
105.36
106.38
105.27
101.26
94.02
83.59
70.32
54.81
37.90
20.70
4.44
-9.76
-21.17
-29.65
-35.69
-40.17
-43.90
-47.44
-50.90
-54.27
-57.75
-61.93
-67.74
-75.95
-86.65
-98.96
-111.37
-122.37
-131.27
-138.54
-145.54
-153.81
-164.27
-176.89
-190.77
-204.60
-216.90
-226.19
-230.95
-229.71
-221.44
-206.09
-184.91
-160.29
-135.10
-111.72
-91.36
-73.91
-58.29
-43.33
-28.23
-12.93
2.09
16.21
28.93
40.02
49.38
56.87
62.29
65.51
66.69
66.53
66.08
66.49
68.54
72.31
77.13
81.85
85.28
86.69
86.12
84.31
82.42
81.52
82.09
83.81
85.65
86.35
84.83
80.70
74.25
66.27
57.57
48.64
39.52
29.94
19.56
8.19
-4.15
-17.36
-31.30
-45.85
-60.76
-75.46
-89.01
-100.27
-108.16
-112.04
-112.00
-108.79
-103.71
-98.22
-93.54
-90.37
-88.69
-87.86
-86.88
-84.82
-81.20
-76.04
-69.79
-62.79
-54.95
-45.58
-33.74
-18.94
-1.71
16.37
33.18
46.93
57.02
64.18
70.04
76.18
83.35
91.18
98.43
103.76
106.31
105.99
103.44
99.78
96.29
94.07
93.75
95.30
97.90
100.27
101.11
99.66
96.01
91.00
85.81
81.35
77.83
74.78
71.32
66.70
60.80
54.45
49.20
46.84
48.23
52.42
56.19
54.56
42.13
14.64
-29.48
-88.22
-155.65
-222.42
-277.38
-309.96
-313.37
-287.16
-238.03
-178.25
-121.64
-79.05
-55.07
-47.68
-50.42
-56.12
-59.69
-59.22
-55.05
-48.23
-39.29
-28.06
-14.37
1.25
17.16
31.10
41.12
46.36
47.47
46.23
44.72
44.36
45.44
47.05
47.79
46.61
43.34
38.83
34.47
31.53
30.51
31.06
32.24
33.02
32.68
31.08
28.76
26.74
26.12
27.62
31.08
35.30
38.47
38.94
35.93
29.74
21.29
11.28
-0.27
-13.85
-29.57
-46.29
-61.54
-72.36
-76.75
-74.59
-67.61
-58.24
-48.35
-38.56
-28.55
-17.98
-7.21
2.67
10.48
15.77
19.09
21.59
24.23
27.23
30.00
31.66
31.57
29.71
26.53
22.61
18.34
13.80
8.81
3.22
-2.92
-9.32
-15.46
-20.69
-24.48
-26.58
-27.19
-26.99
-26.95
-27.85
-30.01
-33.01
-35.93
-37.83
-38.13
-36.89
-34.64
-31.99
-29.24
-26.33
-22.85
-18.36
-12.67
-5.89
1.42
8.37
13.71
16.13
14.59
8.75
-0.69
-12.06
-23.13
-31.81
-36.67
-37.15
-33.47
-26.21
-16.05
-3.65
10.22
24.57
38.15
49.64
57.96
62.62
63.89
62.76
60.74
59.53
60.63
64.94
72.30
81.07
88.08
89.14
80.20
59.01
26.21
-14.39
-56.88
-95.15
-124.77
-143.95
-153.27
-154.55
-149.66
-139.97
-126.48
-110.40
-93.47
-77.69
-64.66
-54.96
-47.99
-42.30
-36.31
-29.04
-20.41
-11.14
-2.33
5.11
10.81
15.06
18.59
22.17
26.34
31.14
36.30
41.46
46.39
51.05
55.46
59.57
63.05
65.46
66.35
65.52
63.11
59.53
55.38
51.15
47.20
43.65
40.52
37.72
35.19
32.83
30.56
28.35
26.12
23.80
21.27
18.40
15.09
11.38
7.55
4.20
2.13
2.09
4.54
9.43
16.01
22.79
27.82
29.00
24.74
14.63
-0.24
-17.37
-33.54
-45.77
-52.24
-52.64
-48.00
-40.10
-30.68
-21.05
-11.86
-3.31
4.61
11.87
18.37
23.86
28.08
30.81
32.04
31.90
30.70
28.78
26.52
24.23
22.25
20.81
19.93
19.37
18.62
17.09
14.40
10.54
5.98
1.50
-2.19
-4.73
-6.20
-7.02
-7.55
-7.72
-6.89
-3.90
2.42
12.73
26.67
42.56
57.55
68.27
71.64
65.89
51.10
29.41
4.37
-20.01
-40.45
-55.14
-63.91
-67.65
-67.52
-64.25
-57.93
-48.35
-35.53
-20.03
-2.96
14.45
31.30
47.24
62.31
76.52
89.47
100.26
107.91
111.79
112.05
109.65
106.00
102.43
99.84
98.40
97.63
96.38
92.83
84.67
69.82
47.63
19.75
-9.77
-35.82
-54.13
-62.91
-63.21
-57.92
-50.07
-41.56
-33.01
-24.47
-16.32
-9.46
-4.91
-2.95
-2.74
-2.67
-1.14
2.69
8.71
16.13
23.73
30.18
34.15
34.54
30.90
23.62
14.21
5.02
-1.54
-3.85
-1.95
2.30
5.90
6.02
1.39
-6.91
-15.87
-22.06
-23.23
-19.47
-13.11
-7.73
-6.72
-12.19
-24.54
-42.58
-63.86
-85.00
-102.20
-112.04
-112.40
-103.49
-88.15
-71.11
-57.32
-49.93
-48.87
-50.84
-50.86
-44.58
-30.26
-9.56
13.28
33.18
46.04
49.74
44.08
30.31
10.53
-12.40
-35.01
-53.50
-64.65
-67.01
-61.69
-52.18
-43.07
-38.34
-39.78
-46.60
-56.08
-65.05
-71.27
-74.31
-75.35
-76.24
-78.19
-80.92
-82.75
-81.47
-75.78
-66.29
-55.45
-46.43
-41.37
-40.17
-40.31
-38.16
-30.92
-18.16
-2.19
13.06
23.90
28.61
28.03
24.98
22.65
23.09
26.38
30.93
34.59
36.09
35.64
34.86
35.68
39.14
44.65
50.28
53.78
53.76
50.39
45.20
40.17
36.63
34.78
33.73
32.21
29.34
25.11
20.24
15.67
12.00
9.16
6.56
3.47
-0.55
-5.42
-10.65
-15.60
-19.80
-23.07
-25.30
-26.24
-25.46
-22.43
-16.95
-9.49
-1.18
6.50
12.27
15.66
17.09
17.60
18.18
19.22
20.20
20.09
17.96
13.69
8.14
2.80
-0.94
-2.52
-2.43
-1.99
-2.54
-4.78
-8.41
-12.33
-15.27
-16.34
-15.47
-13.38
-11.29
-10.45
-11.77
-15.54
-21.33
-28.14
-34.64
-39.57
-42.10
-42.13
-40.37
-38.16
-37.05
-38.34
-42.53
-49.02
-56.20
-61.92
-64.31
-62.51
-57.03
-49.49
-41.78
-35.18
-29.79
-24.74
-18.93
-11.91
-4.30
2.52
7.20
9.26
9.41
9.19
10.22
13.44
18.72
24.97
30.43
33.16
31.45
24.24
11.49
-5.58
-24.53
-42.21
-55.66
-62.99
-63.96
-59.78
-52.45
-43.85
-35.12
-26.63
-18.24
-9.74
-1.07
7.77
16.79
26.02
35.38
44.49
52.60
58.76
62.05
61.88
58.21
51.64
43.34
34.98
28.33
24.81
24.98
28.38
33.67
39.25
43.79
46.59
47.59
47.08
45.38
42.80
39.63
36.27
33.15
30.63
28.89
27.96
27.85
28.65
30.42
33.02
35.94
38.39
39.63
39.22
37.28
34.34
31.03
27.75
24.62
21.37
17.61
12.92
7.07
0.09
-7.57
-15.15
-21.62
-26.12
-28.19
-28.03
-26.41
-24.36
-22.68
-21.73
-21.36
-21.14
-20.70
-19.90
-18.82
-17.58
-16.18
-14.46
-12.28
-9.69
-6.96
-4.52
-2.68
-1.47
-0.68
-0.03
0.57
0.99
1.04
0.68
0.19
0.13
1.05
3.18
6.35
9.96
13.33
15.93
17.60
18.49
18.95
19.21
19.36
19.24
18.73
17.92
17.11
16.79
17.22
18.27
19.34
19.61
18.51
16.02
12.83
9.98
8.50
8.89
11.02
14.10
16.98
18.37
17.13
12.47
4.20
-6.99
-19.55
-31.32
-40.08
-44.26
-43.44
-38.43
-30.92
-22.78
-15.41
-9.46
-4.85
-1.14
2.11
5.12
7.83
9.98
11.25
11.30
9.84
6.67
1.84
-4.30
-10.94
-16.95
-21.02
-22.12
-19.86
-14.74
-8.04
-1.43
3.66
6.56
7.49
7.34
7.03
7.00
7.00
6.30
4.30
0.95
-3.11
-6.92
-9.65
-11.07
-11.43
-11.13
-10.26
-8.43
-5.06
0.21
7.02
14.35
20.95
25.91
29.10
31.13
32.95
35.23
38.01
40.65
42.16
41.73
39.20
35.25
31.25
28.83
29.17
32.40
37.27
41.34
41.66
35.68
22.07
1.09
-25.44
-54.61
-83.05
-107.56
-125.60
-135.72
-137.82
-132.90
-122.85
-109.86
-95.78
-81.82
-68.52
-55.93
-43.74
-31.56
-19.18
-6.94
4.00
11.88
14.95
12.53
5.73
-2.66
-9.08
-10.79
-6.96
1.26
11.65
22.33
32.80
43.95
56.98
71.89
86.73
97.95
102.04
97.28
84.75
68.10
51.90
39.69
32.69
29.78
28.60
27.20
24.94
22.56
21.28
21.70
23.24
24.46
23.82
20.61
15.29
9.28
4.28
1.48
0.96
1.76
2.37
1.47
-1.45
-5.92
-10.72
-14.51
-16.39
-16.11
-14.01
-10.59
-6.13
-0.56
6.34
14.60
23.74
32.73
40.34
45.64
48.40
49.17
48.96
48.71
48.91
49.45
49.93
50.07
50.01
50.36
51.89
55.11
59.87
65.34
70.27
73.55
74.66
73.86
71.92
69.67
67.55
65.50
63.14
60.14
56.44
52.25
47.80
43.18
38.46
33.92
30.43
29.30
31.99
39.20
50.55
64.57
79.48
94.26
109.48
127.39
150.90
181.89
219.52
259.54
295.15
318.99
325.61
312.98
282.66
238.60
185.35
126.63
64.93
1.79
-61.66
-124.56
-186.60
-248.78
-313.60
-384.12
-461.89
-544.53
-624.75
-691.51
-733.45
-743.22
-720.49
-671.84
-607.96
-539.20
-472.06
-408.25
-346.17
-283.37
-218.48
-151.74
-84.58
-19.23
41.30
93.23
132.59
156.59
165.22
161.57
151.11
139.78
132.10
130.20
134.09
142.50
153.56
165.13
174.81
180.18
179.66
173.43
164.10
156.58
157.01
171.22
202.57
250.16
308.14
366.54
413.84
440.34
441.16
417.25
374.25
319.72
260.22
199.84
140.16
81.59
24.48
-30.59
-83.29
-134.43
-186.41
-242.87
-307.13
-380.25
-459.32
-536.98
-602.88
-646.84
-662.45
-649.33
-613.12
-562.85
-507.34
-452.27
-399.50
-348.29
-297.61
-247.62
-199.67
-155.17
-114.28
-75.32
-35.48
7.81
55.46
106.04
155.76
199.82
233.87
255.48
264.85
264.42
257.81
248.28
237.73
226.54
214.20
200.27
185.08
169.79
155.87
144.39
135.56
128.59
122.07
114.59
105.35
94.53
83.29
73.13
65.25
59.80
55.81
51.64
45.97
38.55
30.43
23.47
19.34
18.70
20.85
24.18
26.91
27.84
26.70
24.06
20.82
17.86
15.67
14.24
13.27
12.36
11.38
10.58
10.60
12.13
15.61
20.86
27.14
33.31
38.37
41.65
43.10
43.08
42.09
40.56
38.66
36.40
33.78
30.86
27.87
25.05
22.57
20.42
18.56
16.90
15.44
14.15
12.85
11.19
8.72
5.18
0.70
-4.13
-8.54
-11.88
-14.01
-15.27
-16.29
-17.67
-19.69
-22.31
-25.28
-28.24
-30.90
-32.97
-34.23
-34.58
-34.07
-32.95
-31.49
-29.85
-27.87
-25.18
-21.35
-16.29
-10.36
-4.36
0.82
4.59
6.93
8.34
9.55
11.07
12.99
14.94
16.50
17.44
17.92
18.31
18.91
19.66
20.17
19.99
18.95
17.38
15.95
15.35
15.89
17.36
19.08
20.23
20.18
18.71
16.03
12.70
9.41
6.83
5.39
5.21
5.99
7.07
7.64
7.02
4.89
1.49
-2.50
-6.18
-8.72
-9.71
-9.19
-7.56
-5.39
-3.16
-1.17
0.50
1.84
2.85
3.47
3.58
3.08
2.08
0.93
0.24
0.61
2.35
5.22
8.49
11.21
12.71
12.93
12.47
12.17
12.57
13.54
14.31
13.97
12.01
8.67
4.81
1.46
-0.71
-1.71
-2.01
-2.23
-2.80
-3.83
-5.26
-7.05
-9.29
-12.09
-15.39
-18.75
-21.50
-22.88
-22.45
-20.26
-16.83
-12.94
-9.26
-6.14
-3.55
-1.23
1.07
3.41
5.61
7.37
8.44
8.69
8.23
7.27
6.08
4.88
3.79
2.81
1.89
0.97
0.02
-0.90
-1.71
-2.30
-2.68
-2.93
-3.21
-3.68
-4.48
-5.75
-7.61
-10.18
-13.44
-17.09
-20.62
-23.46
-25.24
-26.04
-26.25
-26.38
-26.73
-27.20
-27.43
-27.11
-26.23
-25.12
-24.13
-23.29
-22.11
-19.74
-15.38
-8.76
-0.38
8.60
16.77
22.97
26.64
27.82
27.09
25.24
23.07
21.20
20.12
20.11
21.20
23.02
24.57
24.30
20.42
11.59
-2.31
-19.82
-38.05
-53.64
-63.81
-67.32
-64.56
-57.12
-46.91
-35.44
-23.64
-12.12
-1.45
7.54
14.10
17.89
19.28
19.26
19.01
19.32
20.17
20.78
20.12
17.54
13.30
8.51
4.60
2.65
2.85
4.52
6.48
7.79
8.20
8.12
8.21
8.83
9.80
10.55
10.54
9.71
8.55
7.82
8.14
9.64
11.92
14.30
16.12
16.94
16.66
15.47
13.67
11.64
9.74
8.24
7.30
6.82
6.59
6.28
5.63
4.51
2.98
1.27
-0.37
-1.68
-2.58
-3.10
-3.46
-3.94
-4.78
-6.07
-7.72
-9.41
-10.74
-11.27
-10.73
-9.06
-6.52
-3.60
-0.87
1.25
2.73
3.92
5.39
7.56
10.39
13.32
15.56
16.48
15.96
14.44
12.61
11.00
9.75
8.67
7.55
6.42
5.52
5.11
5.17
5.32
5.06
4.11
2.61
1.06
-0.00
-0.38
-0.30
-0.19
-0.30
-0.49
-0.30
0.74
2.63
4.83
6.48
6.85
5.82
3.84
1.71
0.08
-0.85
-1.22
-1.16
-0.48
1.41
5.17
11.04
18.60
26.88
34.80
41.62
47.01
50.90
53.31
54.10
53.18
50.72
47.27
43.73
40.90
39.03
37.38
34.31
27.81
16.33
-0.34
-20.63
-41.61
-59.83
-72.64
-79.00
-79.52
-75.88
-69.89
-62.72
-54.87
-46.52
-38.03
-30.12
-23.70
-19.45
-17.40
-16.98
-17.16
-16.91
-15.55
-12.92
-9.39
-5.61
-2.26
0.26
1.96
3.29
4.97
7.68
11.66
16.44
20.82
23.19
22.08
16.90
8.25
-2.16
-12.14
-19.80
-24.21
-25.44
-24.18
-21.12
-16.44
-9.89
-1.15
9.63
21.55
33.13
42.88
49.93
54.31
57.00
59.33
62.37
66.57
71.60
76.68
81.11
84.53
87.00
88.59
89.10
88.00
84.61
78.61
70.20
59.91
48.14
34.69
18.77
-0.53
-23.52
-49.35
-75.99
-100.62
-120.59
-134.14
-140.81
-141.51
-137.93
-131.92
-124.94
-117.71
-110.23
-102.16
-93.30
-83.89
-74.82
-67.33
-62.35
-59.88
-58.64
-56.33
-50.53
-39.77
-24.31
-6.19
11.57
26.02
35.19
38.22
35.09
26.08
11.89
-6.04
-25.09
-41.79
-52.88
-56.60
-53.46
-45.81
-36.63
-28.10
-21.02
-15.00
-9.44
-4.26
-0.05
2.32
2.26
-0.27
-4.80
-10.51
-16.42
-21.33
-23.90
-22.85
-17.40
-7.61
5.57
20.69
36.29
51.26
64.92
76.77
86.39
93.53
98.23
100.98
102.56
103.71
104.88
106.14
107.47
109.06
111.50
115.52
121.53
129.13
136.94
142.94
145.37
143.32
137.08
127.87
117.06
105.43
93.08
80.06
67.42
57.99
56.15
66.09
89.45
123.32
160.25
190.27
204.39
197.92
171.79
131.64
84.71
36.95
-8.98
-53.58
-98.92
-147.02
-199.02
-255.53
-317.13
-384.06
-454.88
-525.20
-587.37
-632.24
-652.24
-644.27
-610.93
-559.31
-498.07
-434.48
-372.80
-314.51
-259.46
-207.23
-157.57
-110.05
-63.75
-17.19
31.21
82.48
136.79
193.15
249.25
301.89
347.67
384.07
410.76
430.01
445.93
462.40
480.72
498.25
509.13
506.73
486.66
448.77
397.09
337.92
277.06
217.98
161.39
106.22
50.99
-5.33
-63.52
-124.82
-191.13
-263.88
-342.03
-420.42
-489.94
-540.05
-562.53
-554.82
-521.02
-470.02
-411.76
-353.66
-298.98
-247.24
-196.22
-143.92
-89.62
-34.08
20.88
72.84
119.10
157.11
185.18
203.00
211.61
213.10
209.84
203.94
196.93
189.79
183.04
176.68
170.06
162.05
151.53
137.98
122.00
105.19
89.58
76.71
67.12
60.15
54.40
48.49
41.60
33.74
25.61
18.23
12.48
8.84
7.27
7.31
8.22
9.22
9.65
9.15
7.69
5.63
3.58
2.09
1.40
1.36
1.46
1.11
0.03
-1.70
-3.62
-5.16
-5.94
-5.83
-4.95
-3.49
-1.62
0.52
2.78
4.88
6.55
7.50
7.65
7.09
6.07
4.87
3.73
2.81
2.15
1.74
1.57
1.66
1.97
2.40
2.74
2.70
2.07
0.81
-0.98
-3.04
-5.14
-7.12
-8.99
-10.74
-12.35
-13.64
-14.39
-14.42
-13.71
-12.39
-10.72
-8.96
-7.27
-5.77
-4.51
-3.55
-2.95
-2.74
-2.85
-3.11
-3.31
-3.21
-2.68
-1.69
-0.32
1.24
2.76
3.99
4.76
4.98
4.71
4.13
3.46
2.91
2.56
2.37
2.18
1.84
1.25
0.44
-0.50
-1.41
-2.22
-2.94
-3.65
-4.46
-5.40
-6.42
-7.40
-8.28
-9.09
-9.94
-10.95
-12.07
-13.06
-13.54
-13.23
-12.11
-10.40
-8.46
-6.57
-4.81
-3.11
-1.43
0.12
1.26
1.73
1.51
0.92
0.45
0.53
1.27
2.37
3.35
3.79
3.58
2.97
2.36
2.08
2.13
2.22
1.96
1.04
-0.53
-2.46
-4.30
-5.65
-6.39
-6.71
-7.10
-8.10
-10.19
-13.66
-18.53
-24.61
-31.49
-38.50
-44.79
-49.41
-51.66
-51.47
-49.55
-47.18
-45.56
-45.12
-45.08
-43.74
-39.20
-30.39
-17.70
-2.87
11.70
23.97
32.99
38.99
42.93
45.74
47.87
49.20
49.41
48.41
46.63
44.83
43.68
43.26
42.97
41.83
39.06
34.66
29.60
25.46
23.68
24.85
28.35
32.47
35.09
34.58
30.38
23.27
14.87
6.92
0.59
-3.97
-7.43
-10.82
-14.86
-19.56
-24.30
-28.18
-30.59
-31.54
-31.66
-31.74
-32.26
-32.99
-33.09
-31.54
-27.75
-21.86
-14.70
-7.39
-0.76
4.91
9.92
14.78
19.87
25.25
30.54
35.08
37.99
38.48
36.02
30.60
22.90
14.35
6.84
2.35
2.43
7.84
18.16
31.85
46.52
59.42
68.38
72.45
72.29
69.87
67.47
66.70
67.70
69.02
68.12
62.08
48.30
25.18
-7.24
-46.66
-88.33
-125.73
-152.27
-163.48
-158.78
-141.78
-118.84
-96.56
-79.30
-68.11
-61.21
-55.74
-49.49
-41.75
-33.19
-24.90
-17.63
-11.40
-5.79
-0.38
4.76
9.16
12.24
13.68
13.66
12.76
11.66
10.82
10.36
10.06
9.63
8.78
7.42
5.59
3.43
1.19
-0.84
-2.38
-3.26
-3.50
-3.36
-3.20
-3.35
-3.90
-4.61
-5.00
-4.54
-2.94
-0.35
2.66
5.29
6.75
6.65
5.12
2.81
0.74
-0.18
0.59
3.01
6.49
10.21
13.46
15.96
17.88
19.68
21.74
24.06
26.26
27.68
27.86
26.77
24.91
23.10
22.13
22.35
23.53
24.98
25.77
25.17
22.86
19.05
14.31
9.37
4.88
1.21
-1.65
-3.99
-6.19
-8.59
-11.32
-14.41
-17.83
-21.64
-25.91
-30.60
-35.43
-39.86
-43.38
-45.76
-47.22
-48.31
-49.49
-50.73
-51.37
-50.45
-47.30
-41.98
-35.41
-28.91
-23.57
-19.79
-17.19
-15.00
-12.64
-10.00
-7.36
-5.11
-3.36
-1.89
-0.31
1.65
3.89
6.07
7.83
9.07
10.06
11.23
12.95
15.21
17.62
19.59
20.54
20.25
18.85
16.71
14.33
12.10
10.24
8.82
7.66
6.46
4.81
2.31
-1.28
-5.95
-11.40
-17.07
-22.24
-26.13
-28.08
-27.76
-25.25
-21.15
-16.48
-12.30
-9.36
-7.84
-7.32
-7.02
-6.28
-4.80
-2.68
-0.21
2.43
5.35
8.84
13.18
18.38
23.97
29.16
33.08
35.14
35.23
33.85
31.81
29.95
28.86
28.74
29.43
30.46
31.31
31.46
30.60
28.75
26.29
23.89
22.29
21.91
22.54
23.26
22.59
18.99
11.41
-0.09
-14.32
-29.13
-42.18
-51.74
-57.35
-59.86
-60.89
-61.94
-63.52
-64.95
-64.76
-61.52
-54.59
-44.36
-32.04
-19.08
-6.76
4.04
12.81
19.28
23.45
25.60
26.21
25.75
24.47
22.54
20.29
18.61
19.07
23.54
33.41
48.76
68.09
88.84
108.29
124.72
138.03
149.51
161.06
174.17
189.25
205.49
220.96
233.00
238.59
234.86
219.67
192.34
153.81
106.69
54.53
0.79
-51.92
-102.47
-151.38
-200.72
-253.26
-310.93
-373.02
-434.85
-488.02
-522.55
-530.33
-508.42
-460.40
-394.91
-322.43
-251.55
-186.90
-129.01
-75.74
-24.06
28.74
84.60
144.37
207.13
269.49
325.37
367.20
388.12
384.09
355.62
307.37
246.36
179.50
111.51
43.98
-24.19
-95.19
-170.05
-246.72
-319.49
-379.98
-419.74
-433.24
-419.92
-384.25
-333.73
-275.94
-215.92
-155.47
-94.19
-31.64
30.86
89.96
141.54
182.43
211.78
231.06
242.90
249.74
253.11
253.70
252.22
249.89
248.02
246.98
245.07
238.51
222.53
193.18
148.65
89.74
19.46
-57.35
-134.04
-202.55
-254.48
-283.21
-286.37
-267.07
-233.00
-193.57
-156.42
-125.12
-99.13
-75.73
-52.33
-28.16
-4.27
17.48
35.64
49.79
60.44
68.38
74.26
78.52
81.37
83.29
85.06
87.51
91.10
95.68
100.33
103.90
105.49
104.98
103.09
101.24
101.07
104.02
110.64
119.92
128.72
132.14
124.92
103.68
68.98
25.83
-17.92
-54.59
-79.62
-92.87
-97.56
-97.63
-95.31
-90.24
-80.64
-65.31
-45.15
-23.08
-2.53
14.28
27.24
37.96
48.38
59.43
70.49
79.85
85.82
87.82
86.91
85.65
87.11
93.41
104.60
117.91
128.25
129.72
117.40
88.75
44.04
-13.92
-80.42
-149.18
-212.84
-263.69
-295.18
-303.77
-290.26
-259.80
-220.11
-178.77
-140.88
-108.12
-79.50
-53.09
-27.52
-2.58
21.10
42.75
61.89
78.33
91.70
101.20
105.70
104.15
96.38
83.50
67.68
51.42
36.58
23.85
12.90
3.14
-5.47
-12.16
-15.87
-15.99
-13.12
-8.97
-5.63
-4.60
-6.14
-9.26
-12.28
-13.70
-12.85
-10.18
-7.03
-5.03
-5.45
-8.75
-14.42
-21.28
-27.97
-33.34
-36.64
-37.42
-35.44
-30.63
-23.29
-14.29
-5.01
2.91
8.16
10.19
9.42
7.01
4.37
2.68
2.60
4.23
7.26
11.11
15.13
18.74
21.53
23.39
24.45
24.93
25.04
24.87
24.40
23.64
22.65
21.57
20.51
19.46
18.31
16.90
15.30
13.77
12.70
12.34
12.62
13.12
13.26
12.64
11.19
9.21
7.20
5.55
4.45
3.87
3.67
3.75
4.04
4.42
4.65
4.42
3.44
1.71
-0.41
-2.26
-3.23
-2.99
-1.75
-0.09
1.31
2.01
1.97
1.45
0.80
0.24
-0.26
-0.86
-1.76
-3.06
-4.78
-6.90
-9.38
-12.18
-15.21
-18.28
-21.14
-23.44
-24.83
-24.96
-23.58
-20.70
-16.58
-11.71
-6.69
-2.12
1.62
4.28
5.80
6.27
5.88
4.99
4.05
3.52
3.63
4.33
5.27
5.99
6.15
5.70
4.90
4.04
3.30
2.63
1.88
0.93
-0.07
-0.83
-1.00
-0.45
0.65
1.90
2.87
3.30
3.14
2.55
1.69
0.65
-0.54
-1.89
-3.30
-4.60
-5.55
-6.05
-6.08
-5.73
-5.09
-4.22
-3.12
-1.81
-0.33
1.22
2.69
4.01
5.13
6.08
6.92
7.65
8.28
8.80
9.22
9.54
9.79
9.98
10.18
10.45
10.85
11.37
11.92
12.41
12.77
13.02
13.18
13.22
13.01
12.36
11.15
9.45
7.56
5.83
4.48
3.43
2.39
1.03
-0.80
-3.04
-5.49
-7.93
-10.22
-12.27
-13.92
-14.89
-14.92
-13.91
-12.06
-9.83
-7.72
-6.10
-4.99
-4.11
-3.11
-1.76
-0.11
1.55
2.87
3.65
3.94
4.02
4.24
4.89
5.99
7.41
8.91
10.35
11.67
12.94
14.21
15.53
16.94
18.61
20.71
23.32
26.07
28.04
28.00
24.89
18.44
9.45
-0.38
-9.09
-15.20
-18.20
-18.57
-17.32
-15.51
-13.84
-12.58
-11.77
-11.32
-11.17
-11.17
-11.07
-10.57
-9.44
-7.67
-5.56
-3.58
-2.17
-1.56
-1.64
-1.98
-2.05
-1.39
0.18
2.56
5.43
8.42
11.24
13.70
15.75
17.36
18.48
18.99
18.69
17.31
14.66
10.77
6.10
1.47
-2.11
-3.92
-3.83
-2.43
-0.76
0.03
-0.81
-3.52
-7.79
-13.05
-18.60
-23.82
-28.15
-31.15
-32.54
-32.27
-30.57
-27.94
-25.09
-22.77
-21.61
-21.85
-23.13
-24.48
-24.43
-21.61
-15.25
-5.70
5.56
16.34
24.52
28.85
29.40
27.50
25.20
24.50
26.61
31.61
38.45
45.41
50.64
52.84
51.67
47.91
43.26
39.54
38.03
38.74
40.22
40.00
35.35
24.33
6.57
-16.41
-41.40
-64.33
-81.42
-90.33
-90.85
-84.79
-75.11
-64.69
-55.26
-46.94
-38.73
-29.41
-18.35
-5.92
6.73
18.09
26.89
32.46
34.93
35.17
34.63
34.97
37.64
43.47
52.49
64.07
77.30
91.58
106.52
121.73
136.47
149.47
159.08
163.85
163.26
157.97
150.63
144.45
142.66
147.52
159.56
177.00
195.87
210.75
215.59
207.15
184.41
149.52
106.94
61.64
17.20
-25.17
-66.48
-109.94
-156.94
-209.18
-266.65
-327.01
-385.27
-434.26
-466.16
-474.75
-458.68
-418.84
-361.33
-293.80
-222.70
-151.59
-80.79
-8.81
72.25
150.90
224.46
286.04
328.26
345.76
337.18
305.61
257.53
200.41
139.26
79.19
21.53
-33.56
-86.02
-135.79
-183.53
-231.46
-283.13
-342.36
-407.93
-474.87
-533.68
-573.10
-584.48
-565.24
-519.90
-458.13
-391.32
-327.01
-268.96
-216.99
-168.99
-123.09
-78.50
-35.09
7.69
51.03
96.99
146.05
196.19
242.79
279.66
301.51
306.09
295.23
274.13
249.64
227.56
211.17
200.90
195.24
192.02
189.48
186.62
183.04
178.63
173.41
167.51
161.20
154.85
148.82
143.34
138.41
133.74
128.87
123.29
116.53
108.32
98.78
88.52
78.49
69.66
62.41
56.19
49.52
40.57
28.12
12.28
-5.25
-21.77
-34.45
-41.45
-42.45
-38.60
-32.03
-25.18
-20.19
-18.46
-20.54
-25.98
-33.48
-41.14
-47.01
-49.61
-48.43
-44.02
-37.80
-31.40
-26.12
-22.47
-20.20
-18.53
-16.63
-14.07
-11.00
-8.07
-6.12
-5.84
-7.38
-10.27
-13.58
-16.30
-17.71
-17.74
-16.89
-15.89
-15.26
-15.09
-15.01
-14.58
-13.63
-12.45
-11.61
-11.61
-12.61
-14.32
-16.20
-17.80
-18.97
-19.82
-20.56
-21.10
-20.93
-19.23
-15.25
-8.87
-0.79
7.56
14.64
19.49
22.16
23.64
25.25
27.87
31.53
35.52
38.87
40.99
41.95
42.31
42.68
43.38
44.31
45.10
45.35
44.72
42.97
39.83
35.05
28.46
20.19
10.74
0.95
-8.07
-15.32
-20.10
-22.29
-22.43
-21.58
-21.03
-21.72
-23.90
-26.98
-29.77
-31.07
-30.25
-27.48
-23.51
-19.18
-14.90
-10.50
-5.59
-0.05
5.56
10.18
12.75
12.85
10.96
8.16
5.52
3.59
2.25
1.07
-0.13
-1.06
-1.06
0.41
3.35
7.10
10.67
13.19
14.22
13.74
11.96
9.17
5.54
1.21
-3.74
-9.26
-15.28
-21.66
-27.95
-33.35
-36.81
-37.51
-35.19
-30.40
-24.36
-18.37
-13.39
-9.68
-6.97
-4.77
-2.66
-0.33
2.55
6.37
11.53
18.13
25.80
33.71
40.96
47.05
52.23
57.31
63.14
69.95
77.03
83.06
87.05
89.35
91.85
96.97
106.04
117.61
127.21
128.60
116.01
86.22
39.33
-21.49
-90.83
-161.55
-225.31
-273.46
-298.83
-298.06
-273.11
-230.85
-180.53
-130.29
-84.55
-43.61
-5.47
31.75
68.39
103.53
136.36
166.85
195.54
222.01
243.64
255.71
252.85
230.95
188.69
128.19
54.97
-22.61
-94.23
-148.84
-176.65
-171.72
-134.45
-72.62
-0.04
66.99
114.56
134.76
126.98
96.38
50.55
-4.08
-64.29
-129.55
-199.80
-272.62
-341.72
-397.93
-432.16
-439.07
-418.91
-376.99
-321.12
-258.60
-194.65
-132.57
-75.76
-29.07
1.32
10.12
-4.23
-37.66
-80.81
-121.78
-149.40
-156.54
-141.14
-105.98
-56.86
-0.86
55.20
105.73
146.97
177.52
198.02
210.71
218.46
223.68
227.72
230.86
232.87
233.50
233.40
233.31
233.84
235.08
236.55
237.57
237.64
236.68
234.54
232.80
232.84
236.24
243.99
255.46
267.71
275.64
273.47
255.81
222.92
177.74
125.93
73.64
25.06
-18.78
-59.66
-100.75
-146.69
-197.40
-253.49
-314.12
-376.68
-436.42
-486.71
-520.45
-532.05
-521.63
-488.76
-438.98
-378.88
-313.93
-247.09
-178.85
-108.67
-23.42
55.33
125.24
179.53
212.13
219.82
203.43
167.43
118.14
61.03
-3.19
-71.64
-144.69
-220.46
-293.10
-353.41
-391.91
-402.59
-385.52
-348.32
-298.16
-243.66
-189.91
-137.51
-84.27
-27.93
31.34
90.24
142.48
184.42
213.62
230.83
239.26
242.80
244.47
245.37
245.02
241.99
236.63
229.82
223.20
218.16
214.83
211.91
207.25
199.06
186.74
171.80
156.57
143.29
132.87
124.33
115.25
103.01
86.10
65.02
42.07
20.46
3.11
-8.30
-13.63
-13.91
-10.80
-6.10
-1.43
1.86
2.91
1.49
-1.94
-6.36
-10.71
-14.27
-16.94
-19.15
-21.42
-23.89
-26.16
-27.42
-26.92
-24.42
-20.37
-15.83
-11.92
-9.49
-8.74
-9.33
-10.62
-11.92
-12.72
-12.73
-11.90
-10.42
-8.67
-7.24
-6.67
-7.30
-9.06
-11.52
-14.10
-16.40
-18.36
-20.13
-21.87
-23.43
-24.46
-24.70
-24.33
-23.89
-23.99
-24.77
-25.59
-25.35
-23.03
-18.43
-12.32
-6.15
-1.29
1.50
2.30
1.75
0.59
-0.69
-1.84
-2.75
-3.25
-3.09
-2.18
-0.67
1.04
2.38
2.94
2.58
1.42
-0.26
-2.17
-4.11
-5.98
-7.76
-9.46
-11.14
-12.82
-14.41
-15.66
-16.16
-15.56
-13.77
-11.17
-8.60
-7.05
-7.29
-9.52
-13.28
-17.67
-21.64
-24.40
-25.56
-25.15
-23.51
-21.10
-18.43
-15.93
-13.86
-12.25
-10.84
-9.20
-6.89
-3.78
-0.13
3.41
6.08
7.37
7.18
5.83
3.87
1.81
0.07
-1.13
-1.59
-1.19
0.11
2.11
4.36
6.33
7.58
7.93
7.50
6.57
5.35
4.02
2.66
1.39
0.36
-0.36
-0.92
-1.70
-3.12
-5.43
-8.43
-11.58
-14.26
-16.06
-17.06
-17.73
-18.53
-19.59
-20.51
-20.59
-19.24
-16.34
-12.37
-8.11
-4.27
-1.14
1.42
3.73
5.98
8.00
9.36
9.74
9.13
8.03
7.22
7.39
8.86
11.39
14.28
16.68
17.90
17.67
16.24
14.20
12.26
10.90
10.14
9.62
8.79
7.25
5.00
2.47
0.22
-1.38
-2.40
-3.33
-4.76
-7.05
-10.15
-13.67
-17.10
-20.10
-22.58
-24.59
-26.21
-27.35
-27.76
-27.11
-25.08
-21.49
-16.40
-10.20
-3.61
2.39
6.89
9.36
9.94
9.39
8.73
8.76
9.65
10.96
11.98
12.22
11.78
11.26
11.44
12.81
15.28
18.23
20.90
22.77
23.76
24.17
24.39
24.62
24.68
24.24
22.97
20.86
18.19
15.43
12.99
11.02
9.45
8.07
6.68
5.10
3.18
0.83
-2.02
-5.30
-8.77
-12.15
-15.20
-17.89
-20.25
-22.23
-23.51
-23.56
-21.90
-18.45
-13.69
-8.51
-3.75
0.11
3.08
5.37
7.18
8.42
8.95
8.85
8.65
9.15
11.00
14.31
18.50
22.52
25.40
26.59
26.12
24.49
22.35
20.31
18.96
18.86
20.61
24.62
30.86
38.69
46.92
54.16
59.34
62.18
63.25
63.73
64.87
67.39
71.22
75.56
79.36
81.81
82.72
82.69
82.76
84.09
87.73
94.48
104.68
117.93
132.51
145.35
152.23
149.08
133.28
104.64
65.39
19.01
-31.44
-84.75
-141.48
-202.65
-267.50
-332.04
-389.14
-430.54
-449.76
-444.55
-417.68
-375.74
-326.54
-276.61
-229.58
-186.48
-147.00
-111.03
-79.38
-53.50
-34.37
-21.48
-12.64
-4.62
5.56
19.37
36.12
53.38
68.11
78.16
83.12
84.36
84.15
84.47
86.18
88.82
91.25
92.37
91.71
89.47
86.27
82.77
79.54
77.13
76.16
77.22
80.53
85.60
91.17
95.61
97.62
96.92
94.41
91.78
90.70
92.05
95.44
99.20
100.88
97.95
88.47
71.65
48.14
19.94
-9.86
-37.67
-60.19
-75.19
-82.08
-82.06
-77.75
-72.41
-68.93
-69.00
-72.64
-78.37
-83.68
-85.94
-83.21
-74.81
-61.40
-44.69
-26.80
-9.60
5.79
19.06
30.48
40.33
48.61
54.87
58.51
59.14
57.00
52.94
48.07
43.26
38.68
33.83
27.84
20.02
10.42
-0.07
-10.01
-17.92
-22.81
-24.39
-22.99
-19.24
-13.79
-7.20
0.01
7.25
13.93
19.60
24.08
27.51
30.20
32.38
33.99
34.71
34.04
31.69
27.67
22.46
16.89
11.85
7.93
5.29
3.56
2.17
0.70
-0.82
-1.99
-2.32
-1.79
-1.10
-1.44
-4.00
-9.23
-16.55
-24.48
-31.33
-35.91
-37.96
-37.98
-36.78
-34.90
-32.42
-29.05
-24.70
-19.68
-14.75
-10.69
-7.81
-5.74
-3.69
-1.00
2.43
5.97
8.73
10.13
10.30
10.08
10.37
11.56
13.25
14.50
14.44
12.83
10.19
7.48
5.52
4.51
4.01
3.28
1.83
-0.26
-2.33
-3.56
-3.51
-2.44
-1.27
-0.99
-2.17
-4.55
-7.18
-9.06
-9.68
-9.34
-8.96
-9.46
-11.27
-14.14
-17.41
-20.42
-22.84
-24.60
-25.61
-25.54
-24.03
-20.91
-16.52
-11.64
-7.08
-3.31
-0.22
2.68
5.86
9.33
12.69
15.38
17.03
17.78
18.12
18.58
19.41
20.46
21.38
21.87
21.98
22.00
22.22
22.61
22.73
21.94
19.81
16.40
12.40
8.68
5.80
3.73
1.86
-0.51
-3.74
-7.54
-11.21
-14.15
-16.26
-18.06
-20.35
-23.72
-28.15
-33.10
-37.82
-41.81
-45.04
-47.86
-50.56
-53.05
-54.84
-55.24
-53.86
-50.90
-47.18
-43.82
-41.61
-40.64
-40.17
-39.05
-36.30
-31.46
-24.53
-15.57
-4.38
9.46
26.02
44.36
62.41
77.60
88.01
93.31
94.82
94.63
94.17
93.32
90.65
84.61
74.91
63.09
51.97
44.22
41.05
41.67
43.86
45.19
44.06
40.20
34.45
27.98
21.86
16.75
13.13
11.44
12.12
15.26
20.24
25.79
30.33
32.75
33.01
32.19
31.95
33.66
37.66
43.01
47.73
49.41
45.87
35.72
18.90
-3.22
-27.98
-52.17
-73.12
-89.66
-102.44
-112.98
-122.24
-129.28
-131.03
-123.75
-105.13
-76.05
-40.63
-4.61
27.26
53.19
74.65
95.03
117.39
142.76
169.77
195.39
216.21
229.33
232.75
225.11
205.68
174.58
133.11
83.76
29.75
-26.03
-82.23
-139.49
-199.64
-263.65
-329.55
-391.35
-440.10
-466.85
-466.01
-437.49
-386.47
-321.22
-250.27
-180.37
-116.11
-60.40
-15.18
18.67
41.84
56.82
67.29
76.72
86.95
97.82
107.82
115.46
120.42
124.08
129.19
138.57
153.70
173.32
193.24
207.02
208.00
191.67
156.92
105.86
42.23
-30.16
-107.86
-186.68
-260.45
-320.73
-358.72
-368.50
-349.73
-307.87
-251.75
-189.82
-127.28
-65.85
-5.72
51.95
103.65
144.54
170.70
181.28
178.90
168.41
154.71
141.19
129.39
119.41
111.04
104.27
99.16
95.51
92.60
89.43
85.20
79.76
73.68
67.97
63.51
60.64
59.03
57.86
56.15
53.16
48.57
42.54
35.54
28.22
21.06
14.35
8.14
2.36
-3.12
-8.35
-13.27
-17.63
-20.96
-22.62
-21.94
-18.56
-12.69
-5.24
2.22
8.00
10.71
9.80
5.72
-0.40
-7.06
-12.93
-17.06
-18.97
-18.58
-16.14
-12.18
-7.39
-2.57
1.66
4.98
7.50
9.60
11.72
14.08
16.59
18.96
20.84
22.05
22.52
22.21
21.00
18.69
15.15
10.48
5.07
-0.51
-5.73
-10.24
-13.95
-16.86
-18.97
-20.12
-20.18
-19.14
-17.38
-15.51
-14.28
-14.17
-15.29
-17.32
-19.66
-21.74
-23.17
-23.85
-23.91
-23.63
-23.32
-23.33
-23.92
-25.19
-27.01
-28.97
-30.56
-31.29
-30.94
-29.55
-27.36
-24.64
-21.56
-18.15
-14.43
-10.52
-6.69
-3.27
-0.52
1.50
2.97
4.17
5.37
6.67
7.99
9.18
10.16
10.98
11.73
12.50
13.21
13.64
13.61
13.00
11.92
10.62
9.37
8.37
7.67
7.21
6.85
6.45
5.92
5.18
4.27
3.21
2.04
0.75
-0.70
-2.36
-4.28
-6.39
-8.61
-10.89
-13.21
-15.61
-18.03
-20.25
-21.93
-22.66
-22.18
-20.42
-17.55
-13.94
-10.01
-6.20
-2.88
-0.32
1.38
2.30
2.68
2.83
3.10
3.68
4.67
6.00
7.52
9.03
10.33
11.31
11.97
12.38
12.66
12.86
12.98
12.98
12.86
12.69
12.54
12.43
12.28
11.86
11.02
9.76
8.36
7.21
6.60
6.54
6.70
6.52
5.57
3.70
1.12
-1.84
-4.91
-8.09
-11.46
-15.03
-18.45
-21.08
-22.24
-21.58
-19.34
-16.29
-13.30
-11.01
-9.59
-8.76
-8.12
-7.41
-6.63
-5.94
-5.45
-5.13
-4.81
-4.31
-3.55
-2.60
-1.61
-0.73
-0.08
0.24
0.20
-0.18
-0.77
-1.42
-2.01
-2.54
-3.12
-3.85
-4.72
-5.56
-6.12
-6.29
-6.17
-6.12
-6.48
-7.40
-8.71
-10.09
-11.25
-12.18
-13.13
-14.31
-15.72
-17.01
-17.70
-17.52
-16.60
-15.41
-14.53
-14.16
-14.06
-13.65
-12.47
-10.54
-8.40
-6.80
-6.19
-6.42
-6.71
-6.13
-4.07
-0.56
3.72
7.85
11.16
13.50
15.21
16.82
18.73
20.92
23.05
24.62
25.29
25.06
24.28
23.37
22.67
22.16
21.57
20.51
18.72
16.22
13.22
10.03
6.76
3.38
-0.30
-4.37
-8.73
-13.05
-16.86
-19.78
-21.63
-22.54
-22.76
-22.53
-21.93
-20.82
-19.01
-16.43
-13.25
-9.89
-6.76
-4.13
-1.96
-0.01
2.01
4.18
6.39
8.40
10.06
11.46
12.81
14.36
16.14
18.02
19.78
21.27
22.48
23.48
24.30
24.83
24.87
24.34
23.36
22.28
21.44
21.02
20.84
20.43
19.30
17.18
14.24
10.89
7.63
4.75
2.26
0.01
-2.17
-4.31
-6.31
-8.16
-9.89
-11.67
-13.51
-15.18
-16.18
-15.98
-14.26
-11.17
-7.24
-3.19
0.40
3.31
5.66
7.77
9.88
12.01
14.02
15.64
16.77
17.47
18.00
18.63
19.57
20.80
22.16
23.43
24.44
25.11
25.52
25.73
25.80
25.73
25.42
24.76
23.69
22.21
20.41
18.47
16.49
14.51
12.41
9.94
6.90
3.17
-1.15
-5.80
-10.42
-14.69
-18.42
-21.54
-24.06
-25.94
-27.05
-27.19
-26.27
-24.35
-21.72
-18.78
-15.85
-13.04
-10.20
-7.16
-3.82
-0.35
2.86
5.44
7.21
8.32
9.23
10.48
12.45
15.17
18.25
21.08
23.05
23.85
23.68
23.24
23.51
25.44
29.56
35.78
43.30
50.84
56.97
60.59
61.28
59.49
56.42
53.49
51.74
51.22
50.78
48.35
41.69
29.43
11.79
-9.27
-30.59
-48.90
-61.89
-68.89
-70.85
-69.54
-66.63
-62.87
-57.91
-50.85
-40.97
-28.56
-15.01
-2.35
7.56
14.02
17.93
21.68
28.37
40.85
60.51
86.55
115.78
143.11
162.76
169.80
161.54
137.99
101.46
55.11
1.41
-58.80
-125.68
-198.42
-273.18
-342.24
-395.41
-423.28
-420.72
-388.86
-334.53
-267.62
-197.69
-131.77
-73.56
-24.23
16.47
49.37
75.65
96.84
114.38
129.33
142.17
153.26
163.37
173.62
184.31
193.91
198.41
192.28
170.71
131.67
76.57
9.26
-65.83
-144.80
-223.90
-298.19
-360.78
-403.71
-420.54
-409.18
-373.02
-319.61
-257.38
-192.81
-129.31
-68.32
-11.17
39.57
80.64
109.71
126.97
135.32
139.17
142.34
146.66
151.75
155.85
157.43
156.16
153.09
149.91
148.11
148.23
149.76
151.35
151.29
147.92
140.14
127.71
111.38
92.77
74.03
57.31
44.17
35.34
30.67
29.37
30.27
32.05
33.49
33.56
31.74
28.01
22.95
17.46
12.41
8.30
5.13
2.58
0.20
-2.38
-5.31
-8.50
-11.71
-14.61
-16.89
-18.39
-19.18
-19.57
-19.96
-20.72
-21.97
-23.58
-25.22
-26.52
-27.18
-27.08
-26.27
-25.01
-23.80
-23.15
-23.55
-25.07
-27.44
-30.00
-32.13
-33.48
-34.14
-34.39
-34.42
-34.07
-32.83
-30.14
-25.78
-20.12
-13.94
-8.16
-3.34
0.40
3.32
5.74
7.80
9.40
10.34
10.49
9.94
8.89
7.61
6.21
4.82
3.54
2.59
2.23
2.62
3.72
5.20
6.58
7.31
6.89
4.84
0.80
-5.36
-13.31
-22.15
-30.49
-36.88
-40.29
-40.49
-38.08
-34.10
-29.57
-25.19
-21.28
-18.06
-15.84
-14.96
-15.59
-17.40
-19.53
-20.85
-20.44
-18.00
-13.99
-9.40
-5.21
-1.98
0.30
2.12
3.98
6.15
8.38
10.18
11.05
10.79
9.71
8.41
7.49
7.33
7.86
8.81
9.82
10.73
11.54
12.34
13.15
13.83
14.18
14.01
13.35
12.44
11.56
10.88
10.27
9.36
7.70
5.03
1.46
-2.56
-6.35
-9.34
-11.27
-12.34
-13.09
-14.12
-15.77
-17.93
-20.12
-21.67
-22.12
-21.32
-19.50
-16.99
-13.98
-10.39
-6.06
-0.95
4.58
9.79
13.87
16.29
17.03
16.52
15.42
14.28
13.43
13.04
13.18
13.90
15.13
16.65
18.01
18.69
18.36
17.06
15.24
13.55
12.51
12.25
12.43
12.38
11.48
9.43
6.41
2.98
-0.28
-3.04
-5.31
-7.36
-9.47
-11.80
-14.29
-16.89
-19.59
-22.37
-25.08
-27.23
-28.13
-27.11
-23.92
-18.93
-13.00
-7.15
-2.13
1.85
4.96
7.50
9.63
11.26
12.26
12.64
12.71
12.93
13.66
14.99
16.66
18.25
19.44
20.08
20.16
19.74
18.80
17.41
15.82
14.47
13.83
14.15
15.15
16.16
16.36
15.22
12.77
9.58
6.44
3.97
2.39
1.46
0.68
-0.51
-2.49
-5.31
-8.68
-11.96
-14.28
-14.91
-13.49
-10.23
-5.79
-1.01
3.57
7.99
12.73
18.37
25.12
32.57
39.85
46.03
50.42
52.73
52.90
50.96
47.17
42.32
37.86
35.78
37.77
44.44
54.85
66.81
77.98
86.94
93.77
99.64
105.77
112.33
118.16
121.25
119.90
113.66
103.49
91.24
78.37
64.97
49.55
29.77
3.86
-28.16
-64.08
-100.39
-133.79
-162.75
-187.82
-210.68
-232.51
-252.64
-268.53
-276.91
-275.57
-264.51
-245.90
-223.00
-198.73
-174.93
-152.31
-131.08
-111.31
-92.98
-75.48
-57.38
-36.78
-12.27
15.93
45.42
71.98
91.04
99.39
96.51
84.84
68.91
53.73
43.18
39.09
41.09
47.42
55.77
64.05
70.60
74.27
74.33
70.56
63.49
54.41
45.15
37.44
32.24
29.32
27.33
24.44
19.08
10.66
-0.30
-12.32
-23.64
-32.75
-38.79
-41.59
-41.53
-39.24
-35.37
-30.37
-24.53
-18.02
-10.99
-3.61
3.88
11.24
18.14
24.17
28.85
31.75
32.66
31.82
30.01
28.27
27.58
28.39
30.46
33.00
35.11
36.21
36.19
35.41
34.24
32.82
31.04
28.66
25.62
22.16
18.76
15.86
13.65
11.94
10.30
8.31
5.79
2.89
-0.02
-2.60
-4.73
-6.65
-8.81
-11.56
-14.92
-18.40
-21.16
-22.35
-21.50
-18.66
-14.38
-9.38
-4.36
0.20
3.93
6.50
7.60
7.09
5.20
2.60
0.22
-1.10
-1.04
0.12
1.61
2.69
3.02
2.81
2.66
3.16
4.58
6.72
9.06
11.04
12.26
12.54
11.88
10.37
8.17
5.52
2.71
0.07
-2.21
-4.13
-5.92
-7.89
-10.30
-13.21
-16.43
-19.64
-22.52
-24.86
-26.58
-27.69
-28.19
-28.01
-26.97
-24.77
-21.13
-15.92
-9.19
-1.29
7.23
15.62
23.03
28.70
32.14
33.36
32.86
31.54
30.18
29.22
28.52
27.58
25.89
23.36
20.36
17.54
15.47
14.30
13.71
13.05
11.67
9.23
5.88
2.29
-0.56
-1.73
-0.79
1.98
5.70
9.36
12.45
15.14
18.13
22.04
26.91
32.04
36.27
38.59
38.53
36.25
32.38
27.66
22.81
18.48
15.21
13.31
12.72
13.11
14.25
16.54
21.30
30.48
45.78
67.64
94.47
122.74
147.76
164.70
169.86
161.30
138.91
104.14
59.20
6.07
-54.14
-120.97
-193.39
-267.92
-337.57
-392.50
-422.61
-421.23
-387.95
-329.13
-255.62
-178.83
-107.10
-44.22
9.87
56.78
97.38
130.81
154.95
167.65
167.95
156.58
135.70
108.21
77.34
46.17
17.75
-4.61
-17.44
-17.69
-3.86
22.83
58.33
96.73
132.26
161.16
182.33
196.37
203.83
203.76
193.71
171.04
134.64
85.91
28.11
-35.49
-103.15
-174.72
-249.85
-325.53
-394.92
-448.57
-477.83
-478.32
-451.91
-405.95
-349.87
-291.42
-234.27
-178.15
-121.22
-63.01
-5.95
45.09
85.10
111.45
125.21
130.56
132.78
135.94
141.44
147.92
152.66
153.31
149.20
141.64
133.25
126.69
123.65
124.46
128.30
133.62
138.60
141.48
140.79
135.52
125.41
111.00
93.52
74.53
55.65
38.26
23.53
12.51
6.13
4.93
8.66
16.00
24.68
32.03
35.87
35.29
30.81
24.10
17.13
11.39
7.33
4.37
1.51
-2.06
-6.40
-10.80
-14.23
-15.95
-15.99
-15.18
-14.69
-15.43
-17.52
-20.31
-22.78
-24.09
-24.07
-23.30
-22.68
-22.95
-24.27
-26.06
-27.32
-27.07
-24.84
-20.81
-15.72
-10.54
-6.03
-2.48
0.26
2.59
4.82
6.97
8.87
10.29
11.22
11.86
12.47
13.18
13.87
14.26
14.15
13.58
12.85
12.35
12.24
12.37
12.35
11.78
10.41
8.25
5.47
2.37
-0.69
-3.33
-5.27
-6.43
-7.10
-7.84
-9.24
-11.57
-14.65
-17.95
-20.94
-23.45
-25.70
-28.01
-30.41
-32.40
-33.08
-31.67
-28.00
-22.67
-16.75
-11.30
-6.84
-3.23
0.07
3.58
7.50
11.56
15.29
18.21
20.07
20.88
20.83
20.19
19.25
18.34
17.74
17.61
17.89
18.25
18.19
17.26
15.27
12.43
9.20
6.08
3.34
0.94
-1.38
-3.87
-6.63
-9.51
-12.29
-14.80
-17.05
-19.25
-21.64
-24.43
-27.75
-31.56
-35.78
-40.16
-44.31
-47.70
-49.80
-50.31
-49.49
-48.17
-47.54
-48.74
-52.41
-58.33
-65.34
-71.65
-75.26
-74.48
-68.30
-56.54
-39.78
-19.20
3.67
27.09
49.28
68.54
83.39
92.81
96.54
95.22
90.36
83.97
77.97
73.58
71.03
69.63
68.21
65.73
61.66
56.18
49.84
43.26
36.79
30.55
24.54
18.84
13.66
9.20
5.51
2.43
-0.34
-3.10
-6.01
-9.05
-12.11
-15.02
-17.58
-19.53
-20.65
-20.78
-19.98
-18.54
-16.88
-15.40
-14.28
-13.43
-12.54
-11.36
-9.85
-8.24
-6.93
-6.30
-6.51
-7.46
-8.81
-10.18
-11.34
-12.24
-12.99
-13.73
-14.49
-15.17
-15.64
-15.87
-16.01
-16.37
-17.22
-18.65
-20.46
-22.25
-23.58
-24.13
-23.88
-23.01
-21.82
-20.65
-19.77
-19.34
-19.46
-20.09
-21.11
-22.36
-23.63
-24.77
-25.66
-26.22
-26.33
-25.80
-24.39
-21.87
-18.15
-13.33
-7.76
-2.00
3.33
7.63
10.57
12.13
12.63
12.63
12.74
13.35
14.56
16.20
18.00
19.77
21.48
23.18
24.91
26.49
27.57
27.78
26.87
24.89
22.16
19.19
16.43
14.19
12.48
11.14
9.86
8.35
6.51
4.40
2.25
0.27
-1.47
-3.07
-4.73
-6.64
-8.84
-11.22
-13.57
-15.72
