1679650184.00
64.000000
-0.00
-0.00
-0.00
-0.00
-0.00
-0.00
-0.00
-0.00
-0.00
-0.00
0.00
0.01
0.01
-0.00
-0.03
-0.05
-0.05
0.00
0.13
0.36
0.66
1.01
1.37
1.72
2.06
2.40
2.79
3.24
3.80
4.42
5.06
5.66
6.20
6.68
7.15
7.68
8.31
9.14
10.09
11.04
11.88
12.56
13.14
13.76
14.65
15.96
17.91
20.32
22.90
25.38
27.58
29.57
31.68
34.32
37.81
42.54
48.15
54.10
59.83
64.97
69.58
74.14
79.34
85.71
93.76
103.00
112.62
121.73
129.77
136.75
143.30
150.75
157.77
166.64
177.95
191.79
206.97
220.57
228.25
225.36
208.53
176.87
132.76
80.05
23.07
-34.94
-92.44
-149.16
-205.23
-260.37
-313.74
-363.87
-409.83
-450.91
-486.50
-515.74
-537.23
-549.22
-549.96
-538.37
-514.21
-478.67
-433.88
-382.45
-327.02
-269.84
-212.63
-156.66
-102.95
-52.37
-5.90
35.58
71.43
101.35
125.50
144.38
158.69
169.15
176.37
180.75
182.57
182.07
179.51
175.23
169.65
163.18
156.15
148.81
141.30
133.69
126.02
118.33
110.69
103.16
95.80
88.68
81.83
75.25
68.95
62.95
57.25
51.86
46.78
42.03
37.59
33.45
29.61
26.07
22.81
19.83
17.11
14.67
12.48
10.54
8.83
7.35
6.07
4.97
4.05
3.27
2.62
2.09
1.65
1.30
1.01
0.79
0.61
0.47
0.37
0.28
0.22
0.18
0.15
0.13
0.12
0.12
0.13
0.15
0.17
0.20
0.23
0.27
0.31
0.35
0.39
0.44
0.48
0.53
0.58
0.64
0.69
0.75
0.81
0.88
0.96
1.04
1.14
1.24
1.36
1.49
1.63
1.80
1.98
2.18
2.41
2.65
2.93
3.23
3.57
3.93
4.33
4.76
5.23
5.74
6.28
6.87
7.49
8.16
8.87
9.63
10.43
11.28
12.17
13.10
14.10
15.15
16.27
17.43
18.67
19.92
21.17
22.35
23.38
24.15
24.55
24.45
23.77
22.40
20.32
17.54
14.13
10.18
5.88
1.42
-2.99
-7.14
-10.84
-13.94
-16.35
-18.01
-18.92
-19.12
-18.72
-17.87
-16.69
-15.34
-13.92
-12.47
-11.01
-9.51
-7.93
-6.29
-4.61
-2.94
-1.30
0.30
1.90
3.52
5.29
7.29
9.40
11.56
13.67
15.64
17.49
19.28
21.20
23.45
26.26
29.44
32.76
35.95
38.79
41.21
43.36
45.53
48.19
51.74
55.86
60.10
63.94
66.93
68.87
69.98
70.77
71.98
74.17
76.81
79.09
79.95
78.36
73.62
65.43
53.61
37.42
20.30
2.95
-14.70
-33.23
-53.35
-75.78
-101.09
-129.37
-159.68
-189.53
-215.72
-234.30
-242.11
-238.20
-224.31
-204.15
-181.91
-160.55
-141.10
-123.53
-107.13
-91.53
-77.04
-64.31
-53.61
-44.55
-36.12
-27.29
-17.75
-7.70
2.31
11.57
19.60
26.24
31.75
36.60
41.41
46.52
51.95
57.38
62.22
65.98
68.49
70.08
71.30
72.47
73.27
72.73
69.55
62.72
51.98
38.06
22.36
6.46
-8.39
-21.45
-32.40
-41.09
-47.33
-50.74
-50.87
-47.47
-40.75
-31.60
-21.50
-12.16
-4.98
-0.53
1.65
2.74
4.07
6.46
9.88
13.67
16.99
19.30
20.61
21.31
21.81
22.32
22.76
22.99
22.95
22.79
22.72
22.96
23.48
24.04
24.28
23.82
22.45
20.15
17.10
13.66
10.29
7.40
5.27
3.85
2.77
1.43
-0.74
-4.01
-8.15
-12.45
-16.06
-18.23
-18.64
-17.46
-15.13
-12.06
-8.37
-3.97
1.20
6.82
12.10
16.01
17.84
17.64
16.23
14.82
14.36
14.98
15.98
16.23
14.86
11.75
7.64
3.59
0.43
-1.68
-3.21
-4.85
-7.04
-9.81
-12.78
-15.42
-17.39
-18.63
-19.39
-20.06
-20.94
-22.10
-23.25
-23.83
-23.23
-21.03
-17.31
-12.76
-8.49
-5.68
-5.01
-6.42
-9.15
-12.09
-14.24
-15.09
-14.68
-13.50
-12.18
-11.25
-11.03
-11.56
-12.72
-14.19
-15.49
-16.11
-15.63
-14.03
-11.84
-10.21
-10.57
-14.19
-21.50
-31.82
-43.22
-53.08
-58.75
-58.29
-51.02
-37.69
-20.27
-1.56
15.59
28.98
37.67
42.02
43.36
43.17
42.45
41.46
39.93
37.51
34.21
30.35
26.40
22.54
18.66
14.43
9.76
4.89
0.42
-3.00
-4.98
-5.44
-4.60
-2.89
-0.81
1.09
2.31
2.56
1.80
0.27
-1.58
-3.34
-4.69
-5.48
-5.68
-5.34
-4.56
-3.54
-2.51
-1.66
-1.02
-0.38
0.63
2.31
4.65
7.22
9.37
10.50
10.44
9.49
8.29
7.45
7.26
7.54
7.78
7.35
5.73
2.66
-1.80
-7.17
-12.55
-16.63
-17.99
-15.61
-9.34
-0.16
10.03
19.05
25.15
27.53
26.55
23.51
20.26
18.55
19.44
22.86
27.51
31.40
32.70
30.57
25.48
18.96
12.77
8.17
5.54
4.71
5.52
8.06
12.59
19.00
26.34
32.86
36.57
35.96
30.57
21.14
9.28
-2.97
-13.76
-21.73
-26.36
-27.90
-27.21
-25.34
-23.25
-21.56
-20.57
-20.40
-21.16
-22.97
-25.88
-29.78
-34.31
-38.95
-43.11
-46.24
-47.96
-48.13
-46.86
-44.57
-41.91
-39.48
-37.57
-35.87
-33.59
-29.67
-23.41
-14.78
-4.58
5.78
14.74
21.11
24.47
25.35
25.00
25.08
27.12
32.07
40.03
50.15
60.91
70.51
77.45
80.85
80.68
77.64
72.87
67.55
62.54
58.21
54.34
50.29
45.19
38.18
28.63
16.43
2.10
-13.10
-27.37
-38.71
-45.51
-46.98
-43.39
-35.89
-26.19
-16.08
-7.09
-0.33
3.47
4.00
1.36
-3.85
-10.62
-17.69
-23.87
-28.31
-30.72
-31.25
-30.39
-28.71
-26.75
-24.97
-23.70
-23.16
-23.45
-24.53
-26.25
-28.34
-30.43
-32.10
-32.82
-32.04
-29.34
-24.57
-17.99
-10.26
-2.34
4.81
10.57
14.77
17.68
19.77
21.45
22.84
23.87
24.42
24.52
24.36
24.16
23.98
23.58
22.53
20.56
17.66
14.26
10.95
8.24
6.33
5.07
4.18
3.43
2.80
2.49
2.75
3.77
5.54
7.87
10.50
13.19
15.75
18.05
19.90
21.07
21.31
20.42
18.42
15.57
12.26
8.90
5.83
3.35
1.73
1.28
2.22
4.49
7.61
10.74
12.98
13.64
12.53
9.90
6.28
2.20
-1.97
-6.02
-9.81
-13.16
-15.85
-17.69
-18.61
-18.73
-18.24
-17.21
-15.42
-12.32
-7.29
0.07
9.51
20.11
30.51
39.44
46.13
50.43
52.54
52.69
50.94
47.32
42.14
36.14
30.40
25.80
22.70
20.69
18.90
16.59
13.67
10.75
8.76
8.36
9.32
10.50
10.25
7.25
1.09
-7.40
-16.59
-24.71
-30.51
-33.60
-34.22
-32.94
-30.34
-26.95
-23.34
-20.09
-17.68
-16.25
-15.50
-14.94
-14.24
-13.58
-13.64
-15.14
-18.44
-23.18
-28.53
-33.77
-38.68
-43.70
-49.50
-56.43
-64.04
-71.16
-76.36
-78.52
-77.30
-73.21
-67.34
-60.97
-55.27
-51.00
-48.46
-47.49
-47.48
-47.60
-47.10
-45.49
-42.68
-38.76
-33.78
-27.59
-19.91
-10.71
-0.37
10.25
20.15
28.68
35.83
42.23
48.87
56.56
65.47
75.04
84.11
91.29
95.34
95.52
91.78
84.91
76.31
67.80
61.02
57.04
55.99
57.05
58.74
59.45
57.97
53.80
47.22
39.10
30.51
22.51
15.88
11.16
8.57
7.96
8.79
10.18
11.06
10.54
8.17
4.13
-0.96
-6.27
-11.10
-15.06
-17.92
-19.62
-20.10
-19.47
-18.06
-16.39
-14.94
-13.84
-12.74
-10.92
-7.70
-2.94
2.81
8.48
12.94
15.57
16.49
16.40
16.20
16.42
17.07
17.58
17.17
15.19
11.46
6.29
0.36
-5.55
-10.85
-15.21
-18.65
-21.32
-23.34
-24.71
-25.34
-25.20
-24.43
-23.39
-22.54
-22.18
-22.35
-22.81
-23.15
-23.07
-22.57
-21.87
-21.39
-21.52
-22.52
-24.43
-27.13
-30.26
-33.30
-35.60
-36.59
-35.92
-33.65
-30.17
-26.05
-21.74
-17.40
-12.90
-7.93
-2.36
3.71
9.85
15.54
20.32
23.94
26.43
28.01
28.90
29.33
29.39
29.21
28.97
28.96
29.50
30.74
32.48
34.19
35.17
34.78
32.80
29.46
25.35
21.22
17.64
14.91
12.99
11.65
10.62
9.59
8.26
6.24
3.00
-2.10
-9.47
-18.94
-29.59
-39.87
-48.12
-53.25
-55.18
-54.70
-53.11
-51.33
-49.63
-47.67
-44.91
-41.15
-36.74
-32.41
-28.88
-26.54
-25.29
-24.75
-24.50
-24.25
-23.79
-23.00
-21.77
-20.04
-17.93
-15.78
-14.02
-13.03
-12.86
-13.16
-13.24
-12.33
-9.83
-5.59
0.10
6.65
13.34
19.46
24.38
27.59
28.71
27.67
24.77
20.68
16.32
12.64
10.35
9.72
10.57
12.29
14.11
15.33
15.58
14.92
13.77
12.71
12.21
12.40
13.08
13.84
14.34
14.47
14.39
14.42
14.84
15.73
16.86
17.80
18.02
17.10
14.87
11.51
7.51
3.54
0.23
-2.00
-3.06
-3.28
-3.28
-3.85
-5.67
-9.21
-14.51
-21.07
-27.97
-33.98
-38.01
-39.39
-38.12
-34.88
-30.76
-26.87
-24.03
-22.53
-22.23
-22.68
-23.41
-24.05
-24.38
-24.38
-24.12
-23.72
-23.40
-23.37
-23.76
-24.53
-25.51
-26.36
-26.67
-26.05
-24.22
-21.10
-16.82
-11.64
-5.97
-0.16
5.63
11.57
17.94
24.90
32.22
39.17
44.82
48.48
50.01
49.95
49.15
48.36
47.84
47.41
46.67
45.36
43.53
41.44
39.29
37.03
34.43
31.21
27.35
23.07
18.73
14.61
10.80
7.18
3.58
-0.06
-3.67
-7.15
-10.50
-13.91
-17.73
-22.22
-27.41
-32.97
-38.31
-42.74
-45.71
-46.97
-46.58
-44.79
-41.88
-38.10
-33.64
-28.63
-23.28
-17.81
-12.46
-7.37
-2.52
2.19
6.87
11.47
15.73
19.25
21.61
22.55
22.11
20.61
18.63
16.80
15.65
15.50
16.39
18.04
19.91
21.30
21.60
20.51
18.19
15.17
12.07
9.34
7.08
5.14
3.38
1.94
1.21
1.55
2.77
3.99
3.72
0.53
-6.35
-16.72
-29.45
-42.98
-55.58
-65.56
-71.39
-71.83
-66.42
-55.82
-41.95
-27.47
-15.08
-6.49
-2.01
-0.71
-1.10
-1.99
-2.90
-4.16
-6.41
-10.06
-14.89
-19.92
-23.74
-25.00
-22.94
-17.65
-10.08
-1.58
6.58
13.63
19.39
24.08
28.05
31.44
34.12
35.86
36.43
35.78
34.05
31.41
27.99
23.82
19.03
14.08
9.84
7.37
7.37
9.63
12.77
14.64
13.22
7.52
-1.88
-13.08
-23.73
-31.98
-37.01
-39.00
-38.63
-36.66
-33.60
-29.94
-26.16
-22.80
-20.22
-18.31
-16.61
-14.55
-11.88
-8.80
-5.90
-3.70
-2.32
-1.41
-0.31
1.51
4.26
7.77
11.56
15.05
17.68
18.98
18.61
16.50
12.86
8.25
3.43
-0.84
-4.02
-5.90
-6.67
-6.88
-7.25
-8.50
-11.06
-14.80
-18.89
-22.05
-22.92
-20.67
-15.37
-8.05
-0.32
6.23
10.58
12.62
13.06
13.05
13.67
15.47
18.35
21.74
25.02
27.86
30.29
32.57
34.74
36.57
37.54
37.34
36.16
34.75
33.98
34.29
35.35
36.16
35.62
33.16
28.98
23.92
19.00
14.93
11.96
10.00
8.79
8.00
7.24
6.08
4.14
1.27
-2.23
-5.60
-7.85
-8.16
-6.25
-2.55
1.95
6.09
9.05
10.59
11.04
11.10
11.39
12.19
13.29
14.07
13.73
11.55
7.19
0.98
-5.97
-11.86
-14.72
-13.17
-7.09
2.12
11.91
19.47
22.76
21.14
15.49
7.69
-0.23
-6.69
-10.95
-13.08
-13.63
-13.23
-12.34
-11.12
-9.51
-7.41
-4.88
-2.19
0.19
1.76
2.20
1.40
-0.50
-3.20
-6.34
-9.56
-12.53
-14.96
-16.58
-17.17
-16.53
-14.60
-11.47
-7.43
-2.97
1.36
5.02
7.66
9.13
9.39
8.58
6.90
4.62
2.12
-0.19
-1.91
-2.79
-2.81
-2.22
-1.40
-0.79
-0.65
-1.04
-1.84
-2.86
-3.94
-5.03
-6.19
-7.49
-8.87
-10.19
-11.32
-12.15
-12.79
-13.42
-14.18
-15.11
-16.13
-17.15
-18.11
-19.03
-19.83
-20.24
-19.74
-17.76
-13.97
-8.55
-2.22
3.90
8.77
11.74
12.77
12.39
11.33
10.28
9.62
9.39
9.49
9.89
10.70
12.06
13.94
15.89
17.10
16.81
14.60
10.79
6.29
2.32
-0.22
-1.11
-0.79
-0.11
0.23
-0.05
-0.71
-1.30
-1.42
-1.08
-0.53
-0.17
-0.26
-0.83
-1.76
-2.96
-4.39
-5.98
-7.47
-8.37
-8.22
-6.87
-4.63
-2.15
-0.01
1.61
3.06
4.87
7.38
10.40
13.21
15.00
15.17
13.66
10.90
7.58
4.42
2.02
0.73
0.62
1.49
2.96
4.60
6.16
7.59
8.95
10.29
11.44
12.03
11.68
10.19
7.82
5.21
3.23
2.59
3.65
6.27
9.97
14.12
18.14
21.67
24.47
26.38
27.29
27.07
25.65
22.97
18.98
13.70
7.21
-0.24
-8.19
-15.87
-22.46
-27.19
-29.66
-29.98
-28.85
-27.30
-26.29
-26.40
-27.51
-28.92
-29.62
-28.90
-26.60
-23.20
-19.55
-16.33
-13.75
-11.47
-8.89
-5.48
-1.12
3.78
8.35
11.56
12.60
11.21
7.82
3.45
-0.59
-3.21
-3.95
-3.04
-1.10
1.24
3.69
6.31
9.31
12.64
15.92
18.50
19.77
19.46
17.67
14.84
11.58
8.52
6.27
5.41
6.41
9.49
14.44
20.47
26.26
30.26
31.19
28.50
22.60
14.74
6.48
-0.86
-6.57
-10.62
-13.34
-15.08
-15.97
-15.98
-15.07
-13.36
-11.13
-8.64
-5.98
-3.06
0.25
3.98
7.84
11.36
13.98
15.29
15.13
13.65
11.32
8.88
7.17
6.85
8.20
10.87
13.93
16.22
16.70
14.96
11.34
6.80
2.46
-0.80
-2.66
-3.39
-3.57
-3.93
-5.03
-7.27
-10.65
-14.85
-19.07
-22.09
-22.56
-19.38
-12.23
-1.86
10.04
21.30
29.90
34.56
34.93
31.47
25.15
17.08
8.26
-0.50
-8.57
-15.50
-20.92
-24.62
-26.56
-26.87
-25.96
-24.47
-23.12
-22.49
-22.81
-23.83
-24.91
-25.34
-24.64
-22.84
-20.33
-17.62
-14.98
-12.36
-9.48
-6.24
-2.99
-0.52
0.21
-1.40
-5.22
-10.50
-16.13
-21.12
-24.87
-27.16
-27.92
-27.09
-24.58
-20.41
-14.99
-9.01
-3.42
1.05
4.10
5.94
7.11
8.12
9.31
10.73
12.34
14.12
16.16
18.47
20.73
22.16
21.63
18.08
10.99
0.73
-11.54
-24.22
-35.74
-44.93
-51.08
-53.93
-53.59
-50.52
-45.55
-39.75
-34.22
-29.68
-26.25
-23.34
-20.07
-15.64
-9.77
-2.80
4.47
11.22
16.79
20.94
23.82
25.81
27.45
29.29
31.76
35.06
39.11
43.53
47.80
51.42
54.04
55.45
55.56
54.36
51.92
48.51
44.57
40.63
37.00
33.66
30.14
25.82
20.38
13.97
7.30
1.29
-3.35
-6.35
-7.96
-8.70
-9.11
-9.56
-10.26
-11.27
-12.61
-14.21
-16.00
-17.82
-19.59
-21.37
-23.39
-25.90
-29.03
-32.63
-36.30
-39.55
-41.93
-43.17
-43.16
-41.98
-39.79
-36.90
-33.66
-30.46
-27.63
-25.35
-23.59
-22.17
-20.94
-19.71
-18.39
-16.90
-15.23
-13.45
-11.77
-10.46
-9.78
-9.83
-10.38
-10.92
-10.67
-8.86
-4.88
1.41
9.57
18.58
27.02
33.45
36.84
36.90
34.14
29.57
24.30
19.18
14.58
10.55
7.03
4.06
1.74
0.20
-0.64
-1.16
-1.94
-3.57
-6.35
-10.19
-14.55
-18.61
-21.52
-22.72
-22.25
-20.69
-19.10
-18.56
-19.75
-22.64
-26.50
-30.21
-32.69
-33.36
-32.20
-29.61
-26.02
-21.63
-16.26
-9.60
-1.46
7.96
18.01
27.80
36.45
43.32
48.09
50.57
50.67
48.27
43.41
36.46
28.24
19.91
12.70
7.52
4.64
3.68
3.84
4.23
4.29
3.93
3.46
3.28
3.65
4.54
5.60
6.45
6.76
6.43
5.55
4.33
2.99
1.74
0.80
0.40
0.76
1.94
3.83
6.12
8.38
10.18
11.25
11.43
10.70
9.10
6.76
3.97
1.20
-0.93
-1.80
-1.07
1.17
4.36
7.70
10.41
12.00
12.42
11.94
11.03
10.24
10.02
10.62
12.00
13.81
15.47
16.48
16.60
15.97
15.00
14.12
13.50
12.96
12.19
10.99
9.52
8.27
7.76
8.26
9.52
10.91
11.68
11.36
9.92
7.73
5.32
3.12
1.25
-0.45
-2.30
-4.63
-7.67
-11.62
-16.61
-22.68
-29.54
-36.56
-42.83
-47.41
-49.75
-49.82
-48.16
-45.63
-43.08
-41.10
-39.92
-39.52
-39.70
-40.24
-40.86
-41.29
-41.22
-40.29
-38.22
-34.84
-30.20
-24.55
-18.36
-12.18
-6.44
-1.38
3.01
6.92
10.57
14.10
17.52
20.84
24.05
27.23
30.37
33.28
35.55
36.60
35.87
33.13
28.53
22.68
16.48
10.90
6.70
4.25
3.51
4.08
5.41
7.03
8.61
10.04
11.25
12.19
12.70
12.63
11.96
10.93
9.92
9.29
9.18
9.39
9.49
9.04
7.85
6.10
4.24
2.78
2.02
2.00
2.47
3.07
3.47
3.49
3.11
2.42
1.57
0.70
-0.06
-0.61
-0.90
-0.95
-0.85
-0.78
-0.93
-1.42
-2.29
-3.55
-5.14
-7.11
-9.58
-12.64
-16.24
-20.16
-23.91
-26.81
-28.16
-27.38
-24.18
-18.70
-11.53
-3.69
3.60
9.28
12.71
13.88
13.36
11.98
10.57
9.62
9.27
9.38
9.70
10.04
10.29
10.41
10.41
10.31
10.20
10.18
10.38
10.84
11.54
12.33
13.01
13.30
12.88
11.48
8.90
5.22
0.88
-3.38
-6.63
-8.16
-7.73
-5.66
-2.77
0.06
2.15
3.31
3.76
3.96
4.24
4.66
5.00
4.84
3.76
1.53
-1.80
-5.79
-9.72
-12.63
-13.67
-12.29
-8.57
-3.19
2.78
8.20
12.33
15.06
16.79
18.23
20.00
22.34
25.03
27.45
28.88
28.70
26.64
22.86
17.84
12.28
6.87
2.21
-1.31
-3.53
-4.55
-4.68
-4.34
-3.93
-3.70
-3.64
-3.53
-3.11
-2.28
-1.20
-0.14
0.66
1.20
1.73
2.53
3.67
4.85
5.56
5.35
4.15
2.34
0.62
-0.42
-0.55
0.02
0.74
1.05
0.59
-0.65
-2.44
-4.43
-6.31
-7.87
-9.01
-9.76
-10.21
-10.51
-10.73
-10.85
-10.76
-10.29
-9.31
-7.79
-5.81
-3.53
-1.13
1.15
3.12
4.59
5.41
5.54
5.11
4.37
3.69
3.40
3.62
4.26
4.99
5.45
5.44
5.03
4.52
4.26
4.42
4.85
5.19
5.08
4.40
3.37
2.45
2.06
2.30
2.87
3.28
3.06
2.04
0.39
-1.51
-3.26
-4.64
-5.63
-6.27
-6.67
-6.94
-7.17
-7.59
-8.39
-9.72
-11.57
-13.72
-15.88
-17.75
-19.20
-20.24
-20.99
-21.57
-21.96
-22.00
-21.48
-20.23
-18.33
-16.14
-14.17
-12.92
-12.60
-13.01
-13.58
-13.57
-12.41
-9.90
-6.37
-2.48
0.90
3.09
3.79
3.27
2.30
1.92
3.03
6.03
10.58
15.64
19.82
21.91
21.25
17.98
12.92
7.22
1.93
-2.21
-4.91
-6.23
-6.44
-5.82
-4.59
-3.01
-1.40
-0.16
0.30
-0.23
-1.67
-3.58
-5.38
-6.57
-7.02
-6.99
-6.93
-7.18
-7.70
-8.13
-7.89
-6.58
-4.07
-0.61
3.36
7.33
10.87
13.65
15.50
16.43
16.65
16.48
16.28
16.32
16.69
17.35
18.19
19.07
19.92
20.65
21.18
21.41
21.22
20.46
18.98
16.59
13.13
8.65
3.44
-1.95
-6.87
-10.75
-13.30
-14.57
-14.82
-14.40
-13.57
-12.46
-11.15
-9.73
-8.39
-7.40
-7.08
-7.63
-9.12
-11.40
-14.16
-16.94
-19.27
-20.74
-21.16
-20.63
-19.51
-18.20
-16.95
-15.74
-14.31
-12.38
-9.84
-6.91
-3.97
-1.44
0.41
1.66
2.56
3.45
4.59
6.14
8.13
10.46
12.95
15.29
17.09
17.96
17.72
16.45
14.50
12.36
10.42
8.87
7.71
6.81
6.14
5.73
5.72
6.20
7.08
8.10
8.88
9.15
8.82
7.99
6.89
5.79
4.81
3.95
3.03
1.87
0.33
-1.59
-3.65
-5.55
-7.00
-7.87
-8.29
-8.48
-8.71
-9.04
-9.33
-9.35
-8.91
-8.03
-6.89
-5.82
-5.06
-4.74
-4.83
-5.26
-5.91
-6.63
-7.19
-7.34
-6.86
-5.63
-3.78
-1.54
0.75
2.82
4.52
5.82
6.77
7.48
7.97
8.25
8.26
7.96
7.31
6.42
5.41
4.49
3.79
3.29
2.84
2.21
1.23
-0.09
-1.54
-2.85
-3.79
-4.26
-4.37
-4.37
-4.46
-4.79
-5.42
-6.34
-7.54
-9.01
-10.69
-12.42
-13.95
-14.94
-15.15
-14.54
-13.31
-11.85
-10.61
-9.87
-9.69
-9.88
-10.08
-9.94
-9.30
-8.23
-6.98
-5.92
-5.30
-5.17
-5.28
-5.25
-4.63
-3.17
-0.88
1.92
4.68
6.77
7.63
6.86
4.37
0.41
-4.40
-9.25
-13.30
-15.98
-17.18
-17.19
-16.50
-15.56
-14.57
-13.49
-12.25
-10.89
-9.68
-8.99
-9.09
-9.97
-11.25
-12.31
-12.58
-11.79
-10.17
-8.32
-7.02
-6.76
-7.49
-8.57
-8.96
-7.68
-4.23
1.23
7.95
14.89
21.02
25.53
27.81
27.49
24.48
19.15
12.40
5.55
-0.07
-3.55
-4.76
-4.33
-3.28
-2.47
-2.23
-2.29
-2.09
-1.20
0.36
2.19
3.83
5.05
5.94
6.67
7.32
7.72
7.55
6.69
5.35
4.02
3.18
3.07
3.57
4.47
5.74
7.67
10.67
14.85
19.80
24.59
28.26
30.28
30.72
30.12
29.09
27.89
26.48
24.72
22.79
21.22
20.69
21.62
23.81
26.44
28.51
29.33
28.81
27.54
26.35
25.93
26.56
28.07
30.08
32.19
34.12
35.71
36.81
37.37
37.39
37.02
36.39
35.46
33.75
30.39
24.48
15.54
4.12
-8.20
-19.16
-26.67
-29.59
-28.15
-23.78
-18.54
-14.35
-12.55
-13.64
-17.39
-22.97
-29.17
-34.57
-37.86
-38.15
-35.22
-29.61
-22.47
-15.13
-8.82
-4.36
-2.07
-1.80
-2.98
-4.78
-6.30
-6.92
-6.51
-5.50
-4.70
-4.90
-6.46
-9.07
-11.86
-13.73
-13.83
-11.90
-8.35
-4.15
-0.46
1.75
1.95
0.15
-3.18
-7.30
-11.45
-14.98
-17.51
-18.94
-19.46
-19.42
-19.22
-19.18
-19.45
-19.97
-20.60
-21.12
-21.31
-20.98
-19.94
-18.12
-15.63
-12.80
-10.12
-8.04
-6.83
-6.41
-6.52
-6.83
-7.13
-7.35
-7.51
-7.56
-7.36
-6.75
-5.67
-4.19
-2.47
-0.66
1.16
2.98
4.72
6.14
6.98
6.99
6.18
4.82
3.37
2.24
1.67
1.66
2.02
2.57
3.19
3.81
4.37
4.71
4.57
3.65
1.82
-0.84
-4.02
-7.25
-10.10
-12.28
-13.76
-14.74
-15.57
-16.63
-18.25
-20.64
-23.83
-27.62
-31.55
-34.86
-36.68
-36.30
-33.47
-28.55
-22.41
-16.09
-10.42
-5.74
-1.91
1.39
4.34
6.87
8.75
9.86
10.41
10.94
12.07
14.18
17.24
20.83
24.32
27.09
28.71
28.94
27.77
25.43
22.31
19.01
16.11
14.08
13.09
12.99
13.38
13.90
14.31
14.61
14.87
15.11
15.14
14.65
13.39
11.41
9.21
7.58
7.26
8.58
11.18
14.22
16.68
17.85
17.54
16.12
14.25
12.53
11.38
10.92
11.16
12.07
13.52
15.23
16.71
17.29
16.33
13.46
8.79
2.98
-3.01
-8.13
-11.59
-13.06
-12.71
-11.15
-9.24
-7.80
-7.38
-8.05
-9.39
-10.64
-11.08
-10.36
-8.64
-6.54
-4.79
-3.92
-4.05
-4.89
-6.02
-7.02
-7.67
-7.93
-7.91
-7.81
-7.86
-8.33
-9.44
-11.27
-13.67
-16.27
-18.56
-20.04
-20.36
-19.47
-17.58
-15.06
-12.32
-9.70
-7.32
-5.14
-3.01
-0.79
1.55
3.89
6.02
7.74
8.89
9.43
9.40
8.91
8.11
7.30
6.80
6.95
7.88
9.47
11.33
12.95
13.92
14.07
13.56
12.71
11.88
11.25
10.80
10.37
9.79
9.01
8.13
7.28
6.57
5.94
5.22
4.22
2.88
1.36
-0.05
-1.02
-1.40
-1.36
-1.27
-1.56
-2.49
-4.01
-5.85
-7.65
-9.18
-10.36
-11.23
-11.88
-12.27
-12.33
-11.96
-11.18
-10.12
-9.03
-8.11
-7.52
-7.30
-7.36
-7.57
-7.74
-7.77
-7.56
-7.14
-6.58
-5.97
-5.30
-4.50
-3.45
-2.07
-0.46
1.17
2.50
3.32
3.60
3.52
3.39
3.43
3.66
3.95
4.11
4.03
3.79
3.56
3.55
3.78
4.13
4.39
4.42
4.16
3.62
2.81
1.60
-0.14
-2.46
-5.22
-8.05
-10.54
-12.30
-13.18
-13.18
-12.48
-11.27
-9.69
-7.85
-5.84
-3.77
-1.81
-0.14
1.09
1.76
1.88
1.53
0.97
0.46
0.24
0.41
0.91
1.55
2.14
2.55
2.79
2.94
3.11
3.34
3.60
3.74
3.63
3.18
2.43
1.52
0.66
0.02
-0.34
-0.53
-0.75
-1.20
-1.95
-2.92
-3.90
-4.66
-5.08
-5.22
-5.22
-5.31
-5.64
-6.30
-7.30
-8.56
-9.97
-11.34
-12.46
-13.14
-13.25
-12.69
-11.49
-9.73
-7.60
-5.36
-3.26
-1.55
-0.30
0.53
1.13
1.71
2.41
3.20
3.97
4.64
5.15
5.59
6.05
6.60
7.16
7.66
8.01
8.22
8.36
8.51
8.66
8.69
8.49
8.01
7.36
6.76
6.37
6.24
6.25
6.20
5.94
5.42
4.66
3.77
2.83
1.95
1.23
0.68
0.27
-0.14
-0.78
-1.78
-3.13
-4.66
-6.16
-7.43
-8.49
-9.48
-10.59
-11.89
-13.26
-14.43
-15.13
-15.12
-14.30
-12.66
-10.31
-7.50
-4.57
-1.95
-0.08
0.83
0.78
0.08
-0.82
-1.49
-1.63
-1.11
-0.07
1.33
2.81
4.11
5.01
5.47
5.58
5.59
5.82
6.48
7.58
8.88
10.04
10.70
10.67
9.95
8.73
7.26
5.77
4.45
3.39
2.61
2.14
1.96
2.02
2.23
2.43
2.42
2.06
1.28
0.12
-1.19
-2.43
-3.43
-4.26
-5.14
-6.35
-8.06
-10.18
-12.36
-14.16
-15.27
-15.55
-15.11
-14.09
-12.67
-10.89
-8.81
-6.55
-4.33
-2.41
-0.97
-0.04
0.54
0.99
1.49
2.19
3.12
4.26
5.55
6.87
8.08
8.99
9.47
9.51
9.29
9.05
9.00
9.24
9.67
10.08
10.29
10.29
10.18
10.14
10.29
10.56
10.71
10.46
9.62
8.19
6.42
4.63
3.15
2.12
1.49
1.07
0.58
-0.17
-1.25
-2.62
-4.12
-5.58
-6.89
-8.05
-9.12
-10.23
-11.40
-12.57
-13.50
-13.84
-13.32
-11.78
-9.32
-6.23
-2.97
-0.00
2.30
3.67
4.07
3.58
2.52
1.45
1.06
2.04
4.86
9.46
15.39
21.75
27.60
32.18
35.10
36.34
36.15
34.91
33.03
30.81
28.46
26.06
23.66
21.47
20.07
20.38
23.38
29.64
38.84
49.67
60.09
67.92
71.45
69.75
62.75
51.00
35.48
17.49
-1.53
-20.07
-36.81
-50.84
-61.73
-69.46
-74.29
-76.50
-76.47
-74.69
-71.81
-68.57
-65.64
-63.40
-61.86
-60.72
-59.58
-58.09
-56.07
-53.53
-50.61
-47.51
-44.43
-41.56
-38.97
-36.62
-34.34
-31.94
-29.27
-26.28
-23.03
-19.67
-16.30
-12.94
-9.54
-6.06
-2.60
0.65
3.43
5.56
7.05
8.06
8.88
9.69
10.56
11.31
11.72
11.65
11.13
10.39
9.72
9.29
9.14
9.19
9.37
9.71
10.31
11.20
12.31
13.39
14.15
14.40
14.10
13.29
12.03
10.27
8.01
5.34
2.60
0.33
-1.02
-1.26
-0.63
0.39
1.34
1.97
2.34
2.68
3.17
3.79
4.35
4.57
4.29
3.59
2.69
1.93
1.56
1.70
2.35
3.41
4.79
6.37
8.10
9.83
11.32
12.36
12.75
12.50
11.82
10.97
10.17
9.48
8.77
7.86
6.59
5.01
3.31
1.73
0.54
-0.17
-0.48
-0.57
-0.72
-1.15
-1.98
-3.23
-4.83
-6.69
-8.70
-10.75
-12.73
-14.50
-15.87
-16.70
-16.87
-16.35
-15.11
-13.20
-10.69
-7.66
-4.28
-0.73
2.81
6.17
9.13
11.50
13.11
13.94
14.12
13.92
13.64
13.41
13.16
12.62
11.47
9.50
6.80
3.63
0.39
-2.58
-5.00
-6.74
-7.67
-7.81
-7.20
-6.07
-4.73
-3.38
-2.01
-0.29
2.37
6.56
12.59
20.15
28.32
35.75
41.09
43.49
42.87
39.90
35.79
31.85
29.21
28.53
29.77
32.07
33.73
32.60
26.77
15.42
-0.52
-18.45
-34.69
-45.82
-49.80
-46.56
-37.76
-25.91
-13.43
-1.98
7.66
15.36
21.19
25.25
27.75
29.04
29.82
30.92
33.13
36.77
41.42
45.84
48.21
46.70
40.12
28.44
12.93
-4.10
-20.08
-32.94
-41.62
-46.20
-47.50
-46.58
-44.37
-41.46
-38.27
-35.19
-32.61
-30.86
-30.06
-30.10
-30.74
-31.72
-32.90
-34.24
-35.70
-37.11
-38.15
-38.37
-37.38
-35.00
-31.32
-26.75
-21.82
-17.08
-12.88
-9.34
-6.40
-3.89
-1.66
0.41
2.37
4.28
6.18
8.08
9.97
11.77
13.38
14.73
15.86
16.85
17.82
18.82
19.74
20.29
20.11
18.90
16.51
13.08
9.02
4.93
1.40
-1.16
-2.61
-3.22
-3.42
-3.75
-4.53
-5.81
-7.37
-8.92
-10.24
-11.27
-12.14
-13.00
-13.92
-14.79
-15.45
-15.74
-15.61
-15.04
-14.02
-12.47
-10.28
-7.43
-4.06
-0.52
2.74
5.28
6.92
7.78
8.17
8.45
8.90
9.61
10.53
11.61
12.73
13.82
14.75
15.40
15.73
15.78
15.69
15.62
15.70
15.95
16.26
16.48
16.43
15.93
14.81
13.00
10.61
7.98
5.59
3.89
3.05
2.84
2.70
2.02
0.42
-2.02
-4.82
-7.38
-9.29
-10.50
-11.34
-12.24
-13.48
-15.05
-16.66
-17.95
-18.67
-18.93
-19.03
-19.42
-20.37
-21.82
-23.40
-24.55
-24.55
-23.04
-20.29
-17.01
-14.01
-11.98
-11.50
-13.09
-16.96
-22.44
-28.03
-32.07
-33.28
-31.43
-27.76
-24.78
-25.51
-32.16
-44.37
-59.81
-75.20
-87.39
-93.98
-93.88
-87.61
-77.14
-65.05
-51.58
-36.76
-21.86
-9.68
-3.26
-4.70
-14.80
-33.22
-58.44
-83.62
-102.62
-113.34
-117.51
-116.96
-111.31
-98.51
-77.39
-49.21
-10.63
38.76
94.25
148.00
195.06
236.21
275.76
318.01
365.91
430.55
520.48
635.17
763.85
891.30
1003.34
1088.98
1141.93
1102.70
945.57
699.16
432.22
204.24
37.51
-74.19
-146.88
-194.69
-225.18
-236.08
-224.07
-193.52
-156.61
-125.68
-107.36
-102.56
-109.22
-122.55
-132.32
-131.32
-120.21
-106.40
-97.76
-98.13
-107.16
-122.18
-140.24
-154.99
-161.90
-161.41
-158.11
-156.89
-160.60
-169.34
-181.61
-195.69
-208.73
-219.07
-227.30
-235.33
-244.14
-254.14
-263.59
-269.54
-269.65
-262.88
-250.27
-234.49
-218.48
-204.36
-196.05
-194.93
-199.23
-205.45
-210.81
-214.19
-215.69
-215.88
-215.27
-219.27
-230.54
-247.28
-264.96
-280.03
-291.34
-299.47
-305.39
-309.99
-320.52
-340.56
-367.39
-393.94
-413.57
-422.66
-420.61
-408.99
-349.39
-232.29
-80.33
68.01
186.05
267.80
319.62
350.98
370.26
383.77
389.46
386.22
378.34
371.15
366.41
361.36
351.49
333.96
309.24
275.52
234.43
190.58
150.08
116.31
88.94
66.17
46.95
31.73
18.45
6.35
-3.60
-9.73
-11.41
-9.42
-5.15
0.21
5.74
9.16
9.11
6.04
1.70
-1.86
-3.02
-0.77
4.82
12.26
18.27
19.51
14.26
3.27
-10.54
-23.28
-31.55
-33.77
-30.54
-23.95
-16.31
-9.10
-2.78
2.82
7.75
11.67
14.07
14.80
14.36
13.77
13.98
15.33
17.28
18.58
17.78
13.77
6.19
-4.45
-16.83
-29.24
-39.92
-47.55
-51.51
-51.98
-49.71
-45.64
-40.61
-35.13
-29.52
-24.06
-19.17
-15.30
-12.75
-11.38
-10.57
-9.48
-7.34
-3.83
0.84
6.06
11.13
15.54
19.05
21.64
23.37
24.27
24.38
23.87
23.04
22.31
22.06
22.47
23.47
24.81
26.11
27.10
27.63
27.72
27.45
26.96
26.33
25.57
24.68
23.61
22.29
20.65
18.61
16.15
13.33
10.29
7.24
4.34
1.68
-0.85
-3.45
-6.36
-9.69
-13.32
-16.90
-19.94
-21.99
-22.77
-22.26
-20.65
-18.26
-15.41
-12.34
-9.26
-6.28
-3.53
-1.10
0.93
2.53
3.71
4.52
5.04
5.35
5.54
5.71
5.94
6.29
6.83
7.55
8.45
9.45
10.46
11.32
11.88
12.01
11.64
10.82
9.68
8.43
7.26
6.26
5.40
4.51
3.37
1.80
-0.30
-2.88
-5.79
-8.80
-11.69
-14.20
-16.07
-17.07
-17.03
-15.84
-13.52
-10.27
-6.44
-2.44
1.27
4.34
6.57
7.93
8.58
8.75
8.72
8.76
9.00
9.56
10.42
11.55
12.85
14.20
15.48
16.55
17.30
17.65
17.51
16.89
15.77
14.17
12.14
9.75
7.11
4.39
1.80
-0.51
-2.49
-4.24
-5.99
-7.95
-10.19
-12.57
-14.75
-16.28
-16.82
-16.18
-14.44
-11.86
-8.81
-5.63
-2.56
0.27
2.77
4.87
6.47
7.47
7.82
7.67
7.26
6.96
7.09
7.76
8.89
10.28
11.74
13.11
14.37
15.48
16.41
17.05
17.26
16.98
16.22
15.07
13.64
12.04
10.31
8.50
6.63
4.69
2.65
0.39
-2.22
-5.18
-8.33
-11.26
-13.45
-14.43
-13.96
-12.13
-9.34
-6.06
-2.71
0.48
3.47
6.32
9.06
11.60
13.77
15.38
16.35
16.76
16.82
16.88
17.19
17.87
18.87
19.99
20.99
21.75
22.26
22.64
22.99
23.36
23.72
23.94
23.91
23.52
22.76
21.66
20.28
18.71
16.97
15.01
12.69
9.86
6.44
2.51
-1.67
-5.70
-9.21
-11.95
-13.75
-14.63
-14.64
-13.85
-12.44
-10.68
-8.90
-7.43
-6.49
-6.14
-6.35
-7.05
-8.18
-9.65
-11.26
-12.67
-13.49
-13.39
-12.31
-10.50
-8.37
-6.32
-4.57
-3.12
-1.82
-0.53
0.80
2.06
3.09
3.78
4.11
4.12
3.93
3.62
3.14
2.38
1.19
-0.50
-2.59
-4.72
-6.43
-7.24
-6.88
-5.34
-2.93
-0.05
2.83
5.40
7.48
8.97
9.82
9.96
9.42
8.31
6.96
5.78
5.17
5.35
6.30
7.78
9.42
10.93
12.15
13.10
13.88
14.61
15.30
15.84
16.07
15.81
14.94
13.46
11.46
9.17
6.83
4.64
2.74
1.09
-0.40
-1.89
-3.52
-5.34
-7.28
-9.13
-10.55
-11.22
-10.90
-9.51
-7.20
-4.31
-1.23
1.63
4.04
5.85
7.05
7.69
7.86
7.72
7.41
7.12
6.99
7.06
7.33
7.75
8.27
8.83
9.40
9.96
10.49
10.95
11.30
11.45
11.35
10.97
10.37
9.65
8.98
8.44
8.04
7.71
7.33
6.81
6.12
5.22
4.08
2.63
0.80
-1.38
-3.73
-5.92
-7.55
-8.29
-7.98
-6.72
-4.86
-2.84
-1.10
0.09
0.69
0.87
0.89
0.95
1.13
1.33
1.43
1.29
0.90
0.36
-0.13
-0.34
-0.12
0.56
1.59
2.76
3.83
4.64
5.16
5.49
5.74
5.97
6.20
6.36
6.41
6.36
6.28
6.26
6.36
6.63
7.05
7.59
8.14
8.55
8.61
8.13
7.02
5.28
3.14
0.90
-1.08
-2.52
-3.21
-3.09
-2.16
-0.55
1.56
4.01
6.62
9.20
11.54
13.43
14.61
14.86
14.10
12.41
9.98
7.11
4.06
1.06
-1.71
-4.07
-5.81
-6.73
-6.77
-6.03
-4.87
-3.79
-3.22
-3.39
-4.16
-5.15
-5.88
-6.00
-5.46
-4.49
-3.43
-2.62
-2.24
-2.29
-2.71
-3.36
-4.18
-5.06
-5.90
-6.61
-7.18
-7.69
-8.36
-9.43
-11.00
-13.04
-15.29
-17.36
-18.86
-19.46
-18.99
-17.41
-14.83
-11.50
-7.81
-4.18
-1.02
1.45
3.18
4.29
4.94
5.31
5.51
5.64
5.85
6.28
7.07
8.28
9.88
11.71
13.56
15.24
16.56
17.37
17.61
17.33
16.62
15.65
14.55
13.40
12.20
10.96
9.76
8.64
7.64
6.67
5.59
4.22
2.51
0.58
-1.35
-3.05
-4.40
-5.45
-6.34
-7.20
-8.09
-9.02
-9.97
-11.00
-12.19
-13.59
-15.17
-16.75
-18.03
-18.68
-18.47
-17.30
-15.37
-13.00
-10.57
-8.41
-6.70
-5.49
-4.68
-4.18
-3.89
-3.68
-3.39
-2.94
-2.23
-1.29
-0.28
0.55
1.01
1.08
0.97
1.10
1.97
3.92
7.07
11.14
15.61
19.86
23.40
26.01
27.78
28.96
29.87
30.70
31.48
32.20
32.91
33.80
35.10
37.00
39.53
42.52
45.65
48.48
50.55
51.40
50.60
47.89
43.21
36.84
29.40
21.79
15.14
10.55
8.75
9.87
13.25
17.58
21.28
23.05
22.29
19.36
15.28
11.33
8.49
7.28
7.71
9.53
12.38
15.91
19.81
23.80
27.66
31.24
34.41
37.02
38.87
39.80
39.66
38.45
36.16
32.76
28.14
22.26
15.26
7.53
-0.43
-8.31
-16.21
-24.60
-33.93
-44.17
-54.49
-63.39
-69.38
-71.68
-70.66
-67.71
-64.75
-63.35
-64.27
-67.31
-71.68
-76.47
-81.02
-84.97
-88.05
-89.86
-89.88
-87.72
-83.44
-77.68
-71.56
-66.15
-62.05
-59.17
-56.76
-53.94
-50.06
-45.00
-39.12
-33.03
-27.21
-21.96
-17.30
-13.10
-9.22
-5.55
-2.08
1.16
4.09
6.67
8.93
10.94
12.84
14.73
16.56
18.12
19.10
19.24
18.54
17.26
15.89
14.83
14.24
13.97
13.68
13.16
12.42
11.77
11.50
11.67
11.99
11.95
11.18
9.66
7.79
6.04
4.63
3.26
1.26
-2.04
-6.86
-12.79
-19.00
-24.59
-29.04
-32.32
-34.76
-36.83
-38.79
-40.71
-42.52
-44.13
-45.53
-46.67
-47.39
-47.44
-46.60
-44.87
-42.58
-40.36
-38.89
-38.58
-39.42
-40.96
-42.53
-43.56
-43.73
-42.96
-41.36
-39.06
-36.16
-32.76
-28.92
-24.76
-20.40
-15.95
-11.57
-7.44
-3.74
-0.63
1.80
3.54
4.71
5.50
6.18
7.08
8.51
10.69
13.66
17.25
21.06
24.66
27.65
29.81
31.18
31.93
32.32
32.59
32.84
32.97
32.69
31.65
29.56
26.40
22.41
18.01
13.58
9.32
5.27
1.33
-2.49
-6.07
-9.19
-11.70
-13.58
-14.96
-15.98
-16.65
-16.85
-16.31
-14.91
-12.74
-10.10
-7.34
-4.81
-2.72
-1.17
-0.21
0.16
0.08
-0.15
-0.16
0.37
1.48
2.84
3.93
4.23
3.47
1.73
-0.69
-3.47
-6.34
-9.09
-11.47
-13.14
-13.69
-12.85
-10.66
-7.53
-4.11
-1.07
1.08
2.19
2.32
1.60
0.13
-2.16
-5.44
-9.83
-15.20
-21.09
-26.72
-31.18
-33.67
-33.73
-31.43
-27.33
-22.22
-16.88
-11.85
-7.35
-3.33
0.30
3.54
6.30
8.40
9.80
10.65
11.32
12.16
13.41
14.99
16.62
18.00
19.05
19.90
20.86
22.20
23.91
25.72
27.26
28.27
28.79
29.15
29.68
30.58
31.71
32.75
33.29
33.06
32.06
30.51
28.90
27.79
27.78
29.29
32.34
36.48
40.79
44.09
45.37
44.04
40.22
34.62
28.36
22.57
18.04
15.09
13.58
13.10
13.14
13.32
13.36
13.14
12.55
11.54
10.11
8.41
6.73
5.46
4.87
5.00
5.59
6.13
6.03
4.81
2.25
-1.58
-6.40
-11.77
-17.24
-22.30
-26.51
-29.49
-31.00
-31.07
-29.95
-28.03
-25.68
-23.06
-20.20
-17.06
-13.72
-10.50
-7.84
-6.11
-5.37
-5.32
-5.44
-5.19
-4.24
-2.54
-0.27
2.32
4.97
7.47
9.64
11.37
12.62
13.48
14.18
14.99
16.16
17.81
19.92
22.25
24.31
25.41
24.77
21.80
16.31
8.73
-0.02
-8.80
-16.61
-22.94
-27.77
-31.47
-34.39
-36.73
-38.38
-39.07
-38.57
-36.84
-34.10
-30.79
-27.38
-24.19
-21.34
-18.83
-16.61
-14.75
-13.38
-12.64
-12.55
-12.94
-13.44
-13.70
-13.51
-12.91
-12.16
-11.58
-11.37
-11.52
-11.85
-12.08
-12.02
-11.63
-11.03
-10.46
-10.15
-10.30
-11.03
-12.40
-14.33
-16.69
-19.28
-22.08
-25.25
-29.13
-33.93
-39.47
-45.00
-49.38
-51.51
-50.75
-47.12
-41.19
-33.72
-25.41
-16.83
-8.44
-0.72
5.95
11.45
16.06
20.38
25.04
30.37
36.22
42.11
47.49
52.07
55.88
59.15
62.16
64.98
67.41
69.06
69.54
68.65
66.44
63.25
59.50
55.54
51.61
47.80
44.13
40.67
37.49
34.65
32.09
29.68
27.28
24.79
22.22
19.55
16.66
13.40
9.53
4.98
-0.23
-5.95
-12.03
-18.35
-24.67
-30.60
-35.56
-39.02
-40.61
-40.40
-38.74
-36.08
-32.68
-28.52
-23.37
-16.99
-9.36
-0.66
8.68
18.10
26.90
34.29
39.60
42.47
43.15
42.38
41.19
40.44
40.46
41.08
41.90
42.61
43.21
43.94
44.94
46.08
46.90
46.96
46.11
44.69
43.30
42.47
42.28
42.29
41.76
40.05
36.89
32.56
27.70
23.09
19.47
17.35
16.94
18.09
20.29
22.59
23.88
23.18
20.07
14.94
8.85
3.11
-1.39
-4.57
-7.06
-9.76
-13.24
-17.40
-21.62
-25.22
-27.86
-29.65
-30.85
-31.52
-31.32
-29.74
-26.56
-22.20
-17.67
-14.12
-12.38
-12.58
-14.24
-16.59
-18.95
-20.95
-22.52
-23.82
-25.13
-26.76
-28.94
-31.71
-34.70
-37.21
-38.31
-37.18
-33.43
-27.37
-19.95
-12.53
-6.43
-2.64
-1.55
-2.89
-5.94
-9.71
-13.20
-15.59
-16.37
-15.34
-12.67
-8.73
-4.12
0.54
4.69
7.93
10.06
11.15
11.41
11.18
10.79
10.50
10.48
10.72
11.06
11.23
10.85
9.52
6.88
2.77
-2.71
-9.12
-15.67
-21.44
-25.60
-27.67
-27.62
-25.82
-22.79
-19.06
-14.96
-10.70
-6.40
-2.19
1.73
5.10
7.74
9.52
10.42
10.50
9.91
8.89
7.77
6.95
6.89
7.94
10.26
13.71
17.85
22.03
25.61
28.23
29.95
31.31
33.08
35.86
39.86
44.68
49.52
53.49
55.94
56.57
55.44
52.82
49.10
44.65
39.80
34.69
29.19
22.88
15.28
6.11
-4.40
-15.46
-25.94
-34.79
-41.40
-45.73
-48.18
-49.42
-50.01
-50.34
-50.56
-50.61
-50.33
-49.58
-48.35
-46.82
-45.28
-44.02
-43.22
-42.80
-42.54
-42.11
-41.22
-39.65
-37.28
-34.13
-30.36
-26.31
-22.51
-19.61
-18.21
-18.70
-21.12
-25.16
-30.25
-35.77
-41.19
-46.15
-50.44
-53.82
-55.99
-56.54
-55.03
-51.16
-44.92
-36.79
-27.60
-18.55
-10.82
-5.26
-2.15
-1.11
-1.27
-1.57
-1.18
0.33
2.99
6.60
10.82
15.15
18.95
21.26
21.20
18.31
12.98
6.50
0.60
-3.24
-4.40
-3.20
-0.64
2.30
5.02
7.39
9.52
11.39
12.87
13.80
14.24
14.56
15.17
16.16
17.16
17.35
15.89
12.37
7.08
0.92
-4.90
-9.30
-11.62
-11.79
-10.23
-7.69
-5.05
-3.17
-2.75
-4.18
-7.41
-11.94
-16.94
-21.47
-24.74
-26.35
-26.26
-24.81
-22.57
-20.29
-18.81
-18.89
-21.01
-25.18
-30.87
-37.17
-43.20
-48.35
-52.38
-55.20
-56.59
-56.09
-53.18
-47.66
-39.94
-30.94
-21.72
-13.01
-4.89
3.07
11.42
20.49
30.25
40.52
51.03
61.58
71.82
81.17
88.89
94.42
97.69
99.30
100.07
100.55
100.56
99.15
95.26
88.36
78.92
68.27
57.97
49.12
42.07
36.49
31.89
27.98
24.84
22.57
21.15
20.24
19.41
18.39
17.30
16.55
16.42
16.87
17.39
17.33
16.20
13.93
10.84
7.41
4.00
0.79
-2.18
-4.89
-7.19
-8.98
-10.23
-11.14
-12.08
-13.43
-15.44
-17.99
-20.66
-22.74
-23.39
-21.96
-18.20
-12.48
-5.74
0.74
5.78
8.66
9.38
8.48
6.71
4.65
2.51
0.18
-2.58
-5.86
-9.58
-13.44
-17.14
-20.40
-22.93
-24.41
-24.37
-22.36
-18.22
-12.29
-5.45
1.17
6.60
10.40
12.73
14.17
15.36
16.71
18.29
19.90
21.29
22.21
22.50
22.04
20.84
19.02
16.89
14.84
13.23
12.17
11.53
11.03
10.42
9.64
8.74
7.86
6.99
5.93
4.28
1.69
-2.00
-6.57
-11.46
-15.90
-19.17
-20.77
-20.60
-18.94
-16.33
-13.35
-10.48
-8.02
-6.04
-4.59
-3.64
-3.22
-3.35
-3.99
-4.99
-6.10
-7.06
-7.72
-8.03
-8.03
-7.71
-7.02
-5.86
-4.20
-2.16
-0.01
1.94
3.39
4.13
4.04
3.12
1.48
-0.66
-2.95
-4.98
-6.37
-6.94
-6.73
-6.05
-5.31
-4.86
-4.87
-5.33
-6.12
-7.10
-8.20
-9.43
-10.79
-12.16
-13.35
-14.15
-14.50
-14.55
-14.56
-14.78
-15.23
-15.75
-16.10
-16.14
-15.99
-15.89
-16.12
-16.79
-17.78
-18.92
-20.02
-21.01
-21.83
-22.40
-22.54
-21.98
-20.48
-17.95
-14.46
-10.28
-5.79
-1.49
2.12
4.59
5.65
5.37
4.15
2.67
1.69
1.72
2.92
4.99
7.40
9.65
11.44
12.83
14.02
15.19
16.25
16.76
16.14
13.86
9.80
4.27
-2.03
-8.29
-13.87
-18.34
-21.57
-23.53
-24.31
-24.03
-22.97
-21.55
-20.29
-19.65
-19.86
-20.80
-22.04
-23.05
-23.37
-22.76
-21.28
-19.20
-16.82
-14.40
-12.14
-10.14
-8.55
-7.51
-7.16
-7.46
-8.20
-8.91
-9.11
-8.43
-6.77
-4.34
-1.56
1.13
3.45
5.28
6.65
7.67
8.45
9.10
9.66
10.18
10.71
11.33
12.13
13.17
14.41
15.66
16.60
16.88
16.25
14.75
12.67
10.52
8.77
7.67
7.17
6.91
6.45
5.43
3.75
1.59
-0.70
-2.75
-4.40
-5.67
-6.80
-8.03
-9.45
-10.96
-12.31
-13.28
-13.77
-13.86
-13.68
-13.29
-12.58
-11.34
-9.47
-7.06
-4.42
-1.97
0.00
1.43
2.50
3.47
4.49
5.56
6.55
7.35
8.00
8.63
9.38
10.27
11.16
11.80
11.99
11.67
10.97
10.13
9.37
8.77
8.17
7.32
6.00
4.12
1.84
-0.48
-2.43
-3.72
-4.26
-4.14
-3.60
-2.89
-2.22
-1.75
-1.65
-2.08
-3.12
-4.76
-6.84
-9.09
-11.18
-12.75
-13.54
-13.41
-12.38
-10.64
-8.50
-6.30
-4.29
-2.57
-1.12
0.11
1.20
2.13
2.96
3.74
4.67
5.87
7.39
9.11
10.80
12.23
13.29
14.04
14.63
15.24
15.96
16.86
17.92
19.04
20.02
20.58
20.44
19.58
18.24
16.86
15.77
14.99
14.08
12.41
9.52
5.44
0.74
-3.76
-7.33
-9.73
-11.16
-12.09
-12.94
-13.83
-14.67
-15.22
-15.36
-15.12
-14.61
-13.91
-12.92
-11.44
-9.30
-6.54
-3.45
-0.57
1.58
2.67
2.71
2.02
1.02
0.12
-0.39
-0.41
0.04
0.88
2.02
3.38
4.89
6.49
8.09
9.55
10.74
11.43
11.49
10.82
9.54
7.94
6.38
5.20
4.51
4.23
4.12
3.89
3.37
2.49
1.31
-0.08
-1.60
-3.16
-4.68
-6.05
-7.21
-8.14
-8.95
-9.85
-11.02
-12.56
-14.40
-16.30
-17.93
-18.96
-19.13
-18.37
-16.76
-14.55
-12.11
-9.83
-7.99
-6.69
-5.90
-5.43
-5.08
-4.71
-4.22
-3.56
-2.68
-1.56
-0.21
1.24
2.61
3.73
4.54
5.16
5.80
6.61
7.60
8.63
9.46
10.01
10.36
10.71
11.22
11.89
12.44
12.50
11.83
10.41
8.49
6.44
4.59
3.07
1.85
0.84
0.02
-0.59
-0.96
-1.12
-1.23
-1.54
-2.24
-3.35
-4.73
-6.06
-7.01
-7.35
-7.00
-6.12
-4.95
-3.81
-2.96
-2.51
-2.47
-2.73
-3.10
-3.41
-3.47
-3.21
-2.62
-1.80
-0.88
-0.01
0.77
1.47
2.18
2.94
3.74
4.47
5.02
5.26
5.13
4.61
3.72
2.53
1.20
-0.07
-1.08
-1.76
-2.26
-2.83
-3.77
-5.19
-6.87
-8.45
-9.51
-9.89
-9.78
-9.62
-9.84
-10.67
-11.99
-13.38
-14.35
-14.52
-13.79
-12.37
-10.65
-9.06
-7.89
-7.17
-6.70
-6.17
-5.31
-4.05
-2.52
-1.03
0.13
0.84
1.12
1.16
1.17
1.31
1.71
2.41
3.45
4.83
6.42
8.03
9.38
10.21
10.31
9.61
8.20
6.27
4.14
2.19
0.74
-0.06
-0.24
-0.07
0.09
-0.04
-0.60
-1.50
-2.54
-3.51
-4.28
-4.80
-5.15
-5.47
-5.95
-6.75
-7.94
-9.43
-11.01
-12.35
-13.11
-13.11
-12.32
-10.87
-8.96
-6.87
-4.82
-3.01
-1.58
-0.55
0.09
0.40
0.41
0.16
-0.32
-0.88
-1.29
-1.31
-0.77
0.30
1.71
3.18
4.46
5.47
6.17
6.63
6.89
7.01
7.00
6.92
6.80
6.64
6.36
5.85
4.96
3.70
2.14
0.50
-1.02
-2.24
-3.11
-3.69
-4.11
-4.54
-5.13
-6.00
-7.20
-8.65
-10.22
-11.69
-12.81
-13.36
-13.19
-12.30
-10.81
-8.95
-7.02
-5.31
-4.06
-3.37
-3.23
-3.47
-3.86
-4.13
-4.08
-3.58
-2.59
-1.15
0.67
2.78
5.09
7.51
9.88
12.02
13.69
14.71
14.99
14.56
13.59
12.29
10.85
9.38
7.95
6.60
5.47
4.68
4.26
4.05
3.67
2.65
0.67
-2.26
-5.72
-9.08
-11.76
-13.42
-14.08
-13.93
-13.16
-11.89
-10.10
-7.77
-4.99
-2.00
0.86
3.31
5.23
6.73
8.00
9.15
10.12
10.65
10.40
9.15
7.06
4.57
2.34
0.91
0.54
1.07
2.06
3.08
3.83
4.27
4.50
4.69
4.92
5.19
5.45
5.63
5.71
5.62
5.37
4.93
4.29
3.44
2.43
1.31
0.20
-0.73
-1.27
-1.34
-1.02
-0.59
-0.42
-0.82
-1.89
-3.48
-5.23
-6.74
-7.66
-7.88
-7.46
-6.60
-5.58
-4.60
-3.77
-3.12
-2.66
-2.35
-2.23
-2.33
-2.64
-3.10
-3.56
-3.79
-3.57
-2.76
-1.34
0.54
2.56
4.42
5.80
6.54
6.66
6.25
5.51
4.59
3.64
2.78
2.10
1.69
1.59
1.75
2.01
2.19
2.18
1.95
1.67
1.51
1.58
1.79
1.91
1.60
0.64
-0.94
-2.84
-4.59
-5.78
-6.17
-5.88
-5.19
-4.41
-3.78
-3.29
-2.84
-2.36
-1.84
-1.42
-1.26
-1.39
-1.75
-2.17
-2.48
-2.60
-2.53
-2.34
-2.04
-1.62
-1.03
-0.25
0.65
1.53
2.26
2.76
3.03
3.11
3.05
2.86
2.49
1.96
1.29
0.61
0.01
-0.46
-0.87
-1.35
-2.03
-2.93
-3.94
-4.91
-5.73
-6.34
-6.83
-7.26
-7.70
-8.14
-8.56
-8.95
-9.24
-9.34
-9.08
-8.25
-6.72
-4.56
-2.04
0.41
2.37
3.61
4.12
4.08
3.80
3.54
3.48
3.68
4.14
4.80
5.55
6.25
6.75
6.98
6.99
6.89
6.86
6.99
7.25
7.51
7.56
7.28
6.72
5.99
5.26
4.62
4.04
3.41
2.64
1.76
0.88
0.19
-0.20
-0.34
-0.29
-0.20
-0.14
-0.12
-0.13
-0.22
-0.45
-0.90
-1.57
-2.36
-3.13
-3.66
-3.84
-3.60
-2.95
-1.89
-0.42
1.44
3.61
5.94
8.17
10.03
11.28
11.88
11.91
11.64
11.36
11.30
11.50
11.87
12.21
12.37
12.30
12.06
11.77
11.49
11.15
10.65
9.85
8.73
7.40
6.07
4.95
4.20
3.86
3.88
4.14
4.47
4.72
4.75
4.46
3.84
2.93
1.79
0.51
-0.85
-2.25
-3.64
-5.03
-6.39
-7.76
-9.18
-10.67
-12.14
-13.45
-14.35
-14.66
-14.30
-13.32
-11.93
-10.31
-8.67
-7.09
-5.61
-4.20
-2.87
-1.63
-0.51
0.44
1.23
1.93
2.67
3.57
4.70
5.96
7.12
7.93
8.20
7.96
7.49
7.14
7.18
7.64
8.23
8.59
8.40
7.61
6.38
5.01
3.74
2.75
2.17
2.17
2.89
4.28
5.89
6.87
6.24
3.28
-2.07
-9.14
-16.78
-23.82
-29.48
-33.56
-36.22
-37.80
-38.47
-38.27
-37.24
-35.56
-33.65
-32.00
-30.88
-30.21
-29.51
-28.08
-25.32
-21.09
-15.73
-10.01
-4.81
-0.77
1.85
3.29
4.04
4.63
5.40
6.44
7.73
9.24
11.12
13.58
16.77
20.58
24.54
28.00
30.41
31.54
31.56
30.97
30.30
29.89
29.79
29.86
29.88
29.68
29.19
28.46
27.56
26.56
25.52
24.42
23.25
21.98
20.64
19.25
17.85
16.43
14.94
13.33
11.56
9.68
7.79
6.03
4.51
3.30
2.50
2.18
2.46
3.39
4.91
6.76
8.57
9.98
10.75
10.87
10.55
10.09
9.75
9.69
9.87
10.21
10.60
10.99
11.41
11.87
12.31
12.61
12.63
12.26
11.52
10.51
9.38
8.27
7.19
6.11
4.94
3.61
2.12
0.58
-0.86
-2.06
-2.98
-3.73
-4.51
-5.56
-6.97
-8.72
-10.59
-12.31
-13.65
-14.47
-14.74
-14.48
-13.78
-12.71
-11.37
-9.89
-8.36
-6.90
-5.60
-4.50
-3.60
-2.88
-2.24
-1.63
-1.00
-0.39
0.07
0.27
0.11
-0.36
-0.96
-1.38
-1.39
-0.90
-0.00
1.00
1.80
2.14
1.96
1.36
0.52
-0.40
-1.26
-1.97
-2.44
-2.58
-2.37
-1.91
-1.47
-1.35
-1.76
-2.70
-3.91
-4.95
-5.43
-5.12
-4.07
-2.50
-0.76
0.84
2.14
3.10
3.72
4.04
4.06
3.76
3.13
2.25
1.24
0.26
-0.56
-1.20
-1.74
-2.30
-2.97
-3.69
-4.30
-4.60
-4.51
-4.13
-3.74
-3.64
-4.01
-4.87
-6.04
-7.30
-8.51
-9.60
-10.62
-11.58
-12.44
-13.15
-13.69
-14.10
-14.47
-14.85
-15.17
-15.25
-14.87
-13.89
-12.36
-10.49
-8.55
-6.80
-5.31
-4.04
-2.90
-1.82
-0.89
-0.23
0.06
-0.00
-0.27
-0.52
-0.49
-0.02
0.88
2.11
3.41
4.57
5.38
5.76
5.76
5.47
5.00
4.39
3.57
2.39
0.77
-1.32
-3.73
-6.23
-8.58
-10.56
-12.01
-12.80
-12.93
-12.46
-11.59
-10.58
-9.69
-9.04
-8.57
-8.05
-7.20
-5.87
-4.12
-2.20
-0.39
1.12
2.36
3.51
4.77
6.18
7.58
8.69
9.25
9.21
8.72
8.05
7.43
6.92
6.41
5.67
4.58
3.13
1.50
-0.03
-1.23
-1.97
-2.29
-2.32
-2.29
-2.39
-2.79
-3.63
-4.98
-6.81
-8.95
-11.04
-12.68
-13.48
-13.26
-12.09
-10.28
-8.22
-6.31
-4.81
-3.92
-3.73
-4.23
-5.32
-6.73
-8.10
-9.05
-9.36
-9.04
-8.23
-7.14
-5.90
-4.53
-2.99
-1.25
0.65
2.62
4.59
6.48
8.21
9.64
10.61
10.99
10.75
9.99
8.90
7.65
6.30
4.85
3.32
1.82
0.55
-0.29
-0.64
-0.64
-0.61
-0.87
-1.64
-2.96
-4.65
-6.45
-8.01
-9.09
-9.44
-8.96
-7.60
-5.43
-2.58
0.72
4.20
7.55
10.43
12.51
13.61
13.74
13.14
12.25
11.57
11.45
12.03
13.17
14.60
16.04
17.35
18.50
19.44
20.07
20.13
19.38
17.71
15.29
12.58
10.19
8.64
8.11
8.43
9.16
9.80
10.03
9.80
9.25
8.53
7.69
6.64
5.22
3.35
1.10
-1.37
-3.87
-6.29
-8.60
-10.75
-12.57
-13.75
-13.99
-13.15
-11.36
-8.99
-6.50
-4.27
-2.45
-0.97
0.32
1.62
2.99
4.40
5.75
7.00
8.14
9.19
10.18
11.11
11.95
12.61
13.01
13.07
12.83
12.42
12.06
11.92
12.04
12.20
11.96
10.87
8.64
5.34
1.43
-2.47
-5.77
-8.18
-9.72
-10.65
-11.26
-11.78
-12.31
-12.94
-13.74
-14.80
-16.12
-17.56
-18.81
-19.51
-19.35
-18.22
-16.15
-13.34
-10.05
-6.59
-3.27
-0.31
2.28
4.73
7.47
10.90
15.13
19.85
24.35
27.86
29.84
30.25
29.47
28.08
26.61
25.33
24.32
23.59
23.16
23.09
23.42
24.06
24.78
25.28
25.31
24.72
23.52
21.82
19.82
17.78
15.96
14.57
13.71
13.34
13.20
12.94
12.23
10.87
8.93
6.69
4.54
2.80
1.55
0.57
-0.52
-2.17
-4.62
-7.90
-11.76
-15.82
-19.67
-22.97
-25.49
-27.09
-27.66
-27.17
-25.76
-23.70
-21.47
-19.56
-18.36
-17.95
-18.10
-18.31
-18.07
-16.92
-14.66
-11.36
-7.32
-3.05
0.91
4.05
6.08
6.96
6.92
6.34
5.67
5.18
4.96
4.89
4.80
4.60
4.45
4.68
5.64
7.51
10.03
12.50
13.90
13.07
9.13
1.71
-8.70
-20.77
-32.28
-40.50
-42.83
-37.57
-24.61
-5.70
16.03
36.99
54.24
66.32
73.32
76.46
77.36
77.31
77.04
76.74
76.41
76.11
76.07
76.55
77.73
79.61
82.01
84.72
87.57
90.43
93.08
95.09
95.88
94.98
92.39
88.70
84.80
81.19
77.38
71.58
61.35
44.79
21.64
-6.32
-35.79
-63.31
-86.44
-104.28
-117.08
-125.30
-128.96
-127.53
-120.56
-108.45
-92.75
-75.89
-60.21
-47.25
-37.31
-29.72
-23.44
-17.73
-12.40
-7.72
-4.10
-1.72
-0.37
0.41
1.07
1.77
2.29
2.10
0.68
-2.18
-6.23
-10.74
-14.81
-17.70
-19.11
-19.21
-18.52
-17.56
-16.64
-15.68
-14.20
-11.59
-7.39
-1.52
5.48
12.54
18.26
21.32
20.90
16.96
10.30
2.27
-5.71
-12.50
-17.59
-20.99
-22.98
-23.80
-23.48
-21.91
-19.03
-15.04
-10.43
-5.83
-1.80
1.39
3.81
5.65
7.06
7.88
7.69
5.94
2.35
-2.95
-9.31
-15.76
-21.43
-25.79
-28.80
-30.77
-32.04
-32.81
-33.09
-32.87
-32.32
-31.73
-31.31
-31.01
-30.45
-29.09
-26.70
-23.66
-20.99
-19.97
-21.47
-25.58
-31.37
-37.28
-41.67
-43.42
-42.27
-38.83
-34.30
-30.04
-27.07
-25.75
-25.85
-26.68
-27.41
-27.43
-26.51
-24.84
-22.91
-21.35
-20.70
-21.24
-23.00
-25.77
-29.19
-32.88
-36.48
-39.68
-42.18
-43.74
-44.25
-43.86
-42.88
-41.74
-40.73
-39.90
-39.07
-37.96
-36.39
-34.35
-32.00
-29.54
-27.10
-24.71
-22.39
-20.16
-18.16
-16.56
-15.41
-14.60
-13.81
-12.66
-10.88
-8.49
-5.80
-3.25
-1.27
0.03
0.85
1.62
2.76
4.51
6.87
9.62
12.51
15.32
17.90
20.15
21.96
23.21
23.86
23.99
23.73
23.28
22.76
22.27
21.80
21.28
20.67
19.94
19.13
18.31
17.61
17.07
16.69
16.34
15.81
14.95
13.63
11.88
9.83
7.73
5.76
4.12
2.89
2.08
1.55
1.10
0.53
-0.37
-1.75
-3.68
-6.18
-9.18
-12.60
-16.27
-19.98
-23.54
-26.79
-29.60
-31.80
-33.15
-33.25
-31.76
-28.40
-23.23
-16.61
-9.13
-1.48
5.76
12.16
17.42
21.34
23.78
24.66
24.08
22.35
20.03
17.72
16.00
15.19
15.37
16.40
17.96
19.68
21.20
22.23
22.56
22.15
21.08
19.49
17.60
15.58
13.61
11.78
10.14
8.64
7.23
5.85
4.49
3.26
2.28
1.64
1.28
1.01
0.59
-0.15
-1.26
-2.63
-4.08
-5.48
-6.76
-7.95
-9.07
-10.19
-11.34
-12.61
-14.04
-15.63
-17.25
-18.67
-19.64
-19.94
-19.46
-18.17
-16.19
-13.66
-10.85
-8.06
-5.62
-3.80
-2.73
-2.42
-2.65
-3.19
-3.75
-4.11
-4.09
-3.62
-2.71
-1.43
0.08
1.69
3.30
4.88
6.44
7.94
9.29
10.34
10.96
11.08
10.76
10.11
9.31
8.45
7.58
6.71
5.81
4.97
4.27
3.83
3.69
3.81
4.01
4.10
3.93
3.47
2.72
1.75
0.56
-0.88
-2.61
-4.59
-6.63
-8.49
-9.86
-10.48
-10.25
-9.16
-7.35
-5.08
-2.64
-0.39
1.37
2.44
2.79
2.58
2.08
1.60
1.34
1.38
1.70
2.21
2.83
3.54
4.38
5.34
6.37
7.35
8.14
8.63
8.75
8.53
8.06
7.45
6.83
6.28
5.79
5.24
4.46
3.27
1.53
-0.79
-3.61
-6.81
-10.16
-13.40
-16.28
-18.55
-20.05
-20.75
-20.80
-20.46
-20.02
-19.67
-19.47
-19.30
-18.98
-18.27
-17.02
-15.19
-12.80
-10.03
-7.10
-4.23
-1.59
0.69
2.51
3.74
4.23
3.90
2.87
1.46
0.14
-0.56
-0.32
0.93
3.10
5.98
9.49
13.59
18.27
23.45
28.89
34.34
39.57
44.45
48.87
52.70
55.64
57.32
57.39
55.63
51.97
46.52
39.48
31.22
22.35
13.59
5.70
-0.77
-5.80
-9.83
-13.62
-17.90
-22.98
-28.64
-34.20
-38.82
-41.79
-42.76
-41.81
-39.40
-36.16
-32.77
-29.81
-27.67
-26.43
-25.99
-26.08
-26.34
-26.44
-26.06
-25.02
-23.20
-20.60
-17.39
-13.85
-10.35
-7.20
-4.58
-2.50
-0.86
0.43
1.31
1.64
1.30
0.33
-1.01
-2.31
-3.18
-3.45
-3.26
-2.97
-2.96
-3.51
-4.65
-6.20
-7.93
-9.65
-11.19
-12.52
-13.62
-14.55
-15.40
-16.27
-17.18
-18.04
-18.64
-18.73
-18.14
-16.89
-15.15
-13.22
-11.32
-9.52
-7.74
-5.89
-3.98
-2.22
-0.96
-0.53
-1.15
-2.77
-5.15
-7.92
-10.67
-13.03
-14.71
-15.55
-15.46
-14.45
-12.59
-10.06
-7.09
-3.94
-0.86
1.96
4.40
6.41
7.94
8.91
9.26
8.99
8.19
7.15
6.18
5.57
5.38
5.46
5.51
5.24
4.46
3.14
1.40
-0.56
-2.50
-4.17
-5.34
-5.86
-5.68
-4.91
-3.82
-2.72
-1.91
-1.53
-1.59
-2.02
-2.72
-3.54
-4.31
-4.79
-4.61
-3.41
-0.86
3.11
8.25
14.00
19.62
24.41
27.89
29.92
30.70
30.65
30.21
29.72
29.35
29.08
28.83
28.48
27.93
27.03
25.66
23.67
21.03
17.87
14.51
11.33
8.66
6.62
5.07
3.71
2.24
0.47
-1.57
-3.63
-5.34
-6.33
-6.32
-5.23
-3.16
-0.40
2.66
5.67
8.37
10.61
12.28
13.29
13.56
13.07
12.03
10.77
9.74
9.27
9.47
10.26
11.36
12.54
13.72
14.91
16.16
17.46
18.71
19.72
20.36
20.54
20.23
19.42
18.15
16.52
14.74
13.07
11.75
10.87
10.27
9.67
8.78
7.40
5.60
3.53
1.41
-0.63
-2.55
-4.37
-6.03
-7.37
-8.15
-8.16
-7.28
-5.59
-3.34
-0.87
1.49
3.54
5.21
6.54
7.58
8.38
8.93
9.25
9.45
9.74
10.34
11.36
12.78
14.36
15.76
16.65
16.81
16.22
15.01
13.39
11.64
9.94
8.42
7.06
5.77
4.36
2.61
0.41
-2.26
-5.21
-8.21
-10.98
-13.39
-15.49
-17.51
-19.80
-22.77
-26.64
-31.41
-36.69
-41.75
-45.71
-47.85
-47.89
-46.15
-43.35
-40.23
-37.15
-33.86
-29.69
-23.98
-16.52
-7.77
1.31
9.55
16.02
20.31
22.58
23.40
23.53
23.73
24.58
26.38
29.12
32.58
36.29
39.71
42.26
43.50
43.21
41.50
38.80
35.71
32.77
30.20
27.86
25.35
22.30
18.55
14.29
9.91
5.77
2.06
-1.36
-4.76
-8.38
-12.21
-15.89
-18.84
-20.52
-20.68
-19.55
-17.74
-15.84
-14.17
-12.52
-10.37
-7.24
-3.08
1.55
5.69
8.51
9.69
9.64
9.17
9.02
9.47
10.34
11.28
12.27
13.80
16.71
21.74
28.98
37.71
46.63
54.41
60.15
63.65
65.23
65.35
64.31
62.22
59.12
55.19
50.85
46.55
42.56
38.85
35.11
31.01
26.41
21.50
16.75
12.68
9.70
7.97
7.43
7.91
9.15
10.84
12.63
14.10
14.88
14.69
13.47
11.37
8.66
5.58
2.24
-1.31
-4.98
-8.56
-11.67
-14.01
-15.62
-16.87
-18.33
-20.37
-22.81
-24.95
-25.80
-24.70
-21.68
-17.49
-13.26
-9.99
-8.18
-7.74
-8.26
-9.28
-10.49
-11.71
-12.74
-13.27
-12.91
-11.39
-8.72
-5.28
-1.63
1.67
4.29
6.16
7.42
8.21
8.67
8.85
8.72
8.24
7.38
6.11
4.46
2.52
0.43
-1.65
-3.56
-5.21
-6.55
-7.50
-7.97
-7.83
-7.02
-5.63
-3.91
-2.19
-0.68
0.53
1.56
2.50
3.32
3.83
3.74
2.88
1.29
-0.72
-2.70
-4.24
-5.07
-5.06
-4.16
-2.47
-0.12
2.56
5.16
7.20
8.36
8.60
8.06
7.05
5.82
4.56
3.34
2.27
1.47
1.07
1.14
1.54
2.00
2.09
1.50
0.15
-1.78
-3.85
-5.55
-6.46
-6.44
-5.61
-4.33
-2.95
-1.78
-0.96
-0.50
-0.41
-0.65
-1.23
-2.12
-3.30
-4.79
-6.63
-8.78
-11.13
-13.46
-15.53
-17.11
-18.16
-18.77
-19.13
-19.41
-19.67
-19.86
-19.88
-19.72
-19.44
-19.18
-19.04
-19.02
-18.98
-18.73
-18.13
-17.20
-16.17
-15.38
-15.15
-15.66
-16.90
-18.74
-21.02
-23.66
-26.62
-29.86
-33.26
-36.60
-39.61
-42.01
-43.56
-43.98
-42.94
-40.11
-35.35
-28.80
-20.99
-12.68
-4.68
2.46
8.60
13.84
18.38
22.31
25.51
27.75
28.94
29.16
28.66
27.79
26.81
25.89
25.06
24.29
23.57
22.86
22.11
21.29
20.48
19.84
19.66
20.17
21.42
23.14
24.85
25.98
26.08
24.99
22.82
19.87
16.52
13.14
10.06
7.56
5.88
5.11
5.14
5.66
6.22
6.41
5.96
4.92
3.60
2.48
2.02
2.42
3.62
5.26
6.89
8.09
8.60
8.38
7.56
6.35
4.97
3.65
2.52
1.67
1.01
0.43
-0.30
-1.34
-2.70
-4.21
-5.63
-6.78
-7.64
-8.33
-9.05
-9.87
-10.72
-11.35
-11.54
-11.24
-10.65
-10.16
-10.14
-10.86
-12.41
-14.86
-18.36
-23.16
-29.47
-37.22
-45.92
-54.67
-62.38
-68.18
-71.69
-73.08
-73.00
-72.14
-70.97
-69.56
-67.60
-64.70
-60.62
-55.40
-49.29
-42.60
-35.54
-28.19
-20.67
-13.26
-6.43
-0.65
3.85
7.25
10.06
12.85
15.95
19.22
22.24
24.53
25.95
26.86
28.06
30.43
34.55
40.31
46.93
53.19
57.94
60.47
60.84
59.67
57.76
55.67
53.60
51.40
48.94
46.32
43.91
42.11
41.03
40.33
39.32
37.36
34.15
29.92
25.28
20.89
17.16
14.15
11.59
9.14
6.60
4.00
1.56
-0.43
-1.79
-2.41
-2.39
-1.88
-1.08
-0.24
0.43
0.72
0.50
-0.28
-1.55
-3.15
-4.85
-6.41
-7.63
-8.43
-8.81
-8.89
-8.76
-8.50
-8.16
-7.71
-7.08
-6.24
-5.22
-4.13
-3.13
-2.48
-2.32
-2.65
-3.25
-3.78
-3.85
-3.19
-1.75
0.21
2.28
3.97
4.87
4.68
3.32
0.79
-2.73
-6.95
-11.47
-15.84
-19.66
-22.65
-24.74
-26.00
-26.56
-26.57
-26.16
-25.41
-24.40
-23.22
-21.97
-20.71
-19.49
-18.29
-17.06
-15.73
-14.24
-12.61
-10.93
-9.38
-8.14
-7.32
-6.90
-6.68
-6.37
-5.68
-4.43
-2.62
-0.48
1.70
3.61
5.04
5.96
6.47
6.78
7.06
7.39
7.73
7.93
7.79
7.18
6.13
4.80
3.50
2.54
2.14
2.37
3.08
4.02
4.89
5.45
5.55
5.08
4.05
2.56
0.82
-0.86
-2.20
-3.10
-3.70
-4.36
-5.40
-6.95
-8.84
-10.61
-11.77
-11.97
-11.23
-9.80
-8.09
-6.37
-4.76
-3.21
-1.65
-0.15
1.07
1.78
1.86
1.44
0.89
0.61
0.87
1.68
2.76
3.74
4.36
4.53
4.36
4.01
3.57
2.98
2.11
0.84
-0.70
-2.25
-3.45
-4.02
-3.95
-3.46
-2.93
-2.73
-3.08
-3.98
-5.24
-6.65
-8.03
-9.34
-10.65
-12.12
-13.87
-15.91
-18.12
-20.27
-22.14
-23.53
-24.36
-24.66
-24.55
-24.19
-23.77
-23.45
-23.32
-23.41
-23.63
-23.83
-23.73
-23.13
-21.94
-20.30
-18.52
-16.94
-15.80
-15.04
-14.33
-13.23
-11.43
-8.88
-5.80
-2.55
0.61
3.54
6.33
9.15
12.17
15.51
19.15
22.93
26.57
29.69
31.87
32.80
32.39
30.85
28.57
26.06
23.76
21.93
20.67
19.96
19.72
19.89
20.41
21.22
22.25
23.30
24.13
24.44
24.03
22.86
21.13
19.15
17.28
15.67
14.30
12.98
11.51
9.81
8.05
6.58
5.73
5.70
6.34
7.25
7.89
7.85
6.97
5.45
3.76
2.41
1.79
1.97
2.71
3.56
4.02
3.78
2.76
1.20
-0.44
-1.68
-2.10
-1.62
-0.57
0.32
0.20
-1.52
-4.82
-8.88
-12.37
-13.98
-12.87
-9.05
-3.28
3.35
9.81
15.42
19.86
22.99
24.74
25.07
24.00
21.79
18.92
15.91
13.26
11.27
9.97
9.25
8.89
8.64
8.26
7.59
6.56
5.17
3.51
1.67
-0.23
-2.19
-4.19
-6.26
-8.38
-10.44
-12.23
-13.45
-13.80
-13.07
-11.30
-8.74
-5.86
-3.15
-0.99
0.48
1.39
2.06
2.83
3.97
5.63
7.79
10.33
13.10
15.95
18.88
21.95
25.27
28.87
32.57
35.95
38.37
39.12
37.60
33.52
27.06
18.84
9.85
1.12
-6.48
-12.59
-17.38
-21.41
-25.32
-29.53
-34.09
-38.74
-43.13
-47.03
-50.42
-53.32
-55.68
-57.17
-57.27
-55.42
-51.26
-44.75
-36.04
-25.39
-13.09
0.50
14.82
29.05
42.33
53.97
63.73
71.74
78.26
83.31
86.47
87.03
84.33
78.16
68.94
57.58
45.09
32.22
19.38
6.71
-5.65
-17.38
-28.05
-37.25
-44.75
-50.69
-55.44
-59.51
-63.28
-66.94
-70.48
-73.73
-76.48
-78.46
-79.41
-79.07
-77.22
-73.84
-69.14
-63.49
-57.42
-51.37
-45.72
-40.73
-36.56
-33.30
-30.93
-29.30
-28.07
-26.91
-25.52
-23.84
-22.06
-20.41
-19.10
-18.14
-17.35
-16.49
-15.36
-13.93
-12.27
-10.53
-8.77
-7.01
-5.20
-3.36
-1.56
0.06
1.39
2.38
3.05
3.48
3.68
3.61
3.22
2.51
1.68
1.03
0.96
1.69
3.21
5.28
7.53
9.70
11.66
13.48
15.23
16.88
18.30
19.29
19.75
19.74
19.53
19.42
19.62
20.08
20.57
20.73
20.24
18.96
16.91
14.25
11.17
7.79
4.22
0.51
-3.23
-6.80
-9.95
-12.41
-13.96
-14.46
-13.88
-12.20
-9.43
-5.61
-0.88
4.53
10.27
15.91
21.14
25.74
29.69
33.08
36.10
38.87
41.46
43.87
46.05
47.96
49.56
50.84
51.76
52.27
52.35
52.08
51.62
51.21
51.06
51.22
51.52
51.53
50.70
48.50
44.61
39.06
32.12
24.28
16.06
7.88
0.06
-7.20
-13.73
-19.38
-24.03
-27.67
-30.48
-32.73
-34.72
-36.64
-38.40
-39.72
-40.28
-39.88
-38.63
-36.81
-34.87
-33.14
-31.82
-30.91
-30.37
-30.16
-30.20
-30.40
-30.50
-30.18
-29.14
-27.28
-24.81
-22.10
-19.58
-17.51
-15.91
-14.62
-13.45
-12.32
-11.32
-10.60
-10.32
-10.47
-10.94
-11.61
-12.36
-13.17
-14.09
-15.11
-16.20
-17.25
-18.20
-19.05
-19.84
-20.68
-21.67
-22.89
-24.35
-26.05
-27.95
-29.92
-31.82
-33.47
-34.77
-35.67
-36.17
-36.29
-35.99
-35.27
-34.11
-32.61
-30.87
-29.00
-27.04
-24.93
-22.58
-19.88
-16.82
-13.41
-9.70
-5.75
-1.62
2.63
6.85
10.90
14.61
17.89
20.66
22.91
24.64
25.90
26.73
27.24
27.52
27.65
27.63
27.46
27.14
26.70
26.21
25.72
25.27
24.78
24.15
23.26
22.04
20.54
18.91
17.39
16.25
15.65
15.67
16.20
17.06
18.06
19.01
19.76
20.18
20.22
19.87
19.22
18.46
17.78
17.34
17.12
16.97
16.69
16.10
15.18
14.03
12.76
11.48
10.18
8.81
7.35
5.78
4.06
2.16
-0.01
-2.54
-5.48
-8.66
-11.84
-14.68
-16.96
-18.61
-19.71
-20.43
-20.83
-20.94
-20.69
-20.12
-19.36
-18.66
-18.25
-18.29
-18.73
-19.33
-19.75
-19.68
-18.94
-17.58
-15.78
-13.86
-12.08
-10.62
-9.52
-8.73
-8.15
-7.69
-7.25
-6.72
-5.98
-4.95
-3.63
-2.12
-0.68
0.44
1.11
1.39
1.46
1.52
1.66
1.83
1.95
1.96
1.89
1.83
1.80
1.70
1.32
0.48
-0.89
-2.67
-4.61
-6.52
-8.29
-9.93
-11.51
-13.04
-14.41
-15.45
-15.95
-15.77
-14.87
-13.32
-11.31
-9.10
-6.93
-4.96
-3.26
-1.83
-0.66
0.26
0.90
1.18
1.16
0.91
0.60
0.36
0.30
0.45
0.79
1.27
1.88
2.53
3.14
3.63
3.90
3.92
3.64
3.09
2.26
1.24
0.09
-1.03
-1.99
-2.70
-3.19
-3.58
-4.07
-4.80
-5.82
-7.06
-8.35
-9.51
-10.44
-11.04
-11.25
-11.03
-10.41
-9.57
-8.83
-8.67
-9.59
-11.85
-15.45
-19.99
-24.89
-29.46
-33.13
-35.46
-36.22
-35.31
-32.83
-29.09
-24.53
-19.64
-14.77
-10.09
-5.59
-1.22
3.06
7.06
10.48
13.04
14.54
15.03
14.80
14.17
13.52
13.04
12.78
12.64
12.47
12.10
11.41
10.36
8.89
6.95
4.47
1.48
-1.88
-5.20
-8.04
-9.91
-10.58
-10.13
-8.99
-7.70
-6.70
-6.18
-6.03
-6.02
-5.98
-5.95
-6.12
-6.65
-7.50
-8.39
-8.93
-8.82
-7.95
-6.43
-4.51
-2.40
-0.26
1.78
3.62
5.13
6.25
6.97
7.38
7.56
7.55
7.31
6.80
6.04
5.14
4.30
3.63
3.13
2.59
1.75
0.34
-1.70
-4.22
-6.88
-9.26
-11.08
-12.23
-12.75
-12.74
-12.26
-11.29
-9.79
-7.83
-5.63
-3.51
-1.77
-0.59
0.06
0.39
0.60
0.85
1.13
1.39
1.58
1.75
2.03
2.53
3.29
4.22
5.16
5.92
6.46
6.82
7.17
7.62
8.14
8.55
8.54
7.91
6.65
5.00
3.37
2.14
1.55
1.58
1.98
2.37
2.43
2.03
1.23
0.29
-0.51
-0.95
-0.98
-0.64
-0.01
0.80
1.72
2.67
3.51
4.08
4.22
3.86
3.08
2.05
0.97
0.00
-0.77
-1.32
-1.58
-1.51
-1.06
-0.26
0.78
1.93
3.02
4.02
4.94
5.87
6.85
7.78
8.48
8.70
8.32
7.36
6.05
4.65
3.44
2.65
2.40
2.72
3.57
4.79
6.09
7.11
7.52
7.09
5.81
3.94
1.91
0.16
-0.91
-1.09
-0.35
1.14
3.10
5.21
7.17
8.82
10.08
11.02
11.78
12.51
13.36
14.41
15.69
17.14
18.69
20.25
21.76
23.14
24.32
25.21
25.70
25.77
25.44
24.85
24.25
23.78
23.52
23.38
23.14
22.62
21.77
20.72
19.71
18.94
18.41
18.00
17.51
16.76
15.62
13.98
11.68
8.62
4.90
0.91
-2.67
-5.12
-6.04
-5.51
-4.10
-2.54
-1.39
-0.80
-0.61
-0.47
-0.17
0.36
1.09
1.99
3.10
4.49
6.15
7.92
9.53
10.68
11.19
11.06
10.49
9.76
9.11
8.62
8.19
7.61
6.73
5.48
3.99
2.55
1.48
1.01
1.27
2.19
3.47
4.63
5.12
4.45
2.40
-0.89
-4.89
-8.88
-12.17
-14.25
-14.93
-14.30
-12.66
-10.46
-8.12
-6.05
-4.48
-3.47
-2.91
-2.57
-2.21
-1.62
-0.71
0.48
1.82
3.11
4.08
4.50
4.25
3.35
1.96
0.32
-1.28
-2.59
-3.49
-3.93
-4.05
-4.05
-4.21
-4.75
-5.77
-7.20
-8.88
-10.54
-11.92
-12.75
-12.84
-12.06
-10.43
-8.14
-5.46
-2.70
-0.07
2.32
4.50
6.51
8.33
9.91
11.16
12.06
12.64
13.00
13.20
13.29
13.29
13.22
13.08
12.93
12.81
12.80
13.00
13.42
14.00
14.54
14.78
14.48
13.53
12.02
10.21
8.45
6.96
5.81
4.87
3.91
2.67
1.06
-0.91
-3.11
-5.36
-7.44
-9.16
-10.34
-10.81
-10.43
-9.17
-7.18
-4.76
-2.30
-0.17
1.44
2.54
3.35
4.09
4.92
5.87
6.87
7.85
8.83
9.91
11.10
12.35
13.51
14.37
14.81
14.81
14.45
13.90
13.37
13.08
13.23
13.93
15.08
16.39
17.36
17.55
16.72
14.94
12.51
9.84
7.17
4.54
1.77
-1.35
-5.00
-9.20
-13.80
-18.50
-22.89
-26.54
-29.03
-30.13
-29.74
-27.93
-24.90
-20.94
-16.43
-11.80
-7.48
-3.92
-1.34
0.21
0.91
1.02
0.83
0.54
0.30
0.20
0.32
0.74
1.47
2.48
3.71
5.04
6.40
7.70
8.87
9.79
10.33
10.41
10.02
9.29
8.45
7.77
7.52
7.80
8.62
9.80
11.10
12.29
13.27
14.03
14.70
15.34
15.94
16.36
16.39
15.88
14.89
13.60
12.22
10.88
9.47
7.78
5.54
2.63
-0.84
-4.54
-8.08
-11.13
-13.50
-15.18
-16.25
-16.88
-17.21
-17.38
-17.45
-17.42
-17.24
-16.82
-16.06
-14.90
-13.37
-11.55
-9.59
-7.66
-5.91
-4.54
-3.62
-3.17
-3.11
-3.32
-3.65
-4.00
-4.43
-5.05
-6.01
-7.46
-9.43
-11.80
-14.31
-16.60
-18.23
-18.84
-18.18
-16.28
-13.36
-9.77
-5.90
-2.08
1.42
4.37
6.51
7.65
7.76
7.02
5.83
4.67
3.89
3.61
3.78
4.27
4.97
5.84
6.90
8.13
9.48
10.93
12.57
14.54
16.97
19.85
23.00
26.08
28.70
30.59
31.61
31.81
31.30
30.24
28.81
27.19
25.49
23.75
21.95
19.99
17.80
15.35
12.74
10.19
7.86
5.86
4.13
2.57
1.08
-0.38
-1.70
-2.78
-3.53
-3.94
-4.09
-4.12
-4.20
-4.58
-5.58
-7.52
-10.65
-14.97
-20.22
-25.85
-31.17
-35.54
-38.52
-39.93
-39.87
-38.67
-36.79
-34.60
-32.33
-29.90
-27.06
-23.48
-19.03
-13.90
-8.58
-3.70
0.29
3.31
5.66
7.88
10.47
13.71
17.62
22.09
27.06
32.61
38.75
45.22
51.23
55.60
57.14
55.06
49.42
40.99
30.95
20.46
10.54
2.16
-3.43
-4.75
-0.45
9.93
25.26
42.70
58.28
68.17
69.89
63.09
49.48
32.09
14.24
-1.51
-13.77
-22.30
-27.62
-30.45
-31.48
-31.23
-30.18
-28.89
-28.07
-28.32
-30.00
-33.04
-37.01
-41.38
-45.76
-50.14
-54.72
-59.72
-64.98
-69.87
-73.37
-74.43
-72.39
-67.28
-59.89
-51.53
-43.58
-37.13
-32.61
-29.84
-28.08
-26.46
-24.23
-20.92
-16.51
-11.31
-5.87
-0.83
3.32
6.35
8.40
9.83
11.13
12.69
14.68
17.05
19.63
22.16
24.35
25.86
26.40
25.78
24.04
21.49
18.67
16.12
14.20
12.97
12.23
11.66
10.98
10.04
8.82
7.27
5.38
3.11
0.55
-1.97
-3.91
-4.58
-3.48
-0.44
4.16
9.56
14.83
19.26
22.57
24.93
26.73
28.21
29.31
29.58
28.42
25.32
20.18
13.38
5.77
-1.53
-7.39
-10.93
-11.75
-9.97
-6.26
-1.67
2.68
5.81
7.13
6.48
4.14
0.68
-3.25
-7.09
-10.46
-13.24
-15.46
-17.17
-18.24
-18.39
-17.24
-14.63
-10.80
-6.47
-2.62
-0.09
0.89
0.85
0.88
2.03
4.83
9.01
13.67
17.71
20.34
21.21
20.39
18.04
14.37
9.59
4.17
-1.13
-5.43
-7.96
-8.39
-6.92
-4.07
-0.56
2.93
5.75
7.33
7.25
5.31
1.73
-2.88
-7.61
-11.55
-14.01
-14.73
-13.75
-11.40
-8.15
-4.47
-0.83
2.41
4.97
6.76
7.77
8.09
7.80
6.95
5.62
3.97
2.23
0.63
-0.71
-1.92
-3.37
-5.49
-8.57
-12.55
-17.05
-21.45
-25.19
-27.86
-29.34
-29.71
-29.16
-27.93
-26.22
-24.25
-22.15
-20.00
-17.76
-15.26
-12.31
-8.89
-5.30
-2.24
-0.59
-0.96
-3.32
-6.92
-10.59
-13.22
-14.18
-13.40
-11.06
-7.22
-1.77
5.40
13.96
22.98
31.05
36.92
40.03
40.64
39.61
37.83
35.80
33.63
31.22
28.58
25.98
23.84
22.48
21.95
22.04
22.41
22.72
22.82
22.70
22.45
22.17
21.92
21.77
21.75
21.92
22.31
22.92
23.65
24.27
24.49
24.00
22.64
20.40
17.53
14.36
11.34
8.83
7.01
5.88
5.24
4.83
4.42
3.92
3.38
2.96
2.75
2.75
2.87
3.02
3.13
3.23
3.31
3.25
2.77
1.51
-0.74
-3.91
-7.68
-11.60
-15.35
-18.89
-22.36
-25.87
-29.31
-32.38
-34.73
-36.20
-36.95
-37.33
-37.62
-37.87
-37.83
-37.17
-35.67
-33.43
-30.78
-28.07
-25.52
-23.06
-20.55
-17.82
-14.89
-11.96
-9.32
-7.19
-5.63
-4.46
-3.41
-2.09
-0.27
2.13
5.01
8.12
11.22
14.06
16.47
18.38
19.77
20.68
21.24
21.59
21.86
22.11
22.30
22.27
21.84
20.86
19.35
17.41
15.28
13.18
11.30
9.71
8.40
7.33
6.42
5.67
5.14
4.98
5.22
5.81
6.41
6.59
5.92
4.10
1.10
-2.89
-7.51
-12.21
-16.30
-19.00
-19.66
-17.98
-14.29
-9.45
-4.62
-0.71
1.92
3.52
4.74
6.14
7.86
9.53
10.48
10.02
7.74
3.70
-1.57
-7.25
-12.45
-16.54
-19.33
-20.99
-21.83
-22.05
-21.55
-20.13
-17.69
-14.52
-11.21
-8.46
-6.63
-5.65
-5.08
-4.43
-3.53
-2.59
-1.97
-1.94
-2.39
-2.93
-3.04
-2.49
-1.47
-0.54
-0.38
-1.47
-3.88
-7.15
-10.54
-13.22
-14.64
-14.63
-13.37
-11.35
-9.05
-6.82
-4.81
-3.02
-1.38
0.08
1.29
2.16
2.63
2.81
2.85
2.92
3.16
3.58
4.11
4.68
5.13
5.31
5.14
4.57
3.67
2.59
1.47
0.38
-0.71
-1.90
-3.26
-4.65
-5.86
-6.61
-6.81
-6.60
-6.31
-6.31
-6.71
-7.36
-7.85
-7.85
-7.28
-6.40
-5.67
-5.53
-6.13
-7.26
-8.57
-9.71
-10.54
-11.13
-11.66
-12.19
-12.64
-12.75
-12.26
-11.04
-9.11
-6.73
-4.24
-2.04
-0.47
0.32
0.36
-0.07
-0.58
-0.79
-0.50
0.29
1.37
2.46
3.33
3.85
4.02
3.91
3.62
3.27
2.93
2.71
2.63
2.71
2.89
3.08
3.18
3.05
2.59
1.75
0.60
-0.68
-1.84
-2.65
-3.03
-3.11
-3.14
-3.34
-3.88
-4.71
-5.69
-6.70
-7.61
-8.37
-8.92
-9.15
-8.96
-8.31
-7.22
-5.84
-4.31
-2.78
-1.32
0.04
1.25
2.21
2.80
2.92
2.50
1.58
0.34
-0.93
-1.97
-2.60
-2.72
-2.40
-1.73
-0.83
0.20
1.31
2.33
3.12
3.46
3.22
2.39
1.09
-0.44
-1.97
-3.32
-4.45
-5.32
-5.94
-6.29
-6.36
-6.23
-6.06
-6.05
-6.32
-6.86
-7.51
-8.09
-8.52
-8.83
-9.13
-9.54
-10.07
-10.68
-11.31
-11.96
-12.70
-13.65
-14.87
-16.40
-18.18
-20.09
-21.91
-23.31
-23.87
-23.24
-21.26
-18.02
-13.86
-9.19
-4.35
0.45
5.07
9.33
12.98
15.67
17.16
17.37
16.53
15.13
13.76
12.98
13.11
14.18
15.87
17.66
19.05
19.75
19.77
19.36
18.89
18.62
18.64
18.83
18.98
18.82
18.10
16.69
14.54
11.83
8.96
6.50
5.01
4.85
6.02
8.17
10.74
13.18
15.11
16.36
16.92
16.84
16.19
15.02
13.37
11.35
9.13
6.91
4.88
3.16
1.83
0.81
0.00
-0.76
-1.64
-2.77
-4.18
-5.85
-7.73
-9.74
-11.79
-13.77
-15.52
-16.91
-17.84
-18.32
-18.42
-18.22
-17.74
-16.95
-15.82
-14.40
-12.88
-11.57
-10.78
-10.78
-11.65
-13.30
-15.43
-17.63
-19.40
-20.29
-20.02
-18.54
-16.11
-13.13
-10.12
-7.50
-5.54
-4.37
-3.96
-4.14
-4.63
-5.04
-4.99
-4.30
-2.99
-1.42
-0.09
0.64
0.61
0.02
-0.70
-1.10
-0.93
-0.24
0.66
1.37
1.53
0.98
-0.22
-1.89
-3.72
-5.48
-7.03
-8.33
-9.43
-10.44
-11.45
-12.52
-13.60
-14.58
-15.27
-15.53
-15.33
-14.74
-13.96
-13.23
-12.74
-12.54
-12.63
-12.90
-13.25
-13.58
-13.78
-13.78
-13.51
-12.97
-12.29
-11.70
-11.52
-12.01
-13.25
-15.05
-17.00
-18.61
-19.50
-19.48
-18.58
-17.06
-15.24
-13.48
-12.10
-11.34
-11.28
-11.80
-12.60
-13.27
-13.47
-13.02
-11.93
-10.38
-8.62
-6.92
-5.49
-4.49
-3.92
-3.62
-3.28
-2.57
-1.23
0.70
2.98
5.23
7.12
8.57
9.70
10.82
12.21
13.98
15.98
17.91
19.40
20.21
20.38
20.19
20.08
20.39
21.20
22.24
22.97
22.73
21.03
17.68
12.98
7.69
2.89
-0.30
-1.15
0.45
3.86
7.98
11.69
14.28
15.60
16.03
16.07
16.08
16.21
16.44
16.80
17.37
18.21
19.26
20.28
21.03
21.38
21.43
21.50
21.92
22.87
24.26
25.84
27.24
28.13
28.30
27.73
26.51
24.85
23.03
21.30
19.79
18.49
17.31
16.19
15.21
14.50
14.15
14.03
13.85
13.26
12.08
10.40
8.61
7.14
6.35
6.41
7.23
8.64
10.35
12.02
13.23
13.62
12.96
11.30
8.97
6.43
4.05
1.99
0.15
-1.52
-2.97
-3.95
-4.14
-3.39
-1.85
0.09
1.94
3.28
3.80
3.39
2.01
-0.25
-3.22
-6.57
-9.83
-12.54
-14.28
-14.85
-14.25
-12.71
-10.59
-8.28
-6.17
-4.55
-3.48
-2.91
-2.66
-2.58
-2.60
-2.71
-2.92
-3.25
-3.68
-4.22
-4.95
-5.98
-7.45
-9.37
-11.58
-13.73
-15.36
-16.08
-15.69
-14.23
-11.97
-9.29
-6.42
-3.53
-0.69
1.93
3.99
5.10
5.04
3.89
2.05
0.08
-1.60
-2.93
-4.11
-5.36
-6.73
-7.94
-8.57
-8.34
-7.32
-5.96
-4.86
-4.53
-5.14
-6.59
-8.51
-10.55
-12.40
-13.85
-14.80
-15.20
-15.06
-14.53
-13.85
-13.32
-13.13
-13.27
-13.41
-13.03
-11.59
-8.85
-5.01
-0.75
3.03
5.42
5.83
4.21
1.08
-2.59
-5.51
-6.53
-4.86
-0.42
6.18
13.78
21.06
26.78
30.11
30.73
28.77
24.87
19.93
15.00
11.00
8.48
7.50
7.67
8.35
8.91
8.89
8.15
6.79
5.09
3.42
2.19
1.61
1.64
1.83
1.51
0.11
-2.48
-5.65
-8.28
-9.22
-7.84
-4.35
0.19
4.40
7.11
7.84
6.84
4.91
2.92
1.55
1.14
1.61
2.73
4.18
5.69
7.03
8.12
8.88
9.18
8.93
8.01
6.40
4.26
1.86
-0.52
-2.66
-4.54
-6.28
-7.96
-9.56
-10.94
-11.92
-12.46
-12.71
-12.92
-13.30
-13.79
-14.04
-13.60
-12.12
-9.57
-6.28
-2.78
0.41
2.99
4.93
6.36
7.52
8.53
9.44
10.20
10.74
11.05
11.15
11.15
11.14
11.18
11.30
11.46
11.60
11.69
11.66
11.46
11.04
10.33
9.37
8.28
7.24
6.43
5.87
5.46
4.97
4.13
2.79
0.98
-1.16
-3.42
-5.64
-7.74
-9.68
-11.47
-13.10
-14.58
-15.97
-17.39
-19.08
-21.24
-23.98
-27.14
-30.30
-32.73
-33.68
-32.59
-29.35
-24.36
-18.46
-12.65
-7.79
-4.47
-3.01
-3.47
-5.69
-9.30
-13.66
-17.92
-21.23
-22.88
-22.58
-20.40
-16.73
-12.10
-7.13
-2.49
1.20
3.40
3.94
3.04
1.31
-0.55
-2.00
-2.84
-3.23
-3.37
-3.34
-2.99
-2.11
-0.54
1.63
4.12
6.55
8.60
10.03
10.74
10.70
9.96
8.72
7.31
6.09
5.36
5.21
5.50
5.88
5.99
5.65
4.90
4.00
3.29
3.04
3.37
4.23
5.49
6.99
8.65
10.38
12.05
13.49
14.53
15.07
15.21
15.11
14.89
14.51
13.76
12.45
10.51
8.19
5.99
4.35
3.54
3.40
3.50
3.33
2.57
1.17
-0.71
-2.80
-4.95
-7.08
-9.21
-11.25
-13.04
-14.33
-14.82
-14.42
-13.20
-11.44
-9.49
-7.66
-6.17
-5.19
-5.00
-5.94
-8.37
-12.46
-17.96
-24.16
-30.03
-34.58
-37.21
-37.86
-36.96
-35.02
-32.46
-29.39
-25.89
-22.06
-18.21
-14.68
-11.66
-9.02
-6.44
-3.64
-0.66
2.07
3.97
4.65
4.17
3.03
1.89
1.31
1.53
2.54
4.16
6.18
8.47
10.94
13.65
16.84
20.98
26.66
34.38
44.24
55.65
67.28
77.32
83.98
86.08
83.44
76.98
68.30
59.10
50.58
43.22
36.86
31.14
25.90
21.28
17.60
15.05
13.49
12.50
11.56
10.33
8.74
6.97
5.23
3.68
2.30
0.91
-0.75
-2.92
-5.72
-9.03
-12.44
-15.34
-17.15
-17.52
-16.52
-14.61
-12.43
-10.48
-8.93
-7.66
-6.38
-4.89
-3.19
-1.44
0.13
1.29
1.86
1.66
0.56
-1.46
-4.20
-7.24
-10.03
-12.16
-13.42
-13.83
-13.43
-12.03
-9.25
-4.69
1.75
9.62
17.96
25.66
31.85
36.16
38.70
39.83
39.80
38.63
36.12
32.08
26.53
19.83
12.61
5.59
-0.58
-5.42
-8.67
-10.31
-10.53
-9.71
-8.40
-7.23
-6.65
-6.89
-7.87
-9.28
-10.75
-12.02
-12.95
-13.52
-13.69
-13.41
-12.55
-11.01
-8.82
-6.20
-3.52
-1.20
0.47
1.41
1.79
1.92
2.09
2.50
3.14
3.86
4.50
4.97
5.29
5.53
5.71
5.70
5.38
4.66
3.67
2.75
2.25
2.39
3.11
4.08
4.87
5.18
4.90
4.14
3.05
1.76
0.26
-1.54
-3.73
-6.33
-9.32
-12.56
-15.85
-18.84
-21.11
-22.30
-22.15
-20.71
-18.28
-15.35
-12.41
-9.79
-7.58
-5.69
-4.02
-2.50
-1.19
-0.21
0.37
0.61
0.72
0.99
1.58
2.52
3.62
4.61
5.28
5.53
5.39
4.95
4.30
3.48
2.49
1.34
0.10
-1.14
-2.30
-3.22
-3.77
-3.82
-3.34
-2.47
-1.53
-0.92
-0.94
-1.68
-2.98
-4.51
-6.01
-7.34
-8.62
-10.06
-11.81
-13.94
-16.31
-18.70
-20.80
-22.29
-22.86
-22.35
-20.76
-18.29
-15.30
-12.19
-9.30
-6.84
-4.96
-3.72
-3.18
-3.29
-3.93
-4.85
-5.68
-6.09
-5.89
-5.02
-3.60
-1.83
0.09
2.00
3.77
5.38
6.84
8.23
9.63
11.09
12.58
14.03
15.25
16.09
16.39
16.06
15.13
13.66
11.80
9.73
7.68
5.85
4.37
3.29
2.46
1.67
0.64
-0.79
-2.66
-4.84
-7.14
-9.45
-11.75
-14.13
-16.63
-19.16
-21.42
-22.96
-23.40
-22.56
-20.53
-17.59
-14.13
-10.49
-6.91
-3.58
-0.75
1.30
2.35
2.36
1.59
0.56
-0.14
-0.08
0.82
2.32
4.01
5.57
6.88
8.00
9.01
9.91
10.59
10.84
10.62
10.01
9.22
8.45
7.75
7.08
6.32
5.48
4.64
3.93
3.36
2.77
1.85
0.35
-1.76
-4.20
-6.46
-8.14
-9.09
-9.55
-9.93
-10.57
-11.49
-12.40
-12.88
-12.69
-11.94
-10.99
-10.26
-9.89
-9.68
-9.16
-7.91
-5.78
-3.02
-0.16
2.22
3.73
4.28
4.09
3.53
3.02
2.83
3.07
3.68
4.55
5.51
6.45
7.27
7.89
8.24
8.30
8.12
7.81
7.48
7.14
6.71
6.03
4.99
3.62
2.13
0.84
0.00
-0.27
-0.09
0.28
0.60
0.75
0.74
0.61
0.35
-0.16
-1.04
-2.37
-3.98
-5.55
-6.78
-7.49
-7.85
-8.20
-8.89
-10.00
-11.20
-11.94
-11.70
-10.23
-7.73
-4.67
-1.65
0.91
2.75
3.79
4.02
3.52
2.45
1.18
0.16
-0.20
0.32
1.57
3.15
4.53
5.30
5.36
4.89
4.24
3.69
3.33
3.08
2.75
2.16
1.28
0.19
-0.93
-1.96
-2.79
-3.42
-3.82
-4.05
-4.17
-4.32
-4.70
-5.48
-6.75
-8.46
-10.46
-12.61
-14.89
-17.31
-19.97
-22.96
-26.40
-30.39
-34.89
-39.63
-43.99
-47.10
-48.07
-46.31
-41.77
-34.99
-26.85
-18.32
-10.17
-2.94
3.10
7.84
11.31
13.76
15.53
17.04
18.62
20.42
22.38
24.29
25.89
26.89
27.09
26.45
25.06
23.22
21.29
19.57
18.19
17.06
15.96
14.72
13.31
11.85
10.55
9.47
8.62
7.90
7.18
6.48
5.91
5.60
5.62
5.95
6.37
6.62
6.42
5.56
4.01
1.88
-0.53
-2.84
-4.64
-5.58
-5.46
-4.26
-2.09
0.78
3.97
7.06
9.60
11.24
11.82
11.40
10.21
8.63
7.05
5.76
4.88
4.39
4.18
4.16
4.24
4.37
4.47
4.45
4.24
3.85
3.42
3.19
3.38
4.03
4.96
5.80
6.19
5.97
5.24
4.23
3.21
2.25
1.23
0.01
-1.42
-2.93
-4.29
-5.40
-6.40
-7.55
-9.13
-11.13
-13.23
-14.90
-15.64
-15.20
-13.70
-11.50
-9.03
-6.62
-4.44
-2.52
-0.96
0.15
0.69
0.67
0.26
-0.26
-0.60
-0.61
-0.34
0.03
0.33
0.51
0.64
0.86
1.28
1.87
2.49
2.98
3.21
3.14
2.84
2.41
1.95
1.51
1.08
0.63
0.11
-0.48
-1.10
-1.68
-2.22
-2.79
-3.55
-4.58
-5.82
-7.11
-8.18
-8.87
-9.17
-9.23
-9.16
-8.92
-8.32
-7.04
-4.93
-2.04
1.33
4.75
7.87
10.55
12.83
14.85
16.69
18.36
19.75
20.76
21.39
21.78
22.12
22.67
23.58
24.81
26.11
26.99
26.92
25.43
22.36
17.88
12.53
7.01
1.92
-2.38
-5.87
-8.74
-11.26
-13.55
-15.61
-17.38
-18.82
-20.03
-21.10
-22.08
-22.85
-23.25
-23.16
-22.69
-22.19
-22.08
-22.67
-23.92
-25.51
-26.96
-27.86
-28.02
-27.52
-26.47
-24.94
-22.94
-20.39
-17.39
-14.17
-11.16
-8.72
-7.05
-6.08
-5.56
-5.21
-4.80
-4.23
-3.46
-2.47
-1.22
0.29
1.92
3.46
4.69
5.51
5.99
6.37
6.81
7.36
7.79
7.77
6.99
5.37
3.15
0.72
-1.45
-3.11
-4.24
-5.07
-5.87
-6.83
-7.94
-9.00
-9.79
-10.15
-10.11
-9.77
-9.20
-8.35
-7.04
-5.16
-2.69
0.13
2.90
5.18
6.67
7.32
7.28
6.86
6.37
6.09
6.15
6.65
7.51
8.59
9.67
10.53
11.01
11.09
10.94
10.73
10.63
10.61
10.51
10.10
9.28
8.16
7.05
6.25
5.98
6.17
6.54
6.78
6.69
6.19
5.32
4.10
2.52
0.55
-1.74
-4.16
-6.46
-8.44
-10.04
-11.32
-12.36
-13.21
-13.78
-13.88
-13.39
-12.29
-10.74
-9.00
-7.36
-6.08
-5.27
-4.98
-5.20
-5.83
-6.73
-7.77
-8.73
-9.39
-9.60
-9.24
-8.36
-7.12
-5.74
-4.42
-3.31
-2.43
-1.82
-1.50
-1.54
-1.97
-2.75
-3.72
-4.68
-5.56
-6.35
-7.20
-8.19
-9.31
-10.43
-11.42
-12.29
-13.26
-14.61
-16.53
-18.87
-21.09
-22.40
-22.10
-19.77
-15.50
-9.90
-3.89
1.63
6.06
9.30
11.72
13.92
16.35
19.06
21.60
23.23
23.40
22.02
19.65
17.31
16.04
16.42
18.39
21.27
24.18
26.40
27.63
27.93
27.52
26.52
24.85
22.40
19.19
15.54
11.96
8.94
6.73
5.26
4.23
3.36
2.55
1.86
1.37
1.02
0.57
-0.32
-1.86
-4.03
-6.45
-8.57
-9.79
-9.71
-8.25
-5.65
-2.42
0.72
3.09
4.16
3.74
2.08
-0.26
-2.58
-4.30
-5.13
-5.11
-4.46
-3.39
-1.95
-0.05
2.38
5.23
8.08
10.37
11.51
11.15
9.24
6.06
2.06
-2.20
-6.20
-9.52
-11.91
-13.34
-14.01
-14.26
-14.41
-14.61
-14.80
-14.75
-14.30
-13.42
-12.25
-10.93
-9.50
-7.83
-5.75
-3.26
-0.57
1.96
4.12
5.93
7.64
9.54
11.74
14.07
16.15
17.72
18.71
19.25
19.52
19.59
19.27
18.37
16.79
14.64
12.28
10.08
8.25
6.75
5.35
3.70
1.55
-1.16
-4.35
-7.79
-11.20
-14.20
-16.40
-17.41
-17.04
-15.34
-12.73
-9.81
-7.13
-5.02
-3.44
-2.11
-0.75
0.73
2.13
3.05
3.20
2.50
1.21
-0.14
-1.04
-1.13
-0.40
0.87
2.23
3.32
4.03
4.51
5.13
6.23
7.90
9.95
11.94
13.35
13.83
13.36
12.16
10.67
9.23
7.94
6.63
4.89
2.42
-0.90
-4.86
-9.08
-13.08
-16.46
-18.95
-20.32
-20.42
-19.18
-16.66
-13.16
-9.14
-5.16
-1.68
1.07
3.09
4.56
5.70
6.63
7.31
7.73
7.78
7.46
6.85
6.14
5.61
5.55
6.21
7.61
9.50
11.38
12.72
13.19
12.77
11.79
10.72
9.95
9.62
9.56
9.44
8.96
7.93
6.30
4.12
1.46
-1.59
-4.87
-8.18
-11.24
-13.82
-15.74
-16.90
-17.29
-16.95
-15.99
-14.60
-13.00
-11.38
-9.87
-8.42
-6.88
-5.02
-2.72
0.01
2.95
5.79
8.28
10.31
11.92
13.23
14.30
15.07
15.35
14.98
13.84
12.03
9.78
7.45
5.36
3.83
3.02
2.99
3.67
4.84
6.21
7.45
8.27
8.55
8.23
7.36
6.09
4.64
3.36
2.66
2.88
4.18
6.43
9.24
12.06
14.35
15.71
15.98
15.18
13.50
11.24
8.79
6.54
4.87
4.01
4.06
4.91
6.30
7.89
9.32
10.38
10.95
11.12
11.06
10.91
10.76
10.58
10.34
10.01
9.61
9.22
8.84
8.39
7.68
6.45
4.53
1.86
-1.37
-4.88
-8.27
-11.16
-13.27
-14.43
-14.64
-14.08
-13.06
-12.10
-11.77
-12.58
-14.84
-18.52
-23.16
-28.08
-32.49
-35.77
-37.60
-37.99
-37.15
-35.37
-32.82
-29.52
-25.39
-20.40
-14.71
-8.68
-2.87
2.21
6.23
9.13
11.09
12.34
13.08
13.37
13.22
12.73
12.10
11.64
11.58
11.95
12.49
12.70
12.10
10.43
7.82
4.71
1.77
-0.45
-1.72
-2.16
-2.13
-1.96
-1.82
-1.63
-1.18
-0.30
1.03
2.72
4.62
6.62
8.61
10.45
11.91
12.69
12.58
11.57
9.91
8.01
6.26
4.92
4.03
3.48
3.11
2.78
2.41
1.99
1.64
1.52
1.91
3.03
5.00
7.64
10.53
13.11
14.84
15.34
14.55
12.66
10.03
7.12
4.34
2.02
0.31
-0.80
-1.54
-2.26
-3.29
-4.82
-6.80
-8.94
-10.83
-12.07
-12.39
-11.71
-10.14
-7.96
-5.52
-3.20
-1.27
0.12
1.01
1.55
1.95
2.31
2.70
3.06
3.29
3.35
3.21
2.95
2.73
2.70
2.96
3.53
4.37
5.29
6.14
6.75
7.01
6.90
6.48
5.85
5.16
4.56
4.14
3.96
3.92
3.84
3.51
2.76
1.58
0.15
-1.27
-2.47
-3.34
-3.99
-4.62
-5.42
-6.44
-7.55
-8.54
-9.20
-9.43
-9.23
-8.58
-7.42
-5.65
-3.23
-0.30
2.78
5.49
7.38
8.19
7.96
7.03
5.88
5.04
4.91
5.67
7.22
9.22
11.19
12.66
13.33
13.15
12.31
11.06
9.68
8.33
7.05
5.83
4.63
3.43
2.22
0.95
-0.45
-2.03
-3.76
-5.53
-7.17
-8.43
-9.13
-9.27
-9.03
-8.75
-8.81
-9.49
-10.82
-12.59
-14.44
-16.00
-17.00
-17.25
-16.76
-15.56
-13.77
-11.57
-9.18
-6.82
-4.68
-2.89
-1.47
-0.35
0.55
1.30
1.88
2.28
2.47
2.50
2.49
2.62
3.07
3.91
5.08
6.44
7.77
8.92
9.78
10.31
10.52
10.41
10.02
9.41
8.63
7.80
6.97
6.21
5.56
5.07
4.69
4.43
4.21
3.93
3.46
2.69
1.60
0.26
-1.12
-2.38
-3.43
-4.28
-5.11
-6.00
-6.94
-7.73
-8.07
-7.71
-6.57
-4.80
-2.69
-0.58
1.28
2.74
3.73
4.21
4.24
4.01
3.87
4.29
5.70
8.28
11.81
15.66
18.87
20.49
19.83
16.77
11.76
5.65
-0.60
-6.33
-11.23
-15.35
-18.91
-22.04
-24.73
-26.83
-28.26
-29.15
-29.86
-30.84
-32.37
-34.45
-36.74
-38.70
-39.81
-39.77
-38.45
-35.92
-32.28
-27.64
-22.21
-16.37
-10.71
-5.90
-2.47
-0.57
0.15
0.37
0.83
1.96
3.79
5.92
7.82
9.11
9.76
10.05
10.44
11.36
12.99
15.22
17.67
19.84
21.25
21.53
20.52
18.30
15.20
11.73
8.41
5.68
3.64
2.17
0.92
-0.40
-1.91
-3.44
-4.66
-5.22
-4.91
-3.75
-2.00
-0.06
1.72
3.14
4.20
5.02
5.72
6.30
6.62
6.53
5.96
5.04
4.08
3.40
3.16
3.33
3.68
3.98
4.09
4.01
3.82
3.62
3.47
3.39
3.38
3.34
3.10
2.38
0.92
-1.38
-4.39
-7.72
-10.93
-13.64
-15.69
-17.17
-18.26
-19.13
-19.83
-20.33
-20.61
-20.67
-20.57
-20.30
-19.78
-18.88
-17.48
-15.56
-13.25
-10.77
-8.37
-6.22
-4.43
-3.00
-1.86
-0.89
0.11
1.37
3.06
5.16
7.46
9.54
11.03
11.72
11.66
11.12
10.41
9.73
9.10
8.44
7.67
6.78
5.85
4.96
4.14
3.35
2.54
1.71
0.90
0.21
-0.33
-0.80
-1.36
-2.21
-3.52
-5.27
-7.30
-9.35
-11.18
-12.65
-13.74
-14.48
-14.87
-14.81
-14.19
-12.90
-11.01
-8.71
-6.28
-4.01
-2.08
-0.54
0.60
1.42
2.00
2.43
2.83
3.36
4.12
5.15
6.37
7.67
8.85
9.72
10.15
10.05
9.52
8.75
8.02
7.56
7.48
7.71
7.98
8.01
7.55
6.57
5.20
3.69
2.34
1.29
0.56
-0.00
-0.59
-1.38
-2.45
-3.77
-5.25
-6.80
-8.41
-10.13
-12.01
-13.99
-15.91
-17.47
-18.38
-18.46
-17.69
-16.25
-14.40
-12.43
-10.53
-8.76
-7.12
-5.59
-4.28
-3.38
-3.11
-3.46
-4.12
-4.51
-3.96
-2.11
0.99
4.80
8.55
11.63
13.83
15.36
16.64
17.96
19.28
20.23
20.38
19.45
17.54
15.09
12.68
10.77
9.49
8.69
8.04
7.20
6.03
4.55
2.87
1.13
-0.63
-2.40
-4.13
-5.73
-7.05
-8.00
-8.58
-8.99
-9.53
-10.46
-11.86
-13.52
-14.96
-15.58
-14.91
-12.83
-9.61
-5.85
-2.29
0.50
2.25
3.09
3.36
3.43
3.56
3.76
3.96
4.10
4.33
4.89
5.99
7.64
9.55
11.29
12.44
12.90
12.88
12.77
12.88
13.26
13.66
13.72
13.20
12.17
10.92
9.79
8.96
8.35
7.72
6.85
5.69
4.42
3.24
2.26
1.36
0.25
-1.27
-3.25
-5.48
-7.65
-9.48
-10.91
-12.03
-13.00
-13.86
-14.45
-14.51
-13.78
-12.20
-9.91
-7.22
-4.45
-1.78
0.74
3.06
5.11
6.67
7.44
7.27
6.23
4.66
3.11
2.09
1.89
2.47
3.54
4.71
5.65
6.27
6.66
7.04
7.58
8.27
8.94
9.33
9.26
8.74
7.96
7.15
6.46
5.85
5.17
4.28
3.16
1.95
0.86
0.06
-0.41
-0.64
-0.82
-1.12
-1.65
-2.46
-3.57
-4.94
-6.49
-8.11
-9.67
-11.09
-12.33
-13.34
-14.01
-14.16
-13.53
-11.91
-9.27
-5.85
-2.12
1.34
4.10
5.94
6.97
7.46
7.71
7.93
8.19
8.48
8.77
9.04
9.32
9.55
9.68
9.61
9.31
8.84
8.31
7.84
7.42
7.02
6.53
5.95
5.35
4.81
4.38
3.97
3.42
2.64
1.68
0.72
-0.07
-0.58
-0.91
-1.29
-1.92
-2.87
-4.10
-5.41
-6.68
-7.79
-8.73
-9.56
-10.32
-10.98
-11.47
-11.59
-11.11
-9.90
-8.04
-5.80
-3.66
-2.04
-1.20
-1.09
-1.47
-2.00
-2.46
-2.72
-2.75
-2.58
-2.17
-1.48
-0.47
0.86
2.42
4.05
5.59
6.83
7.64
7.94
7.73
7.07
6.07
4.88
3.68
2.65
1.96
1.65
1.61
1.63
1.46
0.98
0.20
-0.73
-1.65
-2.48
-3.25
-4.07
-5.02
-6.17
-7.48
-8.91
-10.38
-11.78
-12.93
-13.60
-13.61
-12.86
-11.42
-9.51
-7.38
-5.32
-3.50
-2.05
-1.04
-0.44
-0.21
-0.24
-0.34
-0.35
-0.10
0.43
1.22
2.12
3.00
3.78
4.44
5.08
5.76
6.43
6.88
6.77
5.81
3.95
1.52
-0.91
-2.74
-3.59
-3.41
-2.50
-1.27
-0.06
0.90
1.47
1.57
1.09
-0.02
-1.73
-3.91
-6.36
-8.81
-11.04
-12.80
-13.88
-14.21
-13.90
-13.24
-12.51
-11.78
-10.90
-9.52
-7.41
-4.61
-1.54
1.22
3.26
4.49
5.17
5.64
6.15
6.70
7.15
7.44
7.61
7.83
8.20
8.68
9.16
9.55
9.89
10.32
10.93
11.67
12.24
12.30
11.64
10.29
8.52
6.65
4.87
3.23
1.66
0.11
-1.34
-2.54
-3.37
-3.86
-4.22
-4.70
-5.50
-6.68
-8.11
-9.55
-10.76
-11.52
-11.72
-11.32
-10.36
-8.96
-7.26
-5.45
-3.75
-2.30
-1.21
-0.48
-0.02
0.31
0.64
1.05
1.54
2.05
2.50
2.86
3.15
3.43
3.76
4.14
4.55
4.95
5.33
5.74
6.18
6.61
6.89
6.91
6.55
5.85
4.92
3.94
3.01
2.08
1.05
-0.20
-1.71
-3.35
-4.90
-6.11
-6.82
-7.08
-7.01
-6.84
-6.83
-7.15
-7.91
-9.11
-10.58
-12.02
-13.05
-13.37
-12.82
-11.53
-9.79
-7.88
-6.01
-4.19
-2.35
-0.53
1.09
2.23
2.69
2.54
2.15
1.98
2.38
3.42
4.82
6.21
7.28
7.98
8.40
8.72
8.98
9.10
8.93
8.40
7.55
6.61
5.79
5.25
5.02
5.01
5.06
5.03
4.81
4.37
3.73
2.91
2.00
1.08
0.20
-0.66
-1.62
-2.81
-4.40
-6.41
-8.74
-11.11
-13.20
-14.65
-15.28
-15.03
-14.02
-12.52
-10.82
-9.21
-7.90
-6.94
-6.27
-5.69
-4.99
-4.01
-2.70
-1.17
0.38
1.69
2.54
2.88
2.82
2.65
2.73
3.37
4.59
6.17
7.67
8.64
8.75
8.02
6.67
5.11
3.69
2.62
1.95
1.58
1.40
1.34
1.34
1.32
1.19
0.87
0.28
-0.57
-1.64
-2.89
-4.32
-6.03
-8.10
-10.51
-13.08
-15.47
-17.25
-18.10
-17.91
-16.83
-15.16
-13.28
-11.49
-9.93
-8.63
-7.47
-6.41
-5.46
-4.78
-4.57
-4.96
-5.97
-7.35
-8.63
-9.28
-8.88
-7.25
-4.64
-1.62
1.01
2.52
2.45
0.77
-2.16
-5.69
-9.11
-11.74
-13.09
-12.91
-11.25
-8.45
-5.08
-1.79
0.86
2.60
3.51
3.86
4.04
4.31
4.81
5.56
6.56
7.76
8.99
9.95
10.19
9.28
7.09
3.90
0.47
-2.29
-3.51
-2.77
-0.25
3.37
7.17
10.34
12.47
13.61
14.09
14.33
14.63
15.13
15.94
17.12
18.77
20.84
23.16
25.32
26.93
27.69
27.52
26.60
25.14
23.35
21.26
18.78
15.73
11.97
7.46
2.31
-3.11
-8.27
-12.50
-15.28
-16.31
-15.67
-13.77
-11.21
-8.60
-6.44
-5.03
-4.49
-4.79
-5.89
-7.69
-10.03
-12.59
-14.87
-16.26
-16.23
-14.52
-11.31
-7.19
-2.94
0.72
3.36
4.87
5.40
5.15
4.27
2.87
1.07
-0.96
-3.07
-5.16
-7.22
-9.22
-11.00
-12.18
-12.22
-10.67
-7.40
-2.77
2.47
7.48
11.57
14.50
16.39
17.52
18.17
18.50
18.47
18.03
17.11
15.61
13.41
10.41
6.59
2.19
-2.28
-6.14
-8.76
-9.76
-9.22
-7.58
-5.47
-3.48
-2.04
-1.27
-1.11
-1.38
-1.84
-2.25
-2.39
-2.12
-1.40
-0.38
0.62
1.09
0.47
-1.74
-5.81
-11.66
-18.83
-26.49
-33.56
-38.97
-41.97
-42.31
-40.32
-36.86
-32.96
-29.44
-26.78
-25.05
-24.08
-23.67
-23.64
-23.85
-24.10
-24.05
-23.30
-21.60
-18.89
-15.29
-11.07
-6.40
-1.35
4.04
9.67
15.27
20.47
24.90
28.27
30.50
31.60
31.64
30.76
29.13
27.03
24.79
22.68
20.85
19.24
17.70
16.13
14.59
13.23
12.23
11.61
11.23
10.74
9.82
8.29
6.18
3.78
1.45
-0.42
-1.55
-1.78
-1.12
0.24
2.01
3.73
4.96
5.33
4.64
2.96
0.54
-2.21
-4.88
-7.22
-9.16
-10.85
-12.56
-14.50
-16.76
-19.17
-21.48
-23.38
-24.72
-25.56
-26.06
-26.35
-26.44
-26.21
-25.46
-24.17
-22.54
-20.95
-19.77
-19.12
-18.77
-18.32
-17.40
-15.92
-14.16
-12.50
-11.15
-10.06
-8.91
-7.32
-5.04
-2.04
1.50
5.32
9.14
12.70
15.70
17.89
19.13
19.50
19.28
18.87
18.58
18.50
18.62
18.79
18.92
18.98
18.93
18.70
18.18
17.23
15.86
14.16
12.36
10.73
9.56
9.03
9.21
10.00
11.12
12.17
12.72
12.37
10.95
8.58
5.64
2.66
0.09
-1.75
-2.80
-3.16
-2.92
-2.09
-0.60
1.65
4.63
8.19
11.92
15.38
18.18
20.12
21.18
21.50
21.29
20.72
19.94
19.09
18.33
17.84
17.76
18.20
19.09
20.19
21.26
22.03
22.40
22.42
22.29
22.27
22.54
23.14
23.95
24.76
25.33
25.59
25.55
25.30
24.87
24.20
23.13
21.57
19.53
17.25
15.01
13.07
11.49
10.08
8.52
6.51
3.96
1.04
-1.82
-4.19
-5.65
-6.05
-5.46
-4.09
-2.23
-0.16
1.89
3.74
5.19
6.07
6.30
5.93
5.12
4.12
3.20
2.55
2.24
2.25
2.51
2.92
3.37
3.77
4.02
4.07
3.90
3.58
3.17
2.70
2.18
1.63
1.05
0.53
0.16
-0.03
-0.06
-0.09
-0.27
-0.68
-1.31
-2.11
-3.05
-4.13
-5.42
-6.98
-8.81
-10.87
-13.10
-15.44
-17.84
-20.18
-22.31
-24.01
-25.05
-25.28
-24.70
-23.44
-21.77
-20.02
-18.49
-17.39
-16.78
-16.56
-16.60
-16.81
-17.17
-17.73
-18.46
-19.19
-19.60
-19.34
-18.13
-15.99
-13.20
-10.19
-7.37
-5.02
-3.28
-2.16
-1.65
-1.75
-2.40
-3.38
-4.36
-4.98
-4.98
-4.32
-3.16
-1.82
-0.57
0.42
1.18
1.79
2.36
2.88
3.23
3.23
2.67
1.48
-0.25
-2.23
-3.99
-4.99
-4.85
-3.36
-0.67
2.82
6.64
10.42
13.95
17.19
20.18
22.92
25.33
27.36
29.07
30.64
32.30
34.29
36.68
39.41
42.33
45.27
48.15
50.93
53.58
55.96
57.78
58.61
58.03
55.75
51.74
46.29
39.91
33.25
26.85
20.99
15.67
10.59
5.35
-0.26
-6.20
-11.99
-16.97
-20.59
-22.73
-23.85
-24.80
-26.46
-29.34
-33.36
-38.03
-42.67
-46.71
-49.82
-51.76
-52.34
-51.32
-48.52
-44.04
-38.35
-32.19
-26.39
-21.65
-18.29
-16.32
-15.39
-15.00
-14.53
-13.38
-11.03
-7.16
-1.79
4.65
11.26
16.88
20.36
20.94
18.54
13.84
7.96
2.15
-2.60
-5.81
-7.44
-7.76
-7.20
-6.21
-5.08
-3.99
-2.90
-1.74
-0.51
0.60
1.24
1.11
0.13
-1.44
-3.15
-4.58
-5.63
-6.55
-7.76
-9.61
-12.20
-15.46
-19.22
-23.36
-27.72
-31.98
-35.52
-37.58
-37.47
-34.92
-30.28
-24.35
-18.19
-12.71
-8.48
-5.63
-3.96
-3.11
-2.74
-2.54
-2.32
-1.90
-1.13
0.15
2.02
4.42
7.14
9.79
12.03
13.61
14.52
14.96
15.16
15.24
15.09
14.47
13.18
11.28
9.12
7.24
6.14
6.03
6.79
8.00
9.18
9.95
10.20
10.02
9.58
9.03
8.32
7.31
5.81
3.79
1.42
-0.93
-2.80
-3.78
-3.53
-1.87
1.31
6.02
12.09
19.06
26.18
32.57
37.38
40.13
40.78
39.73
37.64
35.19
32.87
30.88
29.17
27.51
25.65
23.48
20.99
18.33
15.68
13.17
10.86
8.77
7.00
5.68
4.98
4.91
5.22
5.47
5.08
3.64
1.01
-2.52
-6.36
-9.78
-12.23
-13.51
-13.86
-13.95
-14.64
-16.76
-20.91
-27.32
-35.66
-45.10
-54.36
-61.97
-66.77
-68.22
-66.69
-63.19
-58.91
-54.60
-50.27
-45.28
-38.84
-30.57
-20.89
-10.82
-1.63
5.72
10.84
13.84
15.14
15.18
14.36
13.04
11.63
10.60
10.31
10.92
12.26
13.91
15.39
16.40
16.88
17.00
16.90
16.66
16.14
15.19
13.70
11.78
9.67
7.74
6.26
5.37
5.09
5.29
5.83
6.55
7.33
8.01
8.45
8.49
7.96
6.77
4.91
2.51
-0.16
-2.74
-4.83
-6.12
-6.38
-5.58
-3.85
-1.46
1.24
3.86
6.05
7.57
8.27
8.10
7.09
5.35
3.13
0.78
-1.31
-2.91
-4.08
-5.18
-6.73
-9.03
-11.95
-14.87
-16.92
-17.43
-16.34
-14.27
-12.21
-11.04
-11.14
-12.24
-13.71
-15.07
-16.20
-17.45
-19.33
-22.21
-26.07
-30.66
-35.62
-40.59
-45.20
-48.85
-50.85
-50.54
-47.83
-43.33
-38.27
-33.98
-31.22
-29.90
-29.18
-28.07
-25.94
-22.76
-18.74
-13.97
-8.07
-0.50
9.00
19.88
30.77
40.02
46.40
49.63
50.43
50.08
49.68
49.78
50.32
51.01
51.67
52.39
53.40
54.75
56.14
56.94
56.42
54.13
50.07
44.75
39.01
33.68
29.31
25.99
23.46
21.21
18.80
15.98
12.76
9.25
5.58
1.81
-1.98
-5.62
-8.82
-11.18
-12.37
-12.21
-10.76
-8.31
-5.25
-1.96
1.28
4.32
7.08
9.54
11.58
13.05
13.78
13.71
12.95
11.77
10.52
9.37
8.33
7.24
5.97
4.53
3.21
2.37
2.29
2.97
4.03
4.94
5.20
4.62
3.34
1.77
0.35
-0.65
-1.16
-1.35
-1.43
-1.59
-1.83
-2.02
-2.01
-1.76
-1.41
-1.20
-1.46
-2.35
-3.85
-5.75
-7.70
-9.45
-10.84
-11.96
-12.92
-13.90
-14.97
-16.12
-17.28
-18.34
-19.17
-19.70
-19.85
-19.60
-18.96
-18.00
-16.81
-15.50
-14.22
-13.10
-12.22
-11.61
-11.19
-10.81
-10.34
-9.73
-9.14
-8.81
-9.01
-9.90
-11.43
-13.37
-15.34
-16.97
-17.97
-18.24
-17.77
-16.68
-15.10
-13.12
-10.85
-8.38
-5.86
-3.51
-1.57
-0.23
0.47
0.64
0.51
0.26
0.03
-0.21
-0.53
-0.93
-1.26
-1.32
-0.93
-0.08
1.07
2.22
3.06
3.46
3.42
3.04
2.47
1.75
0.94
0.07
-0.79
-1.58
-2.29
-3.03
-4.01
-5.46
-7.46
-9.96
-12.63
-15.04
-16.79
-17.60
-17.39
-16.26
-14.48
-12.35
-10.21
-8.33
-6.87
-5.91
-5.35
-5.04
-4.82
-4.54
-4.15
-3.63
-3.00
-2.29
-1.51
-0.70
0.09
0.78
1.34
1.74
1.96
2.00
1.82
1.37
0.61
-0.44
-1.69
-3.00
-4.25
-5.41
-6.61
-8.06
-9.96
-12.36
-15.15
-18.06
-20.79
-23.09
-24.81
-25.89
-26.31
-26.06
-25.15
-23.70
-21.85
-19.83
-17.81
-15.92
-14.21
-12.72
-11.51
-10.69
-10.32
-10.39
-10.79
-11.29
-11.68
-11.78
-11.50
-10.82
-9.79
-8.49
-6.91
-4.96
-2.44
0.87
5.08
10.09
15.52
20.80
25.29
28.52
30.32
30.90
30.68
30.11
29.51
28.93
28.22
27.21
25.73
23.77
21.36
18.53
15.32
11.83
8.30
5.14
2.84
1.76
1.95
3.13
4.78
6.34
7.43
7.90
7.84
7.47
7.04
6.77
6.75
6.96
7.35
7.79
8.21
8.63
9.15
9.88
10.93
12.28
13.80
15.31
16.58
17.40
17.59
17.06
15.83
14.00
11.76
9.40
7.26
5.58
4.54
4.08
4.01
4.03
3.87
3.37
2.57
1.60
0.61
-0.31
-1.23
-2.29
-3.64
-5.34
-7.33
-9.46
-11.47
-13.14
-14.29
-14.74
-14.40
-13.30
-11.58
-9.57
-7.59
-5.93
-4.65
-3.65
-2.71
-1.64
-0.37
1.01
2.38
3.62
4.68
5.56
6.30
6.98
7.65
8.34
9.04
9.69
10.23
10.62
10.81
10.78
10.46
9.76
8.60
7.00
5.11
3.25
1.76
0.91
0.78
1.18
1.81
2.34
2.51
2.22
1.54
0.61
-0.41
-1.42
-2.42
-3.46
-4.58
-5.87
-7.40
-9.25
-11.51
-14.17
-17.05
-19.79
-21.88
-22.84
-22.42
-20.67
-17.95
-14.82
-11.82
-9.33
-7.46
-6.11
-5.01
-3.92
-2.64
-1.19
0.32
1.67
2.74
3.50
4.06
4.62
5.34
6.28
7.36
8.44
9.36
10.08
10.62
11.06
11.49
11.84
11.99
11.83
11.35
10.69
10.08
9.72
9.67
9.83
9.91
9.64
8.83
7.46
5.65
3.55
1.36
-0.75
-2.57
-3.98
-4.90
-5.44
-5.84
-6.36
-7.19
-8.30
-9.46
-10.36
-10.71
-10.35
-9.30
-7.73
-5.83
-3.82
-1.89
-0.10
1.53
3.08
4.65
6.28
7.89
9.34
10.46
11.16
11.47
11.46
11.23
10.78
10.13
9.22
8.11
6.87
5.66
4.58
3.69
2.95
2.26
1.58
0.90
0.36
0.10
0.26
0.88
1.84
2.93
3.86
4.42
4.50
4.15
3.49
2.61
1.53
0.13
-1.68
-3.92
-6.41
-8.84
-10.88
-12.36
-13.35
-14.08
-14.79
-15.49
-16.02
-16.04
-15.32
-13.82
-11.74
-9.41
-7.12
-5.05
-3.31
-1.96
-1.08
-0.74
-0.97
-1.63
-2.50
-3.32
-3.90
-4.17
-4.17
-3.94
-3.51
-2.85
-1.91
-0.66
0.84
2.49
4.09
5.44
6.35
6.74
6.61
6.10
5.46
4.94
4.72
4.80
5.05
5.22
5.03
4.33
3.14
1.62
0.01
-1.46
-2.71
-3.79
-4.88
-6.15
-7.65
-9.28
-10.78
-11.90
-12.44
-12.38
-11.75
-10.66
-9.16
-7.27
-5.11
-2.83
-0.74
0.92
1.95
2.32
2.18
1.80
1.41
1.17
1.14
1.31
1.64
2.07
2.54
2.95
3.26
3.47
3.66
3.97
4.47
5.15
5.85
6.28
6.19
5.43
4.07
2.35
0.65
-0.76
-1.75
-2.36
-2.77
-3.15
-3.62
-4.17
-4.74
-5.26
-5.67
-6.01
-6.30
-6.64
-7.11
-7.77
-8.63
-9.64
-10.60
-11.28
-11.42
-10.85
-9.59
-7.77
-5.69
-3.60
-1.70
-0.07
1.19
1.99
2.23
1.83
0.92
-0.20
-1.13
-1.54
-1.27
-0.47
0.60
1.68
2.67
3.65
4.74
5.98
7.21
8.13
8.45
8.06
7.10
5.89
4.77
3.92
3.33
2.79
2.07
1.05
-0.24
-1.69
-3.13
-4.52
-5.83
-7.08
-8.20
-9.10
-9.73
-10.12
-10.41
-10.80
-11.37
-12.10
-12.78
-13.17
-13.05
-12.29
-10.88
-8.91
-6.50
-3.91
-1.44
0.55
1.83
2.34
2.22
1.75
1.18
0.63
0.10
-0.42
-0.90
-1.17
-1.03
-0.36
0.83
2.30
3.76
4.91
5.55
5.64
5.28
4.67
4.11
3.89
4.20
4.99
6.02
6.90
7.27
6.92
5.91
4.49
3.03
1.79
0.87
0.16
-0.53
-1.41
-2.62
-4.18
-6.00
-7.96
-9.90
-11.66
-13.08
-13.99
-14.23
-13.68
-12.35
-10.42
-8.21
-6.09
-4.40
-3.28
-2.71
-2.51
-2.43
-2.23
-1.80
-1.10
-0.23
0.65
1.41
1.94
2.31
2.71
3.38
4.40
5.67
6.88
7.62
7.66
7.03
6.02
5.02
4.35
4.13
4.23
4.39
4.33
3.87
2.98
1.79
0.50
-0.68
-1.66
-2.46
-3.25
-4.26
-5.61
-7.28
-9.10
-10.76
-11.92
-12.33
-11.87
-10.54
-8.50
-5.96
-3.28
-0.81
1.14
2.32
2.64
2.19
1.21
0.04
-0.95
-1.49
-1.45
-0.86
0.11
1.23
2.25
3.00
3.37
3.38
3.18
2.93
2.80
2.89
3.22
3.73
4.35
5.00
5.60
6.09
6.34
6.28
5.87
5.10
3.93
2.25
-0.11
-3.20
-6.89
-10.76
-14.22
-16.71
-17.96
-17.98
-17.05
-15.45
-13.31
-10.58
-7.18
-3.13
1.30
5.71
9.61
12.56
14.31
14.79
14.18
12.86
11.32
10.02
9.23
8.92
8.81
8.57
7.97
7.09
6.19
5.57
5.44
5.75
6.33
6.97
7.52
7.94
8.24
8.40
8.42
8.30
8.04
7.61
6.91
5.86
4.35
2.40
0.17
-2.12
-4.23
-6.02
-7.42
-8.43
-8.94
-8.84
-8.01
-6.46
-4.41
-2.23
-0.38
0.74
1.00
0.47
-0.54
-1.66
-2.59
-3.22
-3.59
-3.87
-4.24
-4.77
-5.35
-5.71
-5.44
-4.24
-2.01
1.12
4.78
8.51
11.90
14.63
16.54
17.53
17.55
16.62
14.92
12.86
10.98
9.82
9.65
10.30
11.31
12.06
12.17
11.62
10.76
10.00
9.70
9.91
10.46
11.14
11.71
12.06
12.07
11.60
10.48
8.69
6.41
4.08
2.24
1.34
1.59
2.83
4.61
6.44
7.86
8.61
8.65
8.08
7.04
5.72
4.27
2.82
1.52
0.54
-0.01
-0.11
0.12
0.45
0.60
0.31
-0.55
-2.03
-4.06
-6.58
-9.48
-12.57
-15.59
-18.11
-19.71
-20.12
-19.31
-17.62
-15.62
-13.88
-12.84
-12.69
-13.41
-14.85
-16.79
-18.87
-20.65
-21.61
-21.37
-19.90
-17.58
-15.08
-13.04
-11.76
-11.06
-10.43
-9.38
-7.73
-5.67
-3.64
-2.06
-1.05
-0.50
-0.18
0.03
0.04
-0.33
-1.26
-2.70
-4.37
-5.88
-6.84
-7.04
-6.48
-5.29
-3.71
-1.98
-0.32
1.09
2.18
2.91
3.38
3.70
3.96
4.26
4.64
5.17
5.96
7.07
8.53
10.20
11.86
13.22
14.12
14.55
14.65
14.65
14.68
14.73
14.66
14.23
13.31
11.89
10.12
8.24
6.46
4.91
3.58
2.36
1.11
-0.31
-1.88
-3.52
-5.06
-6.28
-7.04
-7.27
-7.00
-6.37
-5.57
-4.75
-4.00
-3.31
-2.59
-1.82
-1.00
-0.21
0.45
0.92
1.25
1.57
1.97
2.49
2.99
3.28
3.21
2.74
2.03
1.33
0.91
0.89
1.22
1.69
2.09
2.23
2.07
1.61
0.89
-0.10
-1.40
-2.96
-4.62
-6.04
-6.84
-6.70
-5.57
-3.65
-1.35
0.85
2.65
3.97
4.95
5.79
6.61
7.37
7.92
8.10
7.91
7.51
7.12
6.94
6.98
7.17
7.41
7.69
8.08
8.63
9.20
9.47
9.04
7.62
5.24
2.22
-0.97
-3.89
-6.32
-8.21
-9.58
-10.47
-10.84
-10.73
-10.29
-9.82
-9.66
-10.11
-11.22
-12.83
-14.52
-15.81
-16.29
-15.75
-14.19
-11.85
-9.12
-6.37
-3.93
-1.98
-0.55
0.47
1.23
1.88
2.54
3.26
4.03
4.85
5.67
6.47
7.21
7.87
8.40
8.79
9.04
9.17
9.22
9.15
8.93
8.50
7.83
6.92
5.79
4.50
3.10
1.74
0.58
-0.20
-0.53
-0.46
-0.16
0.09
0.09
-0.31
-1.09
-2.16
-3.35
-4.44
-5.23
-5.57
-5.31
-4.49
-3.22
-1.75
-0.34
0.86
1.81
2.59
3.34
4.13
4.94
5.65
6.12
6.28
6.23
6.13
6.23
6.69
7.49
8.45
9.31
9.83
9.93
9.65
9.09
8.40
7.63
6.85
6.11
5.49
5.02
4.65
4.24
3.63
2.72
1.54
0.23
-1.00
-1.99
-2.73
-3.32
-3.92
-4.69
-5.68
-6.84
-8.09
-9.27
-10.29
-11.07
-11.54
-11.61
-11.21
-10.30
-8.94
-7.30
-5.64
-4.18
-3.01
-2.11
-1.34
-0.62
0.05
0.62
1.06
1.45
1.92
2.55
3.30
4.01
4.46
4.58
4.45
4.31
4.38
4.68
5.09
5.38
5.36
5.01
4.46
3.91
3.54
3.34
3.27
3.16
2.83
2.23
1.39
0.45
-0.41
-1.06
-1.45
-1.63
-1.75
-1.93
-2.31
-2.97
-3.90
-5.06
-6.31
-7.42
-8.14
-8.26
-7.71
-6.60
-5.20
-3.85
-2.84
-2.30
-2.17
-2.24
-2.29
-2.18
-1.93
-1.65
-1.51
-1.58
-1.80
-2.05
-2.19
-2.13
-1.90
-1.59
-1.27
-1.00
-0.78
-0.60
-0.45
-0.34
-0.24
-0.16
-0.10
-0.06
-0.09
-0.19
-0.36
-0.50
-0.47
-0.15
0.45
1.17
1.77
2.00
1.82
1.39
0.99
0.85
1.01
1.20
1.04
0.24
-1.24
-3.07
-4.73
-5.73
-5.82
-5.07
-3.85
-2.59
-1.61
-1.01
-0.63
-0.21
0.44
1.32
2.26
3.04
3.51
3.75
3.92
4.21
4.72
5.38
6.03
6.52
6.80
6.88
6.85
6.76
6.62
6.40
6.13
5.87
5.68
5.58
5.45
5.07
4.16
2.49
-0.02
-3.22
-6.75
-10.06
-12.57
-13.82
-13.62
-12.12
-9.74
-7.01
-4.40
-2.15
-0.35
1.04
2.07
2.81
3.30
3.57
3.73
3.86
4.06
4.36
4.75
5.18
5.60
5.92
6.10
6.11
5.92
5.55
5.04
4.39
3.57
2.51
1.22
-0.26
-1.74
-3.02
-3.94
-4.47
-4.76
-5.07
-5.63
-6.53
-7.70
-8.89
-9.86
-10.49
-10.82
-10.99
-11.09
-11.10
-10.80
-9.96
-8.49
-6.51
-4.34
-2.35
-0.75
0.46
1.45
2.41
3.44
4.48
5.37
5.96
6.22
6.22
6.10
6.04
6.17
6.60
7.30
8.16
8.97
9.54
9.73
9.53
9.06
8.49
8.00
7.61
7.27
6.78
6.01
4.89
3.44
1.80
0.14
-1.39
-2.69
-3.72
-4.53
-5.22
-5.93
-6.80
-7.98
-9.57
-11.51
-13.57
-15.36
-16.45
-16.54
-15.56
-13.64
-11.10
-8.25
-5.41
-2.77
-0.51
1.22
2.34
2.86
2.93
2.74
2.56
2.54
2.82
3.43
4.34
5.48
6.74
7.99
9.11
10.00
10.60
10.92
10.96
10.73
10.29
9.70
9.10
8.55
8.09
7.63
7.09
6.34
5.42
4.43
3.52
2.79
2.25
1.79
1.22
0.37
-0.85
-2.43
-4.26
-6.16
-8.02
-9.72
-11.15
-12.20
-12.73
-12.64
-11.88
-10.48
-8.54
-6.24
-3.78
-1.41
0.70
2.35
3.49
4.13
4.39
4.44
4.40
4.41
4.56
4.93
5.64
6.73
8.15
9.69
11.02
11.87
12.12
11.82
11.16
10.36
9.49
8.52
7.36
6.02
4.62
3.33
2.30
1.52
0.81
-0.03
-1.14
-2.52
-4.00
-5.41
-6.61
-7.54
-8.25
-8.85
-9.49
-10.31
-11.43
-12.84
-14.41
-15.88
-16.89
-17.18
-16.60
-15.26
-13.39
-11.32
-9.34
-7.65
-6.40
-5.60
-5.24
-5.21
-5.38
-5.56
-5.62
-5.44
-4.98
-4.25
-3.27
-2.07
-0.68
0.87
2.48
3.99
5.17
5.77
5.61
4.68
3.15
1.32
-0.41
-1.67
-2.22
-2.07
-1.42
-0.70
-0.38
-0.85
-2.24
-4.39
-6.89
-9.16
-10.71
-11.24
-10.71
-9.37
-7.61
-5.86
-4.46
-3.55
-3.11
-2.94
-2.82
-2.53
-1.94
-1.00
0.29
1.87
3.59
5.25
6.61
7.47
7.74
7.50
7.07
7.07
8.25
11.31
16.57
23.74
31.78
39.24
44.70
47.37
47.52
46.40
45.83
47.41
51.89
58.90
67.11
74.70
79.78
80.81
76.91
68.04
55.08
39.56
23.28
7.66
-6.73
-20.23
-33.77
-48.09
-62.91
-76.55
-86.25
-89.08
-83.19
-68.80
-48.48
-26.53
-7.76
3.92
6.60
0.76
-11.19
-25.84
-39.70
-50.05
-55.34
-55.29
-50.71
-43.14
-34.41
-26.11
-19.24
-14.20
-10.90
-9.02
-8.32
-8.64
-9.88
-11.84
-14.24
-16.78
-19.25
-21.61
-23.90
-26.12
-28.02
-29.18
-29.07
-27.37
-24.10
-19.79
-15.32
-11.60
-9.26
-8.37
-8.47
-8.75
-8.37
-6.80
-3.99
-0.36
3.32
6.21
7.61
7.15
4.90
1.33
-2.85
-6.88
-10.15
-12.38
-13.61
-14.24
-14.86
-16.08
-18.33
-21.60
-25.45
-29.03
-31.42
-32.01
-30.74
-28.06
-24.68
-21.22
-17.99
-15.00
-12.11
-9.16
-6.02
-2.62
1.16
5.38
10.06
15.05
20.03
24.65
28.64
31.78
33.96
35.13
35.19
34.13
32.07
29.30
26.18
23.06
20.20
17.75
15.76
14.30
13.47
13.34
13.90
14.92
15.96
16.50
16.15
14.81
12.76
10.49
8.50
7.11
6.39
6.20
6.27
6.34
6.14
5.49
4.29
2.58
0.61
-1.23
-2.56
-3.16
-3.07
-2.52
-1.89
-1.48
-1.48
-1.87
-2.57
-3.42
-4.29
-5.05
-5.61
-5.88
-5.76
-5.20
-4.22
-2.94
-1.56
-0.26
0.84
1.70
2.33
2.81
3.20
3.56
3.99
4.61
5.43
6.30
6.90
6.86
6.06
4.70
3.29
2.39
2.29
2.93
3.96
4.91
5.44
5.44
4.87
3.80
2.35
0.77
-0.50
-0.96
-0.29
1.52
4.06
6.78
9.17
11.00
12.23
12.98
13.33
13.36
13.14
12.86
12.73
12.93
13.47
14.17
14.75
14.97
14.77
14.27
13.64
13.04
12.54
12.14
11.75
11.31
10.71
9.91
8.85
7.54
6.05
4.49
3.06
1.97
1.43
1.57
2.42
3.86
5.59
7.27
8.63
9.60
10.23
10.69
10.97
10.92
10.25
8.79
6.68
4.41
2.68
2.06
2.74
4.43
6.55
8.50
9.98
10.99
11.70
12.25
12.58
12.49
11.81
10.55
8.95
7.32
5.91
4.78
3.84
2.98
2.15
1.38
0.65
-0.20
-1.41
-3.21
-5.58
-8.23
-10.64
-12.36
-13.18
-13.10
-12.31
-10.95
-9.10
-6.86
-4.44
-2.27
-0.82
-0.41
-0.95
-1.96
-2.79
-2.90
-2.16
-0.82
0.60
1.70
2.31
2.60
2.85
3.29
3.92
4.56
5.05
5.36
5.75
6.59
8.15
10.36
12.85
15.07
16.54
17.04
16.64
15.53
13.93
12.00
9.91
7.90
6.22
5.04
4.34
3.95
3.58
3.01
2.11
0.86
-0.68
-2.47
-4.44
-6.44
-8.37
-10.06
-11.47
-12.55
-13.29
-13.69
-13.76
-13.62
-13.45
-13.42
-13.57
-13.73
-13.59
-12.93
-11.83
-10.61
-9.65
-9.12
-8.82
-8.31
-7.28
-5.76
-4.22
-3.37
-3.74
-5.43
-8.00
-10.76
-13.07
-14.64
-15.59
-16.25
-16.96
-17.78
-18.52
-18.78
-18.19
-16.60
-14.10
-11.02
-7.79
-4.81
-2.28
-0.31
1.18
2.29
3.18
3.92
4.60
5.20
5.63
5.77
5.50
4.79
3.72
2.56
1.62
1.18
1.32
1.85
2.36
2.33
1.37
-0.58
-3.10
-5.46
-6.69
-6.11
-3.50
0.78
5.81
10.47
13.76
15.08
14.39
12.12
9.05
6.00
3.66
2.43
2.39
3.37
5.03
6.98
8.89
10.42
11.33
11.44
10.73
9.30
7.42
5.46
3.75
2.53
1.87
1.68
1.80
2.13
2.58
3.14
3.79
4.38
4.72
4.53
3.65
2.02
-0.26
-3.03
-6.16
-9.59
-13.15
-16.59
-19.58
-21.79
-23.14
-23.87
-24.41
-25.17
-26.28
-27.48
-28.29
-28.28
-27.29
-25.49
-23.23
-20.85
-18.49
-16.14
-13.74
-11.29
-8.97
-7.06
-5.82
-5.34
-5.40
-5.56
-5.32
-4.34
-2.62
-0.47
1.66
3.42
4.70
5.63
6.43
7.26
8.14
8.93
9.53
9.91
10.14
10.35
10.63
10.97
11.23
11.19
10.67
9.62
8.18
6.64
5.35
4.52
4.14
3.94
3.54
2.60
0.97
-1.23
-3.65
-5.89
-7.52
-8.21
-7.72
-5.95
-2.99
0.85
5.06
9.02
12.16
14.08
14.61
13.90
12.34
10.49
8.94
8.16
8.41
9.62
11.52
13.70
15.78
17.49
18.75
19.61
20.16
20.53
20.80
20.99
21.08
20.97
20.53
19.71
18.49
16.93
15.09
13.00
10.65
8.11
5.56
3.25
1.43
0.17
-0.75
-1.77
-3.50
-6.45
-10.86
-16.58
-23.03
-29.36
-34.59
-37.91
-38.82
-37.32
-33.85
-29.07
-23.72
-18.34
-13.25
-8.59
-4.44
-0.89
1.95
3.96
5.19
5.82
6.20
6.66
7.46
8.59
9.83
10.89
11.58
11.95
12.26
12.81
13.70
14.77
15.63
15.98
15.78
15.37
15.21
15.63
16.56
17.50
17.77
16.90
14.81
11.95
9.04
6.72
5.30
4.68
4.43
4.07
3.29
2.07
0.54
-1.07
-2.62
-4.04
-5.37
-6.58
-7.72
-8.94
-10.48
-12.66
-15.70
-19.52
-23.65
-27.31
-29.58
-29.67
-27.19
-22.20
-15.25
-7.18
0.98
8.33
14.15
18.14
20.35
21.18
21.16
20.87
20.74
20.93
21.31
21.48
20.92
19.15
15.92
11.30
5.56
-0.81
-7.22
-13.04
-17.63
-20.47
-21.24
-19.94
-16.88
-12.64
-7.96
-3.50
0.23
3.01
4.87
6.14
7.26
8.62
10.35
12.23
13.64
13.80
12.02
7.98
1.92
-5.54
-13.59
-21.56
-29.01
-35.71
-41.49
-46.12
-49.30
-50.77
-50.47
-48.58
-45.46
-41.49
-36.93
-31.89
-26.34
-20.29
-13.79
-7.00
-0.17
6.40
12.35
17.30
20.92
22.95
23.26
21.85
18.82
14.41
9.03
3.32
-1.95
-6.06
-8.50
-9.14
-8.26
-6.32
-3.89
-1.41
0.75
2.26
2.85
2.36
0.83
-1.43
-3.94
-6.17
-7.75
-8.60
-8.88
-8.88
-8.93
-9.22
-9.80
-10.63
-11.53
-12.27
-12.56
-12.18
-11.00
-9.15
-6.87
-4.54
-2.44
-0.70
0.70
1.91
3.08
4.33
5.66
7.06
8.44
9.67
10.63
11.21
11.42
11.34
11.14
11.00
11.04
11.26
11.59
11.93
12.27
12.57
12.86
13.12
13.30
13.31
13.08
12.58
11.79
10.74
9.52
8.25
7.01
5.91
4.95
4.09
3.21
2.20
0.98
-0.44
-1.98
-3.54
-5.03
-6.38
-7.53
-8.42
-9.00
-9.21
-9.13
-8.84
-8.52
-8.33
-8.34
-8.55
-8.83
-8.97
-8.79
-8.16
-7.08
-5.63
-4.01
-2.35
-0.77
0.76
2.28
3.87
5.58
7.39
9.22
10.96
12.44
13.50
14.01
13.98
13.49
12.77
12.07
11.58
11.35
11.33
11.34
11.20
10.73
9.84
8.57
7.09
5.65
4.57
4.08
4.25
4.94
5.84
6.60
6.92
6.71
6.06
5.22
4.47
4.02
3.96
4.24
4.70
5.17
5.59
6.02
6.70
7.98
10.14
13.26
17.09
21.05
24.34
26.13
25.88
23.43
19.19
13.97
8.75
4.38
1.36
-0.31
-1.00
-1.29
-1.68
-2.47
-3.71
-5.25
-6.93
-8.61
-10.23
-11.73
-13.03
-14.06
-14.80
-15.32
-15.82
-16.48
-17.38
-18.41
-19.33
-19.88
-19.96
-19.69
-19.34
-19.30
-19.81
-20.87
-22.27
-23.61
-24.47
-24.59
-23.92
-22.62
-21.03
-19.47
-18.22
-17.36
-16.85
-16.49
-16.00
-15.16
-13.79
-11.90
-9.74
-7.72
-6.27
-5.75
-6.26
-7.63
-9.41
-11.05
-11.94
-11.63
-9.87
-6.78
-2.82
1.37
5.19
8.29
10.76
12.98
15.41
18.31
21.59
24.85
27.54
29.14
29.37
28.21
25.98
23.24
20.71
19.12
18.99
20.50
23.45
27.33
31.56
35.61
39.03
41.56
43.08
43.74
43.93
44.27
45.42
47.84
51.53
56.01
60.52
64.34
67.06
68.62
69.22
69.12
68.39
66.92
64.51
61.03
56.52
51.23
45.48
39.59
33.69
27.75
21.66
15.33
8.83
2.42
-3.51
-8.59
-12.53
-15.25
-16.87
-17.60
-17.71
-17.48
-17.10
-16.75
-16.55
-16.54
-16.71
-16.96
-17.09
-16.83
-15.93
-14.24
-11.81
-8.92
-6.00
-3.50
-1.76
-0.90
-0.82
-1.26
-1.97
-2.75
-3.54
-4.36
-5.25
-6.19
-7.11
-7.89
-8.43
-8.67
-8.66
-8.46
-8.16
-7.84
-7.50
-7.15
-6.79
-6.43
-6.06
-5.65
-5.17
-4.58
-3.90
-3.27
-2.88
-2.95
-3.63
-4.91
-6.64
-8.57
-10.40
-11.93
-13.06
-13.83
-14.38
-14.87
-15.51
-16.42
-17.70
-19.32
-21.12
-22.85
-24.21
-24.94
-24.96
-24.32
-23.18
-21.74
-20.15
-18.52
-16.92
-15.51
-14.44
-13.86
-13.80
-14.16
-14.70
-15.10
-15.13
-14.72
-13.94
-12.98
-12.08
-11.35
-10.83
-10.49
-10.25
-10.12
-10.13
-10.32
-10.72
-11.27
-11.89
-12.56
-13.27
-13.95
-14.48
-14.60
-14.06
-12.66
-10.39
-7.41
-3.99
-0.41
3.11
6.41
9.29
11.56
12.97
13.33
12.61
10.97
8.71
6.23
3.75
1.29
-1.37
-4.59
-8.57
-13.19
-17.92
-22.09
-25.20
-27.23
-28.66
-30.22
-32.41
-35.21
-38.04
-40.07
-40.70
-39.80
-37.73
-35.07
-32.31
-29.67
-27.18
-24.81
-22.64
-20.79
-19.34
-18.20
-17.11
-15.76
-13.94
-11.69
-9.22
-6.89
-4.99
-3.70
-2.98
-2.69
-2.60
-2.55
-2.50
-2.53
-2.78
-3.36
-4.31
-5.58
-7.03
-8.47
-9.65
-10.36
-10.41
-9.79
-8.64
-7.27
-6.05
-5.19
-4.64
-4.17
-3.44
-2.30
-0.88
0.44
1.28
1.43
1.00
0.40
0.08
0.36
1.22
2.43
3.66
4.70
5.54
6.29
7.08
7.87
8.52
8.83
8.64
7.98
7.01
5.94
4.95
4.09
3.33
2.59
1.79
0.91
-0.05
-1.07
-2.15
-3.30
-4.60
-6.08
-7.73
-9.47
-11.12
-12.51
-13.50
-14.07
-14.32
-14.35
-14.19
-13.81
-13.12
-12.08
-10.83
-9.66
-8.84
-8.59
-8.88
-9.48
-10.05
-10.31
-10.12
-9.49
-8.58
-7.58
-6.72
-6.20
-6.18
-6.71
-7.73
-9.04
-10.38
-11.49
-12.11
-12.12
-11.44
-10.07
-8.15
-5.88
-3.45
-1.00
1.48
4.11
7.02
10.22
13.52
16.52
18.77
19.88
19.65
18.06
15.30
11.75
7.98
4.61
2.17
0.92
0.79
1.40
2.22
2.83
2.98
2.67
2.04
1.27
0.56
0.09
-0.02
0.35
1.26
2.60
4.13
5.57
6.65
7.25
7.47
7.52
7.67
8.03
8.62
9.28
9.94
10.59
11.36
12.42
13.82
15.33
16.49
16.83
16.10
14.44
12.39
10.63
9.70
9.71
10.27
10.78
10.73
9.92
8.63
7.40
6.76
7.06
8.25
10.01
11.90
13.47
14.41
14.64
14.22
13.41
12.50
11.80
11.50
11.65
12.11
12.67
13.11
13.32
13.30
13.16
13.01
12.94
12.97
13.09
13.34
13.80
14.59
15.66
16.82
17.70
17.87
17.13
15.56
13.58
11.80
10.76
10.72
11.53
12.70
13.58
13.65
12.75
11.08
9.10
7.27
5.93
5.09
4.57
4.10
3.48
2.70
1.89
1.23
0.81
0.61
0.46
0.16
-0.42
-1.32
-2.44
-3.68
-4.94
-6.15
-7.19
-7.81
-7.70
-6.57
-4.35
-1.30
2.05
5.07
7.24
8.35
8.45
7.75
6.45
4.62
2.25
-0.76
-4.50
-9.08
-14.61
-21.09
-28.30
-35.72
-42.56
-47.95
-51.27
-52.36
-51.59
-49.68
-47.41
-45.32
-43.56
-41.98
-40.27
-38.12
-35.39
-32.06
-28.24
-24.20
-20.35
-17.17
-15.12
-14.41
-14.86
-15.95
-16.92
-17.01
-15.63
-12.46
-7.49
-1.00
6.45
14.01
20.63
25.30
27.29
26.46
23.26
18.64
13.73
9.41
6.20
4.23
3.30
3.11
3.31
3.55
3.53
3.06
2.11
0.92
-0.01
-0.09
1.17
3.96
8.11
13.09
18.18
22.68
26.00
27.76
27.81
26.21
23.28
19.56
15.75
12.52
10.30
9.20
8.98
9.17
9.35
9.25
8.76
7.87
6.57
4.81
2.53
-0.28
-3.50
-6.93
-10.34
-13.53
-16.34
-18.67
-20.38
-21.36
-21.51
-20.80
-19.26
-17.08
-14.59
-12.17
-10.14
-8.71
-7.87
-7.45
-7.24
-7.07
-6.87
-6.72
-6.68
-6.80
-7.02
-7.18
-7.12
-6.72
-5.91
-4.74
-3.33
-1.84
-0.40
0.87
1.84
2.41
2.53
2.15
1.36
0.31
-0.75
-1.64
-2.27
-2.73
-3.19
-3.81
-4.64
-5.54
-6.24
-6.53
-6.30
-5.60
-4.58
-3.32
-1.76
0.24
2.74
5.61
8.43
10.67
11.91
12.07
11.43
10.53
9.90
9.89
10.59
11.86
13.49
15.30
17.20
19.13
21.04
22.86
24.45
25.69
26.46
26.72
26.52
25.94
25.11
24.17
23.21
22.28
21.41
20.56
19.66
18.58
17.23
15.51
13.42
11.05
8.60
6.38
4.71
3.85
3.89
4.66
5.83
6.92
7.56
7.55
7.00
6.21
5.58
5.41
5.80
6.62
7.61
8.52
9.21
9.70
10.14
10.67
11.34
12.04
12.56
12.74
12.51
11.98
11.32
10.68
10.10
9.47
8.59
7.33
5.69
3.87
2.20
1.01
0.48
0.60
1.15
1.78
2.16
2.09
1.46
0.30
-1.26
-3.03
-4.82
-6.43
-7.84
-9.22
-10.88
-13.28
-16.76
-21.40
-26.84
-32.27
-36.68
-39.13
-39.13
-36.79
-32.79
-28.05
-23.42
-19.36
-15.92
-12.97
-10.34
-8.05
-6.23
-4.98
-4.27
-3.87
-3.52
-3.04
-2.44
-1.82
-1.25
-0.68
0.04
1.06
2.40
3.89
5.23
6.12
6.40
6.08
5.28
4.19
3.01
1.95
1.17
0.78
0.88
1.47
2.46
3.69
4.88
5.73
6.00
5.61
4.66
3.41
2.15
1.09
0.28
-0.37
-0.97
-1.57
-2.10
-2.39
-2.33
-1.87
-1.14
-0.34
0.32
0.72
0.97
1.25
1.80
2.70
3.88
5.05
5.94
6.42
6.59
6.71
7.03
7.66
8.51
9.35
9.96
10.23
10.21
10.00
9.71
9.38
9.01
8.56
8.02
7.37
6.60
5.73
4.72
3.64
2.53
1.49
0.61
-0.08
-0.61
-1.04
-1.48
-2.01
-2.70
-3.55
-4.52
-5.51
-6.37
-6.99
-7.25
-7.15
-6.69
-5.94
-4.99
-3.94
-2.95
-2.20
-1.87
-1.99
-2.54
-3.34
-4.17
-4.85
-5.21
-5.17
-4.71
-3.91
-2.90
-1.90
-1.06
-0.47
-0.08
0.32
0.93
1.85
3.02
4.22
5.17
5.72
5.90
5.90
5.93
6.15
6.53
6.88
6.97
6.61
5.83
4.78
3.75
2.96
2.51
2.30
2.12
1.76
1.09
0.13
-0.93
-1.94
-2.76
-3.36
-3.76
-3.98
-3.99
-3.73
-3.11
-2.16
-0.98
0.23
1.21
1.80
1.89
1.55
1.00
0.47
0.17
0.19
0.45
0.83
1.23
1.60
2.02
2.52
3.10
3.66
4.11
4.34
4.36
4.22
3.97
3.69
3.40
3.09
2.75
2.41
2.09
1.82
1.62
1.45
1.24
0.95
0.53
-0.00
-0.57
-1.12
-1.65
-2.23
-3.01
-4.09
-5.44
-6.90
-8.25
-9.21
-9.64
-9.52
-8.92
-7.99
-6.89
-5.69
-4.44
-3.15
-1.85
-0.58
0.58
1.55
2.27
2.71
2.90
2.91
2.81
2.67
2.55
2.46
2.46
2.59
2.89
3.35
3.90
4.45
4.86
5.08
5.09
4.97
4.81
4.71
4.67
4.62
4.46
4.12
3.58
2.91
2.20
1.51
0.86
0.17
-0.64
-1.64
-2.82
-4.14
-5.53
-6.93
-8.31
-9.63
-10.82
-11.79
-12.45
-12.71
-12.54
-12.00
-11.21
-10.32
-9.47
-8.70
-7.96
-7.20
-6.34
-5.43
-4.62
-4.08
-3.88
-3.92
-4.03
-3.93
-3.45
-2.56
-1.35
0.01
1.32
2.43
3.23
3.57
3.28
2.21
0.27
-2.38
-5.43
-8.42
-11.00
-13.03
-14.63
-16.07
-17.52
-18.89
-19.91
-20.23
-19.76
-18.74
-17.67
-17.05
-17.08
-17.55
-18.01
-18.02
-17.42
-16.39
-15.31
-14.53
-14.13
-13.88
-13.41
-12.48
-11.04
-9.34
-7.69
-6.29
-5.13
-4.02
-2.77
-1.28
0.28
1.63
2.44
2.59
2.18
1.55
1.10
1.18
1.88
3.11
4.54
5.81
6.57
6.58
5.74
4.18
2.18
0.18
-1.30
-1.82
-1.20
0.50
2.91
5.51
7.78
9.32
9.98
9.82
9.13
8.28
7.62
7.27
7.11
6.80
5.96
4.43
2.30
-0.01
-2.06
-3.50
-4.24
-4.40
-4.21
-3.80
-3.21
-2.41
-1.31
0.05
1.58
3.10
4.39
5.28
5.61
5.31
4.37
2.91
1.23
-0.25
-1.09
-0.96
0.17
2.03
4.11
5.91
7.15
7.90
8.49
9.28
10.48
11.99
13.56
14.85
15.69
16.01
15.88
15.35
14.44
13.22
11.78
10.29
8.92
7.77
6.81
5.92
4.97
3.87
2.65
1.39
0.26
-0.67
-1.36
-1.86
-2.21
-2.37
-2.26
-1.74
-0.78
0.51
1.86
3.03
3.86
4.37
4.72
5.03
5.38
5.69
5.81
5.68
5.31
4.78
4.25
3.82
3.62
3.75
4.28
5.23
6.49
7.83
9.01
9.81
10.21
10.24
9.97
9.42
8.58
7.47
6.23
5.09
4.27
3.84
3.64
3.39
2.85
2.00
1.04
0.27
-0.10
-0.17
-0.21
-0.59
-1.52
-3.01
-4.83
-6.70
-8.34
-9.61
-10.43
-10.77
-10.55
-9.75
-8.37
-6.54
-4.49
-2.52
-0.87
0.37
1.25
1.89
2.40
2.81
3.10
3.20
3.16
3.13
3.26
3.69
4.39
5.17
5.77
5.97
5.65
4.90
3.88
2.80
1.79
0.87
0.00
-0.92
-1.99
-3.24
-4.66
-6.06
-7.12
-7.42
-6.59
-4.51
-1.43
2.07
5.18
7.26
7.93
7.25
5.58
3.40
1.11
-1.06
-3.02
-4.76
-6.28
-7.53
-8.52
-9.25
-9.78
-10.08
-10.06
-9.61
-8.62
-7.17
-5.52
-4.12
-3.37
-3.52
-4.52
-6.02
-7.55
-8.65
-9.03
-8.68
-7.85
-6.95
-6.54
-7.20
-9.29
-12.74
-16.89
-20.51
-22.17
-20.71
-15.71
-7.60
2.51
13.30
23.71
33.25
41.93
49.94
57.40
64.10
69.64
73.60
75.73
76.15
75.21
73.39
71.03
68.17
64.52
59.61
53.11
45.08
36.06
26.93
18.61
11.68
6.20
1.81
-2.01
-5.64
-9.09
-12.09
-14.28
-15.48
-15.82
-15.70
-15.62
-15.88
-16.53
-17.40
-18.21
-18.81
-19.18
-19.37
-19.46
-19.52
-19.49
-19.40
-19.38
-19.53
-19.91
-20.38
-20.66
-20.45
-19.64
-18.39
-17.10
-16.14
-15.68
-15.60
-15.54
-15.17
-14.27
-12.95
-11.51
-10.38
-9.93
-10.35
-11.56
-13.24
-14.93
-16.13
-16.48
-15.83
-14.37
-12.63
-11.46
-11.85
-14.46
-19.28
-25.42
-31.33
-35.29
-36.18
-33.86
-29.11
-23.15
-16.98
-11.14
-5.76
-0.95
2.82
4.81
4.35
1.27
-3.88
-10.01
-15.93
-20.77
-24.19
-26.35
-27.63
-28.41
-28.90
-29.21
-29.35
-29.28
-28.96
-28.35
-27.43
-26.24
-24.88
-23.43
-21.97
-20.48
-18.89
-17.11
-15.13
-13.08
-11.17
-9.64
-8.65
-8.23
-8.27
-8.59
-9.09
-9.71
-10.44
-11.21
-11.85
-12.12
-11.74
-10.53
-8.46
-5.67
-2.40
1.12
4.68
8.12
11.25
13.78
15.33
15.55
14.36
12.04
9.26
6.75
5.12
4.53
4.82
5.63
6.74
8.08
9.73
11.69
13.79
15.70
17.10
17.90
18.33
18.84
19.78
21.15
22.40
22.62
21.06
17.57
12.87
8.29
5.22
4.44
5.77
8.34
11.11
13.47
15.40
17.21
19.09
20.79
21.70
21.28
19.47
16.75
13.90
11.62
10.16
9.41
8.97
8.54
7.98
7.39
6.83
6.17
5.09
3.17
0.09
-4.20
-9.45
-15.27
-21.22
-26.92
-32.07
-36.29
-39.11
-39.94
-38.30
-33.99
-27.36
-19.21
-10.64
-2.79
3.54
8.01
10.69
11.94
12.26
12.04
11.59
11.13
10.73
10.35
9.77
8.64
6.60
3.51
-0.38
-4.36
-7.55
-9.18
-8.91
-6.97
-4.01
-0.81
1.96
3.79
4.25
2.99
-0.13
-4.75
-9.87
-14.05
-15.89
-14.63
-10.50
-4.62
1.56
6.71
10.19
11.99
12.47
12.13
11.30
10.09
8.51
6.59
4.43
2.21
0.10
-1.79
-3.43
-4.94
-6.44
-8.04
-9.80
-11.86
-14.41
-17.71
-21.92
-26.89
-32.08
-36.60
-39.48
-40.08
-38.31
-34.76
-30.57
-27.17
-25.88
-27.49
-31.89
-37.92
-43.71
-47.27
-47.24
-43.43
-36.88
-29.41
-22.78
-18.14
-15.63
-14.68
-14.41
-14.08
-13.28
-11.82
-9.58
-6.40
-2.20
2.85
8.14
12.80
15.89
16.84
15.80
13.52
11.09
9.56
9.49
10.85
13.11
15.53
17.44
18.46
18.61
18.22
17.76
17.68
18.19
19.17
20.20
20.71
20.27
18.77
16.45
13.71
10.95
8.27
5.56
2.59
-0.82
-4.60
-8.56
-12.48
-16.16
-19.44
-22.05
-23.63
-23.79
-22.50
-20.33
-18.41
-17.93
-19.52
-22.74
-26.20
-28.14
-27.29
-23.45
-17.45
-10.58
-3.96
1.92
7.08
11.71
15.88
19.45
22.31
24.56
26.51
28.47
30.57
32.60
34.25
35.37
36.02
36.47
37.03
37.81
38.73
39.67
40.55
41.40
42.25
43.03
43.48
43.27
42.17
40.24
37.79
35.29
33.16
31.53
30.27
29.10
27.79
26.24
24.47
22.49
20.16
17.26
13.66
9.46
5.05
0.99
-2.27
-4.60
-6.25
-7.69
-9.37
-11.45
-13.72
-15.61
-16.49
-15.80
-13.42
-9.67
-5.23
-1.01
2.22
4.04
4.48
3.93
3.00
2.23
2.06
2.75
4.48
7.30
11.18
15.85
20.82
25.43
29.07
31.39
32.40
32.54
32.42
32.58
33.24
34.20
34.96
34.97
33.92
31.88
29.29
26.80
24.99
24.19
24.35
25.13
25.96
26.30
25.75
24.08
21.30
17.55
13.01
7.92
2.56
-2.78
-7.81
-12.37
-16.41
-20.04
-23.31
-26.21
-28.52
-29.89
-30.09
-29.15
-27.40
-25.31
-23.25
-21.30
-19.33
-17.14
-14.69
-12.20
-10.03
-8.40
-7.29
-6.39
-5.24
-3.58
-1.40
1.06
3.50
5.72
7.71
9.55
11.19
12.47
13.07
12.69
11.23
8.82
5.82
2.71
-0.04
-2.10
-3.28
-3.61
-3.26
-2.50
-1.65
-1.01
-0.78
-1.08
-1.95
-3.40
-5.39
-7.79
-10.36
-12.80
-14.80
-16.22
-17.04
-17.42
-17.54
-17.50
-17.31
-16.88
-16.11
-14.96
-13.49
-11.80
-10.07
-8.46
-7.10
-6.03
-5.18
-4.38
-3.40
-2.00
-0.07
2.30
4.87
7.24
8.97
9.79
9.59
8.56
7.13
5.82
5.12
5.30
6.28
7.64
8.77
9.07
8.19
6.24
3.68
1.11
-0.94
-2.24
-2.94
-3.38
-3.97
-4.96
-6.40
-8.11
-9.85
-11.35
-12.39
-12.80
-12.44
-11.20
-9.09
-6.33
-3.31
-0.57
1.40
2.34
2.34
1.83
1.40
1.56
2.55
4.29
6.46
8.62
10.40
11.55
12.01
11.89
11.42
10.96
10.86
11.40
12.59
14.18
15.74
16.76
16.88
15.97
14.21
11.90
9.42
7.04
4.91
3.04
1.42
0.01
-1.21
-2.26
-3.23
-4.24
-5.38
-6.66
-7.90
-8.83
-9.13
-8.58
-7.14
-5.00
-2.48
0.08
2.38
4.30
5.81
6.98
7.88
8.51
8.85
8.88
8.62
8.21
7.83
7.62
7.62
7.73
7.77
7.59
7.16
6.55
5.89
5.26
4.66
4.00
3.17
2.15
0.99
-0.20
-1.33
-2.36
-3.35
-4.32
-5.25
-6.02
-6.48
-6.56
-6.43
-6.42
-6.98
-8.41
-10.73
-13.56
-16.28
-18.28
-19.21
-19.04
-18.00
-16.47
-14.81
-13.28
-12.01
-11.00
-10.20
-9.50
-8.78
-7.95
-6.95
-5.74
-4.29
-2.62
-0.78
1.10
2.87
4.38
5.61
6.61
7.52
8.43
9.29
9.99
10.38
10.40
10.12
9.67
9.21
8.81
8.46
8.12
7.72
7.20
6.55
5.75
4.84
3.88
2.96
2.15
1.47
0.88
0.28
-0.45
-1.41
-2.68
-4.25
-6.05
-7.90
-9.57
-10.76
-11.29
-11.06
-10.17
-8.81
-7.25
-5.70
-4.28
-3.03
-1.94
-0.97
-0.09
0.78
1.67
2.62
3.58
4.48
5.23
5.73
5.95
5.93
5.81
5.71
5.75
5.99
6.39
6.77
6.97
6.86
6.45
5.88
5.37
5.09
5.09
5.19
5.16
4.79
4.04
2.99
1.85
0.76
-0.23
-1.17
-2.14
-3.17
-4.26
-5.42
-6.67
-8.07
-9.67
-11.47
-13.37
-15.24
-16.94
-18.41
-19.58
-20.36
-20.59
-20.09
-18.78
-16.78
-14.42
-12.14
-10.32
-9.11
-8.43
-8.08
-7.85
-7.69
-7.61
-7.62
-7.66
-7.54
-7.07
-6.20
-4.97
-3.55
-2.13
-0.79
0.44
1.63
2.84
4.05
5.16
6.01
6.44
6.31
5.62
4.51
3.22
2.03
1.14
0.62
0.45
0.54
0.78
1.05
1.22
1.10
0.59
-0.30
-1.36
-2.21
-2.45
-1.84
-0.42
1.47
3.37
4.84
5.62
5.73
5.41
5.11
5.29
6.26
8.09
10.51
13.03
15.13
16.41
16.67
15.95
14.40
12.24
9.66
6.87
4.11
1.57
-0.62
-2.53
-4.40
-6.44
-8.73
-11.09
-13.16
-14.57
-15.08
-14.63
-13.29
-11.14
-8.31
-4.98
-1.51
1.59
3.84
5.00
5.28
5.21
5.42
6.16
7.19
7.86
7.57
6.19
4.22
2.52
1.80
2.18
3.08
3.56
2.86
0.86
-1.97
-4.87
-7.23
-8.82
-9.77
-10.25
-10.33
-9.88
-8.80
-7.20
-5.36
-3.65
-2.28
-1.27
-0.51
0.11
0.59
0.88
0.98
1.07
1.44
2.36
3.89
5.79
7.63
8.95
9.49
9.23
8.43
7.44
6.59
6.07
5.96
6.24
6.89
7.85
9.03
10.24
11.24
11.79
11.70
10.93
9.62
8.02
6.42
5.07
4.04
3.29
2.61
1.83
0.80
-0.49
-2.03
-3.77
-5.68
-7.72
-9.77
-11.62
-13.00
-13.73
-13.77
-13.21
-12.25
-11.06
-9.75
-8.39
-7.03
-5.79
-4.79
-4.13
-3.82
-3.77
-3.83
-3.87
-3.83
-3.69
-3.47
-3.14
-2.65
-1.99
-1.17
-0.26
0.67
1.55
2.32
2.91
3.25
3.30
3.03
2.51
1.89
1.32
0.89
0.58
0.31
-0.00
-0.39
-0.82
-1.22
-1.58
-1.91
-2.30
-2.87
-3.65
-4.68
-5.91
-7.30
-8.80
-10.36
-11.86
-13.20
-14.23
-14.77
-14.70
-13.94
-12.53
-10.61
-8.45
-6.37
-4.68
-3.57
-3.02
-2.89
-2.91
-2.89
-2.75
-2.54
-2.36
-2.24
-2.11
-1.82
-1.21
-0.25
0.97
2.31
3.62
4.83
5.88
6.72
7.21
7.17
6.54
5.46
4.23
3.25
2.79
2.90
3.29
3.56
3.37
2.60
1.38
-0.01
-1.29
-2.37
-3.34
-4.39
-5.73
-7.40
-9.30
-11.25
-12.98
-14.30
-15.08
-15.28
-14.95
-14.14
-12.95
-11.43
-9.68
-7.79
-5.91
-4.19
-2.79
-1.78
-1.18
-0.90
-0.77
-0.61
-0.30
0.21
0.92
1.70
2.43
3.05
3.56
3.99
4.37
4.73
4.98
5.08
5.02
4.86
4.74
4.74
4.80
4.82
4.59
4.02
3.11
2.04
1.02
0.23
-0.26
-0.51
-0.70
-1.04
-1.70
-2.82
-4.41
-6.36
-8.44
-10.35
-11.79
-12.58
-12.66
-12.07
-10.95
-9.45
-7.71
-5.89
-4.15
-2.62
-1.40
-0.47
0.22
0.79
1.35
1.97
2.67
3.45
4.29
5.12
5.88
6.53
7.04
7.48
7.90
8.35
8.78
9.12
9.28
9.21
8.95
8.56
8.14
7.70
7.23
6.71
6.05
5.23
4.21
3.02
1.73
0.48
-0.57
-1.32
-1.78
-2.09
-2.50
-3.23
-4.44
-6.13
-8.06
-9.86
-11.13
-11.58
-11.15
-10.01
-8.52
-7.02
-5.72
-4.62
-3.66
-2.77
-2.00
-1.49
-1.32
-1.43
-1.62
-1.65
-1.42
-1.02
-0.63
-0.44
-0.44
-0.48
-0.35
0.05
0.64
1.19
1.49
1.47
1.17
0.75
0.30
-0.14
-0.62
-1.18
-1.80
-2.39
-2.82
-3.05
-3.03
-2.84
-2.63
-2.57
-2.80
-3.38
-4.23
-5.11
-5.73
-5.82
-5.33
-4.39
-3.27
-2.21
-1.29
-0.48
0.33
1.13
1.80
2.17
2.12
1.70
1.17
0.82
0.92
1.56
2.67
4.03
5.42
6.58
7.35
7.61
7.32
6.57
5.56
4.57
3.90
3.74
4.13
4.91
5.72
6.16
5.87
4.70
2.75
0.40
-1.91
-3.78
-5.11
-6.10
-7.17
-8.81
-11.29
-14.48
-17.83
-20.56
-22.00
-21.85
-20.30
-17.97
-15.50
-13.33
-11.56
-10.00
-8.40
-6.65
-4.81
-3.00
-1.21
0.68
2.93
5.71
8.97
12.43
15.66
18.24
19.95
20.76
20.85
20.47
19.88
19.20
18.44
17.52
16.37
14.94
13.31
11.64
10.11
8.81
7.76
6.92
6.20
5.53
4.81
3.93
2.76
1.25
-0.56
-2.51
-4.33
-5.74
-6.55
-6.66
-6.10
-4.98
-3.47
-1.82
-0.27
0.94
1.72
2.11
2.26
2.31
2.36
2.36
2.24
1.95
1.54
1.18
1.04
1.23
1.69
2.26
2.73
3.00
3.04
2.97
2.96
3.16
3.63
4.37
5.24
6.08
6.72
7.04
7.05
6.84
6.52
6.17
5.75
5.09
3.98
2.31
0.14
-2.31
-4.69
-6.71
-8.17
-9.03
-9.29
-9.02
-8.27
-7.06
-5.47
-3.59
-1.56
0.49
2.41
4.08
5.41
6.37
7.00
7.41
7.79
8.36
9.31
10.75
12.66
14.89
17.13
19.00
20.13
20.25
19.34
17.69
15.76
14.05
12.92
12.49
12.69
13.39
14.44
15.75
17.20
18.62
19.70
20.16
19.73
18.32
16.09
13.38
10.65
8.34
6.68
5.54
4.52
2.99
0.42
-3.38
-8.12
-13.08
-17.38
-20.23
-21.20
-20.27
-17.86
-14.68
-11.63
-9.55
-9.07
-10.42
-13.43
-17.50
-21.68
-25.02
-26.78
-26.65
-24.87
-22.04
-18.87
-15.92
-13.40
-11.27
-9.33
-7.49
-5.77
-4.31
-3.22
-2.46
-1.89
-1.31
-0.59
0.28
1.23
2.10
2.74
3.00
2.71
1.72
-0.04
-2.55
-5.58
-8.76
-11.67
-13.99
-15.56
-16.47
-16.87
-16.87
-16.39
-15.17
-12.85
-9.25
-4.51
0.81
5.88
9.79
11.86
11.83
9.97
7.00
4.04
2.21
2.46
5.12
9.89
15.90
21.99
27.13
30.68
32.60
33.22
33.08
32.54
31.71
30.42
28.36
25.38
21.59
17.48
13.73
10.98
9.62
9.58
10.42
11.47
12.14
12.09
11.28
9.88
8.11
6.04
3.65
0.91
-2.10
-5.10
-7.64
-9.22
-9.45
-8.12
-5.33
-1.41
3.10
7.50
11.14
13.50
14.35
13.84
12.42
10.64
8.98
7.65
6.57
5.49
4.15
2.42
0.40
-1.68
-3.57
-5.11
-6.29
-7.24
-8.08
-8.91
-9.70
-10.35
-10.75
-10.79
-10.45
-9.72
-8.71
-7.49
-6.15
-4.75
-3.30
-1.85
-0.49
0.56
1.05
0.80
-0.25
-2.02
-4.34
-7.17
-10.53
-14.39
-18.38
-21.75
-23.56
-23.16
-20.61
-16.80
-13.11
-10.71
-10.04
-10.72
-11.88
-12.81
-13.30
-13.64
-14.19
-14.99
-15.63
-15.49
-14.16
-11.74
-8.76
-5.92
-3.69
-2.14
-1.00
0.14
1.51
2.99
4.17
4.55
3.81
1.98
-0.50
-2.90
-4.37
-4.25
-2.23
1.52
6.45
11.85
17.06
21.60
25.22
27.76
29.03
28.87
27.35
24.92
22.52
21.26
21.92
24.56
28.41
32.21
34.62
34.69
31.95
26.44
18.49
8.71
-2.05
-12.81
-22.56
-30.56
-36.52
-40.64
-43.42
-45.44
-47.07
-48.41
-49.26
-49.29
-48.23
-46.06
-43.07
-39.78
-36.77
-34.41
-32.70
-31.42
-30.22
-28.94
-27.61
-26.42
-25.49
-24.76
-24.03
-23.10
-21.96
-20.85
-20.13
-20.14
-20.96
-22.38
-24.03
-25.44
-26.28
-26.35
-25.61
-24.05
-21.65
-18.45
-14.54
-10.19
-5.92
-2.48
-0.71
-1.26
-4.39
-9.76
-16.43
-23.08
-28.31
-30.93
-30.24
-26.15
-19.16
-10.27
-0.84
7.67
14.04
17.55
18.18
16.48
13.41
9.96
6.77
4.03
1.52
-1.15
-4.29
-7.90
-11.66
-14.95
-17.13
-17.69
-16.37
-13.26
-8.67
-3.11
2.86
8.72
14.06
18.61
22.28
25.22
27.76
30.42
33.66
37.77
42.62
47.65
51.96
54.67
55.17
53.39
49.81
45.26
40.63
36.56
33.30
30.71
28.42
26.01
23.11
19.60
15.61
11.52
7.85
5.08
3.50
3.05
3.44
4.19
4.84
5.04
4.62
3.45
1.45
-1.39
-5.03
-9.18
-13.40
-17.13
-19.91
-21.43
-21.68
-20.90
-19.42
-17.60
-15.69
-13.76
-11.76
-9.61
-7.24
-4.71
-2.16
0.27
2.47
4.42
6.15
7.67
8.93
9.84
10.35
10.50
10.34
9.94
9.33
8.43
7.18
5.64
4.01
2.57
1.57
1.10
1.05
1.22
1.40
1.50
1.54
1.63
1.84
2.19
2.57
2.83
2.79
2.32
1.31
-0.22
-2.19
-4.38
-6.45
-8.06
-8.93
-9.02
-8.52
-7.74
-7.03
-6.57
-6.28
-6.00
-5.58
-4.95
-4.16
-3.29
-2.36
-1.27
0.12
1.98
4.42
7.51
11.27
15.54
19.97
23.98
26.87
28.10
27.43
25.04
21.42
17.16
12.78
8.66
5.08
2.33
0.62
0.04
0.48
1.62
3.01
4.20
4.89
4.97
4.51
3.79
3.15
2.99
3.52
4.78
6.49
8.23
9.52
10.06
9.79
8.88
7.62
6.27
4.96
3.72
2.50
1.27
0.02
-1.19
-2.31
-3.31
-4.22
-5.08
-5.92
-6.63
-7.09
-7.15
-6.77
-6.12
-5.46
-5.12
-5.28
-5.91
-6.80
-7.67
-8.31
-8.69
-9.02
-9.59
-10.73
-12.65
-15.36
-18.71
-22.42
-26.13
-29.54
-32.38
-34.44
-35.59
-35.75
-34.93
-33.22
-30.80
-27.85
-24.57
-21.04
-17.28
-13.29
-9.10
-4.83
-0.69
3.05
6.21
8.72
10.65
12.08
13.13
13.85
14.29
14.50
14.56
14.54
14.45
14.23
13.80
13.09
12.10
10.93
9.74
8.61
7.60
6.67
5.82
5.11
4.74
4.90
5.67
7.01
8.67
10.32
11.66
12.59
13.18
13.65
14.20
14.95
15.86
16.82
17.63
18.18
18.35
18.19
17.86
17.64
17.87
18.80
20.49
22.78
25.21
27.26
28.37
28.14
26.43
23.41
19.49
15.21
11.13
7.65
4.93
2.84
1.12
-0.64
-2.79
-5.53
-8.89
-12.66
-16.51
-20.08
-23.04
-25.20
-26.54
-27.15
-27.25
-27.06
-26.84
-26.77
-26.96
-27.35
-27.77
-27.96
-27.69
-26.87
-25.60
-24.09
-22.63
-21.41
-20.49
-19.82
-19.19
-18.34
-17.10
-15.39
-13.30
-11.08
-8.92
-6.99
-5.26
-3.62
-2.00
-0.43
0.90
1.78
2.11
1.98
1.62
1.34
1.32
1.65
2.34
3.37
4.72
6.34
8.06
9.61
10.78
11.44
11.60
11.45
11.19
11.00
10.98
11.15
11.46
11.74
11.80
11.47
10.70
9.63
8.60
7.94
7.87
8.32
8.99
9.53
9.64
9.22
8.35
7.15
5.70
3.97
1.88
-0.65
-3.55
-6.65
-9.72
-12.53
-14.93
-16.88
-18.44
-19.72
-20.75
-21.55
-22.07
-22.28
-22.14
-21.65
-20.87
-19.86
-18.70
-17.49
-16.33
-15.31
-14.45
-13.68
-12.85
-11.72
-10.03
-7.64
-4.57
-1.07
2.39
5.35
7.40
8.43
8.61
8.31
7.89
7.59
7.46
7.42
7.38
7.34
7.36
7.52
7.76
7.92
7.81
7.25
6.17
4.71
3.08
1.61
0.59
0.28
0.78
2.09
4.01
6.24
8.47
10.43
11.98
13.04
13.54
13.33
12.18
9.95
6.70
2.81
-1.13
-4.43
-6.63
-7.55
-7.41
-6.62
-5.61
-4.71
-4.09
-3.78
-3.73
-3.82
-3.96
-4.07
-4.20
-4.47
-5.10
-6.30
-8.22
-10.88
-14.16
-17.80
-21.44
-24.67
-27.07
-28.36
-28.39
-27.20
-24.99
-21.96
-18.34
-14.24
-9.76
-5.00
-0.22
4.26
8.06
10.90
12.66
13.44
13.48
13.08
12.55
12.18
12.21
12.77
13.80
15.02
15.97
16.17
15.32
13.46
10.96
8.35
6.14
4.65
3.95
3.93
4.35
4.90
5.23
4.98
3.97
2.23
0.09
-1.92
-3.23
-3.53
-2.84
-1.44
0.25
1.88
3.27
4.41
5.36
6.12
6.70
7.09
7.33
7.49
7.73
8.12
8.72
9.48
10.32
11.12
11.79
12.24
12.43
12.34
11.97
11.35
10.50
9.43
8.15
6.71
5.19
3.66
2.19
0.77
-0.63
-2.09
-3.67
-5.37
-7.14
-8.83
-10.24
-11.11
-11.24
-10.51
-8.94
-6.67
-3.96
-1.14
1.50
3.72
5.34
6.24
6.38
5.84
4.76
3.36
1.87
0.46
-0.80
-1.84
-2.62
-3.07
-3.14
-2.80
-2.16
-1.35
-0.49
0.42
1.50
2.90
4.69
6.67
8.45
9.60
9.84
9.17
7.86
6.35
4.97
3.89
3.07
2.41
1.79
1.15
0.51
-0.10
-0.58
-0.79
-0.53
0.36
1.89
3.92
6.17
8.33
10.23
11.88
13.42
15.01
16.69
18.33
19.65
20.42
20.50
19.91
18.78
17.31
15.71
14.07
12.49
11.03
9.75
8.72
7.92
7.27
6.59
5.68
4.49
3.15
1.97
1.29
1.30
1.91
2.79
3.52
3.74
3.33
2.37
1.07
-0.37
-1.87
-3.39
-4.87
-6.13
-6.95
-7.09
-6.46
-5.16
-3.44
-1.57
0.22
1.83
3.17
4.13
4.55
4.25
3.18
1.48
-0.54
-2.46
-3.93
-4.79
-5.07
-4.95
-4.62
-4.21
-3.79
-3.36
-2.91
-2.46
-2.00
-1.57
-1.19
-0.92
-0.87
-1.12
-1.69
-2.50
-3.36
-4.02
-4.35
-4.42
-4.42
-4.64
-5.24
-6.28
-7.62
-9.10
-10.59
-11.99
-13.18
-13.94
-13.99
-13.14
-11.36
-8.89
-6.14
-3.50
-1.20
0.73
2.35
3.69
4.66
5.10
4.91
4.10
2.91
1.68
0.74
0.32
0.48
1.09
1.92
2.73
3.29
3.46
3.25
2.73
2.06
1.34
0.65
0.02
-0.55
-1.09
-1.62
-2.14
-2.73
-3.48
-4.53
-6.00
-7.98
-10.42
-13.12
-15.72
-17.80
-18.96
-19.00
-17.97
-16.17
-14.04
-12.04
-10.51
-9.55
-8.98
-8.38
-7.21
-4.95
-1.35
3.50
9.19
15.14
20.80
25.84
30.12
33.62
36.31
38.05
38.69
38.09
36.32
33.52
30.02
26.08
22.01
18.04
14.42
11.32
8.86
7.02
5.63
4.42
3.15
1.65
-0.06
-1.83
-3.39
-4.44
-4.80
-4.36
-3.19
-1.47
0.53
2.47
4.08
5.09
5.40
5.02
4.13
2.99
1.86
0.89
0.15
-0.44
-0.98
-1.54
-2.12
-2.66
-3.07
-3.34
-3.52
-3.67
-3.91
-4.29
-4.83
-5.49
-6.18
-6.78
-7.19
-7.38
-7.37
-7.29
-7.29
-7.47
-7.93
-8.68
-9.71
-11.03
-12.52
-14.03
-15.29
-15.98
-15.87
-14.93
-13.37
-11.49
-9.61
-7.87
-6.30
-4.83
-3.46
-2.28
-1.46
-1.05
-1.00
-1.10
-1.08
-0.78
-0.23
0.40
0.86
0.97
0.73
0.26
-0.29
-0.77
-1.19
-1.65
-2.29
-3.18
-4.28
-5.49
-6.65
-7.68
-8.58
-9.41
-10.25
-11.13
-11.97
-12.65
-13.04
-12.98
-12.40
-11.29
-9.68
-7.68
-5.45
-3.16
-1.04
0.73
2.05
2.87
3.28
3.40
3.36
3.25
3.16
3.10
3.09
3.17
3.37
3.72
4.18
4.63
4.94
5.00
4.79
4.35
3.81
3.28
2.86
2.56
2.35
2.19
2.07
1.96
1.83
1.62
1.20
0.47
-0.64
-2.12
-3.85
-5.60
-7.11
-8.19
-8.77
-8.87
-8.60
-8.06
-7.30
-6.35
-5.22
-4.00
-2.80
-1.73
-0.86
-0.17
0.39
0.84
1.18
1.38
1.45
1.44
1.43
1.53
1.80
2.23
2.77
3.34
3.83
4.14
4.20
4.02
3.68
3.32
3.09
3.02
3.07
3.13
3.12
3.01
2.84
2.68
2.55
2.41
2.19
1.84
1.37
0.84
0.35
-0.09
-0.48
-0.90
-1.45
-2.16
-2.98
-3.81
-4.57
-5.23
-5.86
-6.60
-7.59
-8.79
-10.03
-10.99
-11.37
-11.01
-9.95
-8.44
-6.75
-5.14
-3.80
-2.77
-2.11
-1.83
-1.90
-2.20
-2.55
-2.71
-2.50
-1.87
-0.84
0.45
1.83
3.14
4.21
4.96
5.33
5.38
5.21
4.92
4.55
4.06
3.37
2.47
1.38
0.23
-0.91
-2.00
-3.04
-4.03
-4.91
-5.58
-6.00
-6.24
-6.47
-6.88
-7.59
-8.46
-9.28
-9.75
-9.70
-9.11
-8.11
-6.86
-5.45
-3.96
-2.42
-0.92
0.37
1.30
1.79
1.93
1.89
1.90
2.11
2.57
3.25
4.06
4.92
5.81
6.69
7.50
8.18
8.62
8.80
8.72
8.48
8.19
7.96
7.78
7.61
7.27
6.65
5.76
4.71
3.68
2.84
2.26
1.89
1.63
1.40
1.18
0.93
0.61
0.13
-0.62
-1.70
-3.03
-4.40
-5.56
-6.30
-6.58
-6.48
-6.17
-5.81
-5.45
-5.04
-4.50
-3.81
-3.04
-2.32
-1.81
-1.54
-1.46
-1.43
-1.30
-0.97
-0.43
0.31
1.15
2.04
2.87
3.58
4.14
4.51
4.69
4.72
4.58
4.33
3.97
3.56
3.14
2.73
2.32
1.87
1.34
0.75
0.10
-0.50
-1.03
-1.50
-2.04
-2.81
-3.89
-5.29
-6.86
-8.38
-9.66
-10.62
-11.27
-11.63
-11.70
-11.39
-10.61
-9.32
-7.60
-5.70
-3.82
-2.18
-0.84
0.18
0.93
1.41
1.65
1.69
1.61
1.50
1.49
1.67
2.14
2.93
4.04
5.36
6.68
7.75
8.39
8.50
8.21
7.71
7.22
6.81
6.46
6.01
5.39
4.62
3.80
3.05
2.43
1.95
1.56
1.24
1.03
0.99
1.05
1.07
0.78
-0.01
-1.37
-3.10
-4.84
-6.19
-6.86
-6.80
-6.17
-5.26
-4.34
-3.59
-3.02
-2.60
-2.26
-2.01
-1.88
-1.95
-2.21
-2.62
-3.06
-3.45
-3.71
-3.87
-3.94
-3.95
-3.91
-3.75
-3.49
-3.17
-2.91
-2.92
-3.35
-4.26
-5.51
-6.81
-7.85
-8.43
-8.61
-8.63
-8.79
-9.29
-10.10
-11.03
-11.83
-12.33
-12.51
-12.47
-12.34
-12.20
-12.04
-11.82
-11.49
-10.97
-10.19
-9.00
-7.28
-4.93
-1.97
1.44
5.03
8.50
11.57
14.13
16.20
17.86
19.23
20.35
21.22
21.82
22.19
22.43
22.63
22.77
22.69
22.19
21.05
19.26
16.96
14.40
11.79
9.21
6.64
3.94
1.07
-1.92
-4.95
-7.95
-10.92
-13.90
-16.90
-19.80
-22.36
-24.33
-25.54
-25.96
-25.70
-24.89
-23.68
-22.16
-20.44
-18.61
-16.84
-15.27
-13.98
-12.98
-12.21
-11.57
-11.01
-10.49
-10.04
-9.69
-9.53
-9.66
-10.11
-10.85
-11.69
-12.33
-12.41
-11.62
-9.84
-7.13
-3.75
0.02
3.90
7.78
11.64
15.50
19.33
22.94
26.05
28.40
29.85
30.56
30.96
31.49
32.51
34.01
35.68
37.05
37.76
37.73
37.18
36.45
35.85
35.50
35.36
35.32
35.27
35.08
34.51
33.23
30.93
27.48
23.06
18.14
13.37
9.23
5.95
3.46
1.51
-0.15
-1.65
-3.05
-4.35
-5.57
-6.78
-8.01
-9.28
-10.53
-11.70
-12.68
-13.41
-13.76
-13.66
-13.07
-12.07
-10.74
-9.16
-7.37
-5.31
-2.95
-0.38
2.16
4.29
5.68
6.17
5.88
5.12
4.22
3.40
2.69
2.01
1.25
0.38
-0.50
-1.26
-1.80
-2.13
-2.39
-2.75
-3.32
-4.06
-4.72
-4.99
-4.57
-3.27
-1.20
1.37
4.03
6.28
7.68
7.87
6.68
4.18
0.68
-3.26
-7.01
-10.01
-12.02
-13.12
-13.57
-13.74
-13.89
-14.08
-14.20
-14.09
-13.66
-12.92
-12.03
-11.15
-10.40
-9.85
-9.48
-9.27
-9.19
-9.15
-9.08
-8.90
-8.60
-8.21
-7.85
-7.63
-7.63
-7.81
-8.05
-8.16
-7.89
-7.03
-5.45
-3.14
-0.25
2.93
5.95
8.38
9.94
10.55
10.32
9.47
8.18
6.51
4.40
1.77
-1.40
-5.01
-8.85
-12.73
-16.48
-20.02
-23.30
-26.21
-28.57
-30.13
-30.70
-30.22
-28.85
-26.92
-24.84
-23.00
-21.61
-20.64
-19.85
-18.88
-17.42
-15.32
-12.70
-9.84
-7.05
-4.53
-2.26
-0.16
1.90
3.93
5.83
7.46
8.80
10.00
11.39
13.34
16.02
19.24
22.53
25.23
26.78
26.96
25.95
24.17
22.12
20.17
18.45
16.94
15.59
14.43
13.56
13.08
12.97
13.13
13.34
13.39
13.18
12.66
11.89
10.83
9.48
7.78
5.75
3.45
1.02
-1.42
-3.76
-6.00
-8.11
-10.13
-12.02
-13.70
-15.08
-16.14
-16.91
-17.49
-17.96
-18.32
-18.42
-18.08
-17.15
-15.62
-13.64
-11.43
-9.16
-6.92
-4.70
-2.47
-0.25
1.83
3.63
5.03
5.95
6.44
6.54
6.37
6.05
5.69
5.42
5.29
5.31
5.38
5.37
5.15
4.70
4.12
3.60
3.38
3.60
4.31
5.41
6.73
8.06
9.17
9.94
10.30
10.27
10.00
9.69
9.56
9.76
10.32
11.20
12.31
13.57
14.94
16.36
17.69
18.74
19.30
19.29
18.77
17.87
16.77
15.55
14.24
12.92
11.83
11.31
11.73
13.26
15.76
18.79
21.72
23.92
24.91
24.38
22.25
18.67
14.01
8.85
3.75
-0.79
-4.57
-7.66
-10.31
-12.80
-15.24
-17.51
-19.35
-20.58
-21.30
-21.75
-22.24
-22.90
-23.51
-23.61
-22.69
-20.51
-17.18
-13.13
-8.97
-5.20
-2.09
0.29
1.98
3.01
3.38
3.09
2.18
0.88
-0.49
-1.59
-2.17
-2.13
-1.68
-1.08
-0.58
-0.31
-0.15
0.07
0.49
1.04
1.53
1.70
1.42
0.75
-0.12
-0.92
-1.51
-1.88
-2.12
-2.42
-2.92
-3.72
-4.80
-6.04
-7.29
-8.40
-9.26
-9.79
-9.93
-9.63
-8.86
-7.67
-6.17
-4.55
-3.00
-1.66
-0.57
0.31
1.02
1.59
2.04
2.42
2.82
3.38
4.25
5.47
6.92
8.24
8.96
8.61
6.97
4.17
0.71
-2.68
-5.35
-6.93
-7.44
-7.27
-6.91
-6.80
-7.17
-8.08
-9.43
-11.06
-12.75
-14.26
-15.29
-15.60
-15.05
-13.67
-11.67
-9.33
-6.96
-4.75
-2.81
-1.16
0.21
1.21
1.76
1.72
1.03
-0.28
-2.08
-4.18
-6.39
-8.51
-10.36
-11.77
-12.62
-12.89
-12.65
-12.01
-11.13
-10.11
-9.04
-7.97
-6.93
-5.93
-4.92
-3.83
-2.60
-1.28
-0.03
0.91
1.29
1.04
0.32
-0.56
-1.21
-1.35
-0.82
0.34
1.95
3.75
5.42
6.65
7.22
7.03
6.20
4.93
3.53
2.22
1.18
0.49
0.16
0.18
0.50
0.97
1.41
1.61
1.43
0.87
0.07
-0.72
-1.29
-1.51
-1.39
-1.12
-0.90
-0.96
-1.41
-2.20
-3.18
-4.16
-4.98
-5.58
-5.97
-6.23
-6.42
-6.52
-6.51
-6.37
-6.10
-5.73
-5.33
-4.94
-4.54
-4.06
-3.40
-2.47
-1.20
0.42
2.32
4.41
6.44
8.14
9.33
9.90
9.94
9.70
9.57
9.91
10.94
12.61
14.67
16.70
18.30
19.23
19.43
19.04
18.25
17.31
16.35
15.47
14.69
13.99
13.32
12.58
11.73
10.68
9.39
7.88
6.18
4.32
2.39
0.47
-1.40
-3.18
-4.85
-6.38
-7.72
-8.82
-9.69
-10.44
-11.27
-12.38
-13.86
-15.61
-17.46
-19.13
-20.44
-21.28
-21.59
-21.35
-20.54
-19.16
-17.31
-15.15
-12.85
-10.61
-8.50
-6.57
-4.80
-3.21
-1.80
-0.58
0.50
1.56
2.70
3.97
5.31
6.59
7.63
8.33
8.69
8.81
8.80
8.74
8.63
8.44
8.11
7.65
7.14
6.69
