1680096629.00
64.000000
-0.00
-0.00
-0.00
-0.00
-0.00
-0.00
-0.00
-0.00
-0.00
-0.00
0.00
0.01
0.01
-0.00
-0.03
-0.05
-0.05
0.00
0.13
0.36
0.66
1.01
1.37
1.72
2.06
2.40
2.79
3.24
3.80
4.42
5.06
5.66
6.20
6.68
7.15
7.68
8.31
9.14
10.09
11.04
11.88
12.56
13.14
13.76
14.65
15.96
17.91
20.32
22.90
25.38
27.58
29.57
31.68
34.32
37.81
42.54
48.15
54.10
59.83
64.97
69.58
74.14
79.34
85.71
93.76
103.00
112.62
121.73
129.77
136.75
143.30
150.75
157.77
166.64
177.95
191.79
206.97
220.57
228.25
225.36
208.53
176.87
132.76
80.05
23.07
-34.94
-92.44
-149.16
-205.23
-260.37
-313.74
-363.87
-409.82
-450.88
-486.45
-515.66
-537.12
-549.08
-549.78
-538.13
-513.92
-478.33
-433.47
-381.98
-326.48
-269.23
-211.95
-155.90
-102.12
-51.46
-4.91
36.66
72.59
102.62
126.87
145.87
160.31
170.91
178.29
182.85
184.88
184.61
182.31
178.32
173.07
166.96
160.33
153.43
146.41
139.34
132.26
125.21
118.25
111.46
104.90
98.63
92.68
87.07
81.80
76.89
72.33
68.15
64.34
60.91
57.86
55.21
52.94
51.04
49.48
48.23
47.21
46.31
45.40
44.30
42.82
40.79
38.06
34.51
30.10
24.86
18.86
12.27
5.32
-1.71
-8.54
-14.89
-20.51
-25.19
-28.80
-31.25
-32.52
-32.65
-31.73
-29.84
-27.11
-23.67
-19.65
-15.17
-10.36
-5.31
-0.20
4.84
9.67
14.16
18.23
21.83
24.91
27.50
29.68
31.47
32.96
34.23
35.39
36.53
37.73
39.07
40.61
42.43
44.46
46.68
49.11
51.81
54.90
58.49
62.74
67.79
73.79
80.62
88.16
96.28
104.84
113.66
122.59
131.50
140.29
148.96
157.19
164.82
171.69
177.68
182.58
186.11
187.80
186.91
184.63
181.22
176.75
171.14
164.29
156.04
146.33
135.18
122.69
109.14
94.54
79.09
63.07
46.80
30.66
14.96
0.02
-13.90
-26.57
-38.06
-48.44
-57.82
-66.30
-73.97
-80.94
-87.24
-92.88
-97.84
-102.21
-106.05
-109.40
-112.26
-114.64
-116.55
-117.97
-118.84
-119.11
-118.75
-117.73
-115.94
-113.18
-109.18
-103.54
-95.91
-85.90
-73.28
-58.08
-40.57
-21.33
-1.18
18.91
37.93
55.01
69.43
80.71
88.58
92.93
93.84
91.51
86.35
78.90
69.80
59.68
49.03
38.08
26.79
14.87
2.03
-11.86
-26.59
-41.69
-56.63
-71.02
-84.95
-99.02
-114.01
-130.63
-149.07
-168.90
-189.28
-209.58
-229.76
-250.43
-272.47
-296.30
-321.53
-347.02
-371.23
-392.70
-410.05
-421.95
-427.15
-424.59
-413.78
-395.02
-369.22
-337.26
-299.60
-256.18
-206.92
-152.67
-96.10
-41.88
3.88
35.14
47.53
39.84
14.88
-20.74
-58.03
-87.91
-103.77
-103.15
-87.83
-62.41
-32.01
-0.45
30.28
59.11
84.61
104.08
114.10
111.97
97.41
73.28
45.01
18.84
-0.13
-9.11
-7.75
2.51
19.43
40.69
64.09
87.38
108.09
123.52
130.97
128.23
114.38
90.36
59.13
25.25
-6.26
-31.17
-46.99
-53.07
-50.17
-39.68
-22.92
-0.99
24.98
53.44
82.23
108.54
129.27
141.46
142.78
132.04
109.64
77.78
40.32
2.34
-30.77
-54.18
-64.39
-59.84
-41.14
-11.16
25.40
62.49
93.77
113.58
118.13
106.19
79.39
41.86
-0.63
-41.79
-75.87
-98.46
-106.86
-100.30
-80.14
-49.74
-14.22
20.26
47.82
64.30
68.35
61.43
46.85
28.05
7.31
-14.53
-37.26
-59.96
-80.21
-94.45
-99.31
-93.10
-76.73
-53.23
-26.54
-0.13
23.73
44.00
60.32
72.60
80.87
85.39
86.65
85.20
81.54
76.36
70.76
66.64
66.45
72.44
85.61
104.89
127.20
148.02
162.57
166.84
158.46
137.11
104.53
64.27
20.89
-20.83
-56.75
-83.91
-100.44
-105.34
-98.22
-79.50
-50.97
-16.26
19.24
49.48
69.11
74.92
66.54
46.15
17.63
-14.65
-46.59
-74.72
-96.21
-108.75
-110.77
-101.85
-83.06
-56.89
-26.68
4.30
33.64
60.05
82.83
101.10
113.10
116.26
108.18
88.21
58.80
25.67
-3.35
-20.66
-21.39
-4.80
25.97
65.55
108.46
150.50
188.71
220.64
243.45
253.70
248.39
226.15
187.94
136.69
76.53
12.21
-50.67
-105.26
-143.91
-160.17
-151.78
-123.11
-85.05
-52.11
-37.34
-47.59
-81.21
-129.01
-178.00
-215.81
-234.12
-229.93
-204.71
-162.39
-107.25
-42.66
29.07
105.61
183.18
255.80
315.98
356.73
374.08
368.65
345.47
311.89
274.90
238.90
205.08
172.47
139.65
106.10
72.53
40.08
9.37
-20.24
-50.25
-82.18
-116.62
-152.70
-188.72
-223.50
-257.61
-293.53
-334.27
-380.71
-429.44
-472.39
-499.01
-500.15
-471.69
-416.55
-343.71
-265.36
-193.05
-134.70
-93.11
-66.13
-48.11
-31.90
-10.83
19.58
60.31
108.17
156.35
196.35
220.82
226.26
214.91
194.21
174.06
162.57
162.40
169.43
174.75
169.20
147.81
112.05
68.82
27.38
-4.03
-20.27
-19.80
-4.35
21.25
49.39
70.82
77.07
63.60
32.23
-8.99
-48.86
-77.71
-91.15
-90.97
-82.96
-73.34
-65.87
-61.24
-58.37
-56.16
-54.40
-53.43
-53.12
-52.36
-49.71
-44.81
-39.66
-38.28
-45.14
-62.74
-89.69
-120.57
-147.55
-163.23
-163.02
-146.43
-116.54
-78.78
-39.71
-6.30
14.46
16.87
-1.65
-38.55
-85.70
-131.19
-163.11
-173.63
-161.50
-132.08
-94.11
-55.81
-22.14
5.65
28.91
49.63
69.36
89.44
110.83
135.64
166.35
204.18
247.04
288.71
320.05
332.27
320.48
284.22
228.50
161.28
90.58
22.07
-41.66
-100.39
-154.53
-204.19
-250.80
-295.79
-340.46
-385.03
-427.93
-465.87
-494.72
-510.55
-498.59
-449.95
-363.45
-247.86
-119.39
4.38
110.36
192.27
249.65
285.09
300.81
298.83
279.40
242.76
190.16
124.29
49.31
-28.87
-102.98
-166.96
-213.76
-239.30
-243.41
-229.84
-204.80
-174.66
-143.91
-114.45
-87.28
-62.94
-42.50
-26.63
-14.78
-4.73
6.67
22.23
43.08
67.74
93.20
115.83
133.52
146.46
156.87
167.72
181.27
198.01
216.25
233.30
246.55
254.95
259.40
262.34
266.71
274.84
288.37
307.82
332.33
359.11
383.46
399.87
404.22
395.93
378.80
359.73
345.49
339.58
340.72
343.98
343.70
336.47
322.32
303.91
284.41
265.71
248.05
230.74
213.39
196.43
180.92
167.76
156.99
147.37
136.26
120.22
95.90
61.29
17.38
-31.15
-76.90
-111.93
-131.06
-134.26
-126.85
-117.41
-114.51
-123.85
-146.90
-181.00
-220.44
-257.44
-282.92
-287.58
-264.11
-209.94
-129.45
-33.98
61.02
140.74
195.61
223.24
227.84
216.99
198.17
176.49
154.27
132.22
110.82
91.11
74.46
61.77
52.53
44.72
35.57
22.76
5.64
-14.43
-34.35
-50.68
-61.28
-66.26
-68.12
-70.63
-77.36
-90.30
-109.74
-135.13
-165.94
-201.30
-238.71
-272.68
-295.30
-299.10
-280.93
-244.95
-202.01
-165.65
-146.60
-148.82
-169.18
-200.82
-237.83
-278.05
-322.39
-371.52
-422.51
-468.02
-498.65
-507.15
-491.60
-455.71
-406.43
-349.87
-289.17
-224.82
-157.76
-92.66
-39.01
-9.03
-12.83
-53.47
-124.29
-210.20
-292.41
-354.46
-387.08
-390.18
-371.08
-340.54
-308.11
-279.29
-254.89
-232.72
-210.09
-185.53
-158.91
-130.48
-100.06
-67.61
-34.49
-4.32
17.76
27.44
23.63
9.69
-7.71
-21.64
-27.76
-25.78
-18.57
-10.00
-2.83
2.13
5.40
7.75
9.39
10.05
9.57
8.47
7.82
8.67
11.63
16.36
21.69
26.13
28.51
28.44
26.60
24.46
23.75
25.73
30.63
37.63
45.22
51.89
56.84
60.44
64.15
69.83
79.03
92.19
108.41
125.82
142.37
156.81
169.14
180.72
193.58
209.58
229.73
254.02
281.55
310.91
340.22
367.32
390.15
407.53
420.06
430.34
441.97
457.46
476.11
493.40
502.40
496.90
474.54
438.13
394.33
350.44
311.26
277.59
247.22
217.27
186.51
156.18
128.96
107.22
91.38
79.50
68.40
54.83
36.27
11.04
-21.99
-62.84
-109.01
-153.99
-187.82
-200.05
-184.83
-145.13
-93.21
-46.36
-19.84
-20.94
-47.01
-88.30
-133.03
-171.37
-196.68
-204.47
-191.44
-156.35
-102.19
-37.61
24.33
70.11
90.58
84.03
55.73
14.58
-30.93
-76.08
-120.73
-167.87
-220.75
-279.94
-341.54
-397.59
-438.67
-457.49
-451.78
-425.02
-384.57
-338.23
-291.51
-246.81
-204.66
-165.53
-130.77
-102.08
-79.86
-62.20
-45.15
-24.52
2.19
34.72
70.56
106.33
139.70
170.33
199.60
229.24
259.89
290.07
316.27
334.07
339.68
331.39
310.07
278.49
240.03
197.53
153.10
108.83
67.74
34.08
12.17
4.50
9.88
23.24
37.29
45.21
43.22
31.46
13.04
-8.20
-29.64
-50.54
-71.20
-91.49
-109.78
-122.96
-127.59
-121.40
-104.29
-78.31
-46.87
-13.27
20.26
52.75
83.76
112.33
136.34
152.80
159.13
154.63
141.22
123.11
105.22
91.56
83.98
82.08
84.28
89.07
96.17
106.52
121.62
142.35
168.06
196.19
222.74
243.16
253.47
251.17
235.81
209.25
175.39
139.52
106.99
81.78
65.26
55.89
50.21
44.50
36.42
25.79
13.96
2.39
-8.60
-20.05
-33.60
-50.17
-69.09
-88.56
-106.55
-122.22
-136.57
-152.00
-171.44
-197.58
-232.33
-276.70
-330.19
-390.16
-451.21
-505.67
-545.38
-564.28
-560.55
-537.24
-500.77
-458.32
-415.46
-375.11
-338.03
-304.15
-273.48
-246.17
-221.90
-199.38
-176.69
-152.08
-124.96
-96.17
-67.44
-40.51
-16.15
6.30
28.77
53.90
84.15
120.78
162.86
206.82
246.92
277.02
292.70
293.39
282.85
267.82
255.27
249.55
250.86
255.90
259.90
259.07
251.77
238.16
218.83
193.88
162.85
125.84
84.72
43.58
7.93
-17.09
-28.45
-26.07
-12.50
8.21
31.95
55.40
76.12
92.29
102.27
104.70
98.95
85.61
66.58
44.56
22.18
1.25
-17.37
-33.29
-45.82
-53.65
-55.13
-48.98
-35.09
-14.82
9.13
33.24
53.75
66.90
69.43
59.16
35.93
2.24
-36.69
-73.77
-101.65
-114.57
-109.74
-87.86
-52.80
-10.54
32.05
68.52
93.96
105.57
102.91
87.66
63.08
33.28
2.53
-25.52
-48.23
-64.18
-73.08
-75.24
-71.13
-60.92
-44.68
-22.71
3.71
32.12
58.95
80.33
92.93
94.70
85.32
66.19
40.20
11.15
-16.90
-40.38
-56.91
-65.54
-66.65
-61.48
-51.58
-38.37
-23.14
-7.18
8.05
21.03
30.43
35.32
35.33
30.57
21.49
8.87
-6.18
-22.03
-36.64
-47.73
-53.28
-52.06
-44.06
-30.50
-13.47
4.55
21.27
34.81
43.78
47.14
44.30
35.26
20.82
2.67
-16.83
-34.99
-49.50
-58.75
-62.09
-59.63
-52.03
-40.20
-25.10
-7.89
10.06
27.02
40.89
49.66
51.67
46.11
33.22
14.36
-8.17
-31.51
-52.70
-69.06
-78.61
-80.36
-74.39
-61.68
-43.79
-22.68
-0.46
20.66
38.41
50.71
55.98
53.69
44.52
30.28
13.48
-3.29
-17.91
-29.02
-35.89
-38.20
-35.79
-28.61
-16.85
-1.19
17.01
35.72
52.48
64.87
70.96
69.70
60.97
45.48
24.62
0.38
-24.64
-47.33
-64.35
-72.97
-71.76
-61.21
-43.50
-21.72
1.02
22.40
40.84
55.17
64.17
66.45
60.84
47.09
26.36
1.25
-24.68
-47.75
-64.90
-74.24
-75.05
-67.47
-52.25
-30.54
-4.15
24.40
51.70
73.90
87.55
90.39
82.07
64.08
39.40
11.70
-15.37
-38.72
-56.12
-66.30
-69.04
-64.90
-54.90
-40.24
-22.10
-1.84
18.65
36.86
49.90
55.34
51.91
40.11
21.97
0.42
-21.65
-41.98
-59.12
-72.08
-79.99
-81.93
-77.01
-65.06
-47.01
-25.24
-3.10
15.89
29.08
35.42
35.52
31.02
23.71
14.96
5.54
-4.08
-13.35
-21.38
-27.01
-28.98
-26.06
-17.09
-1.20
21.95
51.37
84.13
115.21
138.06
146.28
135.80
106.61
63.29
13.80
-33.14
-70.71
-95.69
-108.49
-111.60
-107.66
-98.46
-84.93
-68.14
-50.09
-33.51
-20.81
-12.86
-8.65
-6.06
-3.66
-2.02
-3.97
-13.21
-32.29
-60.58
-93.73
-124.74
-146.38
-153.85
-146.44
-127.71
-103.85
-81.45
-64.99
-55.43
-50.31
-44.71
-32.94
-10.11
26.41
75.75
132.77
188.20
230.55
249.52
240.15
205.31
155.58
105.61
68.74
52.48
56.71
75.34
100.05
123.70
141.93
152.61
154.36
145.74
125.68
94.77
56.09
14.87
-22.78
-51.93
-70.20
-78.06
-78.15
-73.96
-68.43
-62.99
-57.53
-50.91
-42.01
-30.81
-18.87
-9.21
-5.25
-9.44
-22.17
-41.33
-63.03
-82.92
-97.61
-105.50
-106.63
-101.84
-91.90
-76.99
-57.03
-32.27
-4.12
24.80
50.96
70.93
82.23
84.12
77.72
65.65
51.25
37.58
26.31
17.35
9.25
0.30
-9.96
-19.99
-26.41
-25.56
-15.49
2.75
25.15
46.16
60.68
65.69
60.61
46.74
26.09
0.75
-27.17
-55.00
-79.33
-96.36
-103.06
-98.12
-82.73
-60.17
-34.78
-10.59
9.61
24.30
32.80
34.47
28.42
13.96
-8.48
-36.33
-64.83
-87.89
-100.05
-98.29
-83.11
-58.23
-29.06
-0.76
23.16
41.23
53.35
59.89
61.01
56.64
46.87
32.42
14.78
-4.12
-22.29
-37.85
-49.08
-54.22
-51.72
-40.67
-21.38
4.32
33.33
61.94
86.72
105.18
115.97
118.86
114.34
103.36
86.84
65.53
39.95
10.65
-21.28
-53.73
-83.49
-106.68
-119.71
-120.29
-108.25
-85.63
-56.11
-24.19
5.75
30.24
46.93
54.72
53.50
43.96
27.39
5.62
-19.12
-44.24
-67.08
-85.30
-97.25
-102.08
-99.79
-90.97
-76.69
-58.52
-38.61
-19.66
-4.43
5.05
8.35
7.04
4.15
2.88
5.22
11.11
18.81
26.08
31.84
36.96
43.88
55.50
73.86
99.48
131.43
167.81
206.13
243.40
275.97
299.75
310.86
306.78
287.24
254.73
213.94
170.67
130.35
96.86
71.84
54.63
42.85
33.03
21.45
4.70
-19.68
-52.19
-90.55
-129.38
-161.51
-180.61
-184.38
-176.41
-165.52
-162.50
-175.72
-207.71
-254.39
-307.05
-355.77
-392.70
-413.58
-417.64
-406.43
-382.56
-349.03
-308.85
-264.94
-219.79
-175.51
-133.68
-95.41
-61.55
-32.83
-10.16
5.45
12.93
11.97
3.57
-9.36
-22.28
-30.23
-29.69
-20.16
-4.72
11.02
21.87
25.02
21.21
14.28
9.14
9.62
17.06
30.29
46.62
64.62
83.87
104.63
127.17
151.02
175.03
198.23
220.76
243.77
271.22
306.40
349.99
399.04
447.48
488.08
514.93
525.15
518.42
499.53
474.25
447.83
424.11
405.59
393.89
390.24
395.52
397.48
387.27
358.58
310.18
246.63
175.98
106.22
42.89
-6.06
-43.51
-72.01
-93.83
-110.68
-124.01
-135.14
-145.37
-155.85
-167.07
-180.61
-195.93
-212.72
-230.90
-250.36
-270.76
-291.60
-312.11
-331.80
-351.51
-370.98
-390.37
-410.66
-433.65
-461.55
-495.81
-535.39
-575.86
-610.33
-630.28
-629.61
-607.20
-567.48
-518.41
-468.27
-422.62
-383.29
-349.50
-319.17
-290.87
-264.18
-239.13
-215.20
-191.08
-165.21
-136.75
-106.24
-75.32
-46.24
-20.67
0.91
19.42
36.67
54.57
74.28
95.85
118.27
140.05
159.95
177.59
193.76
210.33
229.61
253.49
282.39
314.55
346.21
372.70
390.16
396.92
394.12
384.83
372.56
359.64
346.46
331.78
313.85
291.39
264.26
233.31
200.04
166.31
134.33
106.60
85.61
73.02
68.64
70.14
73.35
74.01
69.42
59.52
46.70
34.26
24.53
17.73
12.07
5.14
-4.49
-16.34
-28.23
-37.50
-42.32
-42.47
-39.13
-34.18
-29.36
-25.63
-23.06
-21.11
-19.16
-17.06
-15.44
-15.59
-18.83
-25.92
-36.55
-49.40
-62.70
-74.80
-84.63
-91.73
-95.89
-96.75
-93.58
-85.38
-71.23
-50.85
-25.07
4.19
34.01
61.02
82.06
94.72
97.58
90.25
73.06
47.08
14.09
-23.18
-60.96
-94.73
-120.04
-133.46
-133.27
-119.70
-94.57
-60.83
-22.10
17.60
53.97
82.62
99.76
102.86
91.31
66.76
32.62
-6.56
-45.97
-81.10
-108.28
-124.88
-129.48
-122.03
-103.75
-77.07
-45.31
-12.33
17.79
41.38
55.72
59.62
53.56
39.63
20.80
0.12
-19.77
-36.87
-49.62
-56.94
-58.60
-55.44
-49.22
-41.67
-33.40
-23.17
-8.57
12.35
39.33
69.05
95.95
114.24
119.94
112.04
92.20
63.48
29.11
-8.12
-45.71
-80.89
-110.29
-130.16
-137.08
-128.89
-105.67
-70.07
-27.03
17.20
56.46
86.03
103.34
107.95
100.75
83.18
56.71
23.07
-15.23
-54.38
-89.51
-115.71
-129.40
-129.41
-117.18
-95.93
-69.34
-40.28
-10.48
19.04
47.05
71.54
89.82
99.46
99.23
89.73
73.25
53.14
33.05
16.26
5.27
1.62
5.71
16.59
31.97
48.46
62.42
70.86
72.47
67.82
58.84
47.68
35.75
23.17
9.01
-7.77
-27.30
-48.27
-68.12
-83.80
-92.74
-93.46
-85.87
-71.00
-50.79
-27.90
-5.41
13.47
25.96
30.26
26.10
14.85
-1.03
-18.64
-35.57
-50.24
-61.69
-68.97
-70.75
-65.80
-53.84
-36.54
-17.45
-0.98
9.59
13.57
13.06
11.61
12.03
14.66
17.12
15.54
6.84
-9.45
-30.49
-50.80
-64.16
-65.55
-52.76
-26.93
8.02
46.53
83.00
113.02
133.79
144.12
143.95
134.17
116.36
92.90
66.73
40.90
17.95
-0.54
-13.94
-22.22
-25.35
-23.03
-14.68
-0.02
20.29
44.21
68.27
88.11
99.69
100.30
89.43
68.88
42.11
13.18
-14.24
-37.50
-54.99
-65.92
-69.94
-67.06
-57.65
-42.56
-23.16
-1.18
21.36
42.18
58.91
69.14
71.00
63.66
47.87
26.11
2.07
-20.28
-37.74
-48.75
-53.64
-54.11
-52.27
-49.66
-46.64
-42.44
-35.92
-26.57
-15.36
-4.77
1.88
1.74
-6.71
-23.24
-46.32
-73.72
-102.95
-131.20
-155.05
-170.62
-174.19
-163.41
-138.19
-100.83
-55.16
-4.89
47.57
101.28
155.52
208.13
254.61
289.07
306.69
306.26
291.39
269.09
246.58
227.97
212.77
197.08
176.66
149.93
118.95
88.13
61.55
40.89
25.00
11.45
-1.46
-13.61
-23.26
-28.61
-29.46
-27.94
-28.30
-35.70
-54.92
-89.13
-138.70
-200.28
-266.65
-327.86
-373.57
-396.38
-394.14
-370.40
-332.48
-288.02
-241.98
-195.74
-148.56
-100.16
-52.91
-11.90
16.91
29.50
25.51
8.61
-14.91
-38.17
-55.18
-61.48
-53.88
-30.39
8.97
60.77
116.97
165.60
193.63
191.52
157.21
97.87
27.75
-36.75
-82.72
-104.54
-104.44
-89.94
-69.89
-51.32
-38.02
-30.94
-29.25
-31.01
-33.14
-31.10
-19.64
5.26
43.31
88.42
129.82
156.29
161.57
147.99
125.97
109.35
108.89
127.46
159.27
193.34
218.73
228.82
222.55
202.81
173.63
138.30
98.96
57.72
17.63
-17.49
-44.01
-60.01
-66.23
-65.73
-62.35
-58.95
-56.47
-54.03
-50.00
-43.25
-33.93
-23.26
-12.96
-4.50
1.15
3.47
2.13
-3.14
-12.46
-25.52
-41.47
-58.79
-75.47
-89.43
-98.78
-102.19
-99.09
-89.71
-75.06
-56.81
-37.12
-18.55
-3.78
4.93
6.25
0.36
-10.92
-24.51
-36.92
-45.22
-47.77
-44.53
-36.64
-25.90
-14.17
-2.96
6.76
14.43
19.86
23.02
24.08
23.26
20.86
17.20
12.72
8.02
3.82
0.89
-0.16
0.94
4.10
8.78
14.30
20.06
25.62
30.88
35.81
40.33
44.10
46.54
46.88
44.45
38.88
30.29
19.34
7.13
-4.95
-15.51
-23.40
-27.84
-28.51
-25.55
-19.50
-11.16
-1.49
8.61
18.24
26.56
32.50
34.75
31.85
22.70
7.14
-13.46
-36.30
-57.72
-74.19
-83.25
-84.01
-77.00
-63.71
-46.01
-26.02
-6.04
11.41
23.89
29.48
27.34
18.14
4.09
-11.60
-25.44
-34.56
-37.39
-34.02
-25.88
-15.13
-3.86
6.50
15.34
22.53
27.90
30.92
30.71
26.45
17.81
5.44
-8.98
-22.81
-32.97
-36.56
-31.56
-17.69
3.22
27.41
50.13
67.08
75.87
76.86
72.78
67.70
65.33
67.94
75.88
87.90
101.74
114.77
124.33
128.16
125.03
115.63
103.11
92.51
89.05
95.54
110.59
128.46
140.94
140.47
122.98
89.21
44.01
-5.76
-53.41
-93.91
-124.57
-144.92
-156.40
-161.83
-164.54
-167.26
-171.16
-175.39
-177.62
-175.13
-166.12
-150.55
-130.37
-109.01
-90.58
-78.90
-76.42
-83.35
-97.30
-113.41
-125.49
-127.92
-117.66
-95.39
-65.37
-33.84
-6.91
11.31
19.48
18.70
11.18
-1.08
-16.94
-36.06
-57.77
-79.98
-98.92
-109.51
-106.65
-86.72
-48.89
4.04
65.54
126.06
174.75
201.58
199.82
168.01
110.92
38.82
-35.18
-98.63
-142.84
-164.23
-163.74
-144.80
-111.54
-68.07
-18.94
30.25
73.12
103.95
119.60
120.65
110.97
95.73
79.18
63.52
49.36
37.09
28.04
24.38
28.06
39.53
57.02
76.87
94.73
106.72
110.19
103.97
88.31
64.73
35.87
5.09
-23.97
-47.93
-64.19
-71.18
-68.44
-56.57
-37.12
-12.52
13.95
38.39
56.75
65.72
63.49
50.43
29.21
4.12
-19.91
-38.71
-49.80
-52.85
-49.28
-41.36
-31.29
-20.56
-10.09
-0.43
7.68
13.35
15.84
14.85
10.76
4.29
-3.78
-12.92
-22.78
-32.65
-41.15
-46.34
-46.28
-39.98
-27.96
-12.22
4.64
20.46
34.10
45.50
55.00
62.51
67.14
67.49
62.44
51.98
37.71
22.43
9.38
1.13
-1.14
2.30
10.04
20.20
30.79
40.05
46.41
48.54
45.67
37.78
25.62
10.64
-5.53
-21.42
-35.98
-48.46
-58.09
-64.01
-65.34
-61.46
-52.43
-39.17
-23.43
-7.53
5.98
14.79
17.35
13.22
3.26
-10.53
-25.37
-38.33
-46.95
-49.66
-46.19
-37.87
-27.38
-18.39
-14.53
-18.26
-29.82
-46.95
-65.57
-81.29
-90.90
-93.21
-88.98
-80.00
-68.15
-54.81
-40.91
-27.21
-14.49
-3.39
6.09
14.75
23.95
34.76
47.01
58.99
67.80
70.61
65.90
54.25
38.16
21.17
6.64
-3.19
-7.52
-6.67
-1.60
6.38
15.77
24.66
30.98
32.97
29.79
21.97
11.22
-0.20
-10.38
-18.21
-23.54
-26.61
-27.61
-26.40
-22.57
-15.82
-6.18
5.83
19.33
33.12
45.76
55.70
61.51
62.33
58.20
50.29
40.47
30.76
22.56
16.34
11.90
8.90
7.40
7.93
11.01
16.53
23.46
30.06
34.51
35.59
32.98
27.25
19.41
10.54
1.57
-6.68
-13.47
-18.09
-19.99
-18.95
-15.12
-9.05
-1.56
6.25
13.28
18.49
20.97
20.07
15.38
6.88
-4.94
-18.90
-33.04
-44.73
-51.23
-50.49
-41.85
-26.37
-6.54
14.59
34.39
51.10
63.65
70.96
71.32
62.32
41.57
8.22
-35.59
-84.07
-128.50
-159.32
-168.80
-153.42
-114.89
-59.77
2.44
61.62
109.26
139.90
151.52
145.17
124.25
93.60
58.62
24.71
-3.29
-21.71
-28.50
-23.75
-9.78
9.21
28.31
43.13
50.94
51.09
44.61
33.43
19.57
4.67
-9.98
-23.24
-33.94
-40.89
-43.02
-39.68
-30.79
-17.09
-0.26
17.23
32.38
42.33
45.03
39.80
27.47
10.12
-9.42
-28.19
-43.36
-52.65
-54.58
-48.87
-36.68
-20.58
-4.02
9.48
17.30
18.36
13.15
3.31
-9.00
-21.77
-33.35
-42.40
-47.84
-48.83
-45.04
-36.87
-25.71
-13.62
-2.97
4.30
7.17
5.86
1.54
-4.09
-9.50
-13.70
-16.37
-17.67
-17.86
-17.03
-14.97
-11.50
-6.63
-0.78
5.32
10.89
15.38
18.53
20.30
20.61
19.35
16.43
11.94
6.35
0.51
-4.65
-8.28
-9.84
-9.10
-6.14
-1.26
4.91
11.42
17.01
20.38
20.53
17.10
10.63
2.49
-5.40
-11.09
-13.18
-11.13
-5.33
3.31
13.64
24.70
35.70
45.81
53.91
58.64
58.61
52.95
41.65
25.72
7.15
-11.39
-26.95
-36.81
-39.17
-33.79
-22.25
-7.66
6.23
16.08
19.91
17.56
10.41
0.72
-9.09
-17.11
-22.10
-23.58
-21.62
-16.76
-9.73
-1.38
7.27
15.08
20.78
23.20
21.57
15.81
6.65
-4.42
-15.42
-24.07
-28.24
-26.40
-18.09
-4.39
12.11
27.67
38.29
40.80
33.78
17.86
-4.59
-30.28
-55.67
-77.50
-93.16
-100.91
-100.22
-92.05
-78.65
-62.91
-47.42
-33.81
-22.68
-14.25
-9.23
-9.15
-15.78
-29.87
-49.99
-72.39
-91.88
-103.52
-104.20
-93.40
-73.05
-46.71
-18.64
7.05
26.92
38.50
40.61
33.67
19.71
1.96
-15.84
-30.52
-40.28
-44.99
-45.63
-43.45
-39.08
-32.32
-22.70
-10.64
1.74
10.82
12.76
5.30
-10.76
-31.64
-51.89
-66.29
-71.43
-66.28
-51.74
-30.01
-4.02
22.94
47.37
66.22
77.59
81.12
77.89
69.91
59.31
48.00
37.65
29.89
26.18
27.31
32.82
41.05
49.74
56.90
61.21
61.55
56.16
42.38
17.47
-19.50
-66.14
-116.29
-161.58
-193.99
-208.27
-202.94
-179.64
-141.59
-92.63
-37.31
18.11
65.19
94.71
99.57
78.08
35.89
-15.25
-61.26
-90.46
-96.95
-81.40
-49.17
-7.33
37.91
82.23
122.84
157.69
184.97
203.28
212.23
212.82
207.34
198.77
189.90
182.57
177.47
174.26
172.26
171.04
170.87
172.59
177.04
184.42
193.69
202.81
209.43
211.81
209.57
203.69
195.83
187.37
178.57
168.45
155.45
138.46
117.59
94.46
71.77
52.42
38.71
31.91
32.25
39.27
52.06
69.41
89.81
111.48
132.50
151.01
165.44
174.65
177.89
174.72
165.01
148.90
126.90
100.01
69.56
37.02
3.70
-29.55
-62.47
-95.38
-129.02
-164.36
-202.40
-243.55
-287.11
-330.90
-371.50
-405.36
-430.14
-445.67
-453.70
-456.58
-455.50
-449.34
-435.14
-409.73
-371.55
-321.68
-263.64
-202.35
-142.77
-89.33
-45.51
-13.87
4.45
10.31
6.73
-1.54
-9.27
-12.08
-7.55
4.70
23.32
45.93
69.57
90.90
106.48
113.23
109.26
94.64
71.90
45.64
21.39
4.05
-3.69
-1.85
7.01
18.86
29.60
36.31
37.90
34.92
28.95
21.66
14.17
6.93
0.08
-6.02
-10.50
-12.19
-10.27
-4.89
2.54
9.79
14.61
15.57
12.44
6.07
-2.25
-11.08
-19.11
-25.05
-27.67
-25.99
-19.70
-9.55
2.71
14.90
25.21
32.90
38.41
42.95
47.73
53.23
59.03
63.89
66.13
64.00
55.88
40.32
16.16
-17.15
-58.97
-106.99
-157.27
-204.83
-244.66
-272.77
-286.88
-286.35
-271.93
-244.96
-206.92
-159.50
-105.00
-46.99
9.49
58.48
94.20
112.40
111.43
92.69
60.33
20.39
-20.37
-55.75
-81.12
-93.93
-93.52
-80.58
-56.42
-22.62
18.60
63.76
107.72
144.16
166.95
172.03
158.47
128.63
87.28
40.56
-4.91
-42.77
-67.65
-76.27
-68.56
-48.04
-20.93
5.95
27.42
41.39
48.61
51.30
51.34
49.08
43.39
32.69
16.33
-4.38
-25.78
-42.53
-48.91
-40.50
-15.75
23.20
70.85
119.77
162.45
193.05
208.41
208.15
194.18
169.93
139.63
107.63
77.82
53.18
35.40
24.82
20.74
21.84
26.77
34.63
45.05
57.87
72.58
87.77
100.97
109.10
109.45
100.86
84.37
63.15
41.33
22.67
9.34
1.59
-1.81
-2.78
-3.24
-4.99
-9.69
-18.76
-33.02
-52.23
-75.01
-99.23
-122.70
-143.86
-161.75
-175.43
-183.16
-182.21
-169.53
-143.39
-105.11
-59.85
-15.91
17.66
33.79
29.60
7.01
-28.22
-68.51
-106.65
-137.12
-156.52
-163.20
-156.78
-138.12
-109.53
-74.95
-39.53
-8.47
14.41
27.53
31.39
27.40
16.55
-1.03
-25.48
-55.67
-87.89
-115.74
-131.62
-129.31
-106.44
-65.70
-14.36
37.61
80.08
104.82
106.90
85.31
42.99
-13.37
-74.25
-128.87
-167.56
-184.22
-177.85
-152.56
-115.64
-74.58
-34.21
4.48
43.40
85.01
129.62
174.00
211.74
235.23
238.08
217.49
175.35
118.29
56.43
0.92
-38.65
-56.50
-51.73
-27.67
10.18
56.40
107.25
160.68
215.16
268.30
316.15
353.86
377.07
383.23
372.21
346.32
309.69
267.59
225.79
189.56
162.59
145.96
137.82
134.01
129.51
120.21
103.92
80.53
51.30
17.84
-18.62
-57.63
-99.17
-142.98
-187.62
-229.98
-265.43
-288.68
-295.32
-283.21
-253.18
-208.70
-154.81
-96.59
-38.44
16.17
64.39
103.59
131.38
146.17
147.75
137.53
118.93
96.00
72.70
52.03
35.29
22.22
11.37
1.03
-10.41
-22.67
-34.93
-46.01
-55.09
-62.58
-70.26
-80.84
-97.26
-122.55
-157.63
-202.93
-257.27
-317.16
-376.60
-427.79
-463.09
-477.46
-471.13
-447.31
-412.91
-374.88
-337.77
-302.81
-268.58
-233.02
-190.85
-150.54
-115.61
-91.00
-79.70
-80.82
-89.47
-98.33
-100.48
-92.31
-75.22
-52.29
-28.34
-6.78
11.49
27.45
42.42
57.07
71.22
84.18
97.29
111.99
129.50
149.64
170.11
186.74
194.85
191.12
174.77
149.28
120.44
94.90
78.06
72.14
75.65
84.27
92.71
96.61
94.62
87.87
78.99
70.26
62.38
54.47
45.78
37.00
30.83
31.23
41.22
61.10
88.13
117.80
146.02
171.22
194.27
216.96
240.10
262.61
281.93
295.58
302.65
304.23
303.41
303.51
306.68
313.18
321.41
328.57
331.62
328.10
316.81
298.85
277.12
255.34
236.90
223.96
217.32
216.84
222.12
226.03
223.32
211.21
189.71
161.33
129.85
98.68
70.01
44.87
26.34
13.76
5.91
1.39
-1.57
-5.02
-10.93
-20.72
-35.18
-53.29
-73.21
-92.83
-110.78
-126.84
-141.73
-156.64
-172.39
-189.02
-205.79
-221.57
-235.15
-246.01
-254.80
-262.92
-271.97
-282.98
-295.87
-309.48
-322.01
-331.44
-336.50
-337.57
-337.01
-338.99
-347.99
-366.57
-393.56
-423.00
-445.18
-449.55
-428.53
-379.82
-307.76
-221.84
-134.17
-57.44
-2.00
26.29
27.20
6.10
-27.12
-61.96
-89.85
-105.89
-110.33
-106.31
-97.33
-85.47
-71.37
-54.24
-35.11
-16.41
-1.01
7.40
6.41
-4.30
-22.85
-46.11
-69.68
-91.38
-110.32
-117.26
-105.25
-71.28
-18.11
46.12
104.26
150.01
180.08
191.90
183.29
153.38
102.84
36.33
-37.22
-106.15
-158.30
-187.13
-192.75
-180.89
-161.27
-143.01
-131.36
-126.93
-127.14
-128.03
-128.20
-128.12
-128.72
-130.56
-132.94
-134.01
-132.00
-126.19
-116.79
-105.94
-96.12
-88.89
-84.68
-82.68
-81.37
-79.34
-76.02
-71.63
-67.49
-65.03
-64.89
-66.67
-68.90
-69.58
-66.98
-60.21
-49.49
-36.04
-21.38
-6.55
8.45
24.62
43.50
66.31
93.26
123.14
153.67
182.20
206.64
226.19
241.53
254.61
268.14
284.89
306.84
334.16
364.40
392.39
411.24
414.55
399.08
366.54
323.51
279.46
243.51
221.62
215.12
221.27
235.02
251.14
265.53
275.70
280.21
278.15
268.67
251.03
224.80
190.06
147.87
100.33
50.80
3.57
-36.90
-67.08
-85.24
-91.81
-88.94
-79.53
-66.50
-52.46
-39.91
-31.48
-29.80
-36.75
-52.43
-74.70
-99.38
-121.32
-135.92
-140.18
-133.43
-117.23
-94.78
-69.92
-46.09
-25.33
-8.05
6.36
18.40
27.55
32.45
31.92
26.18
17.24
8.17
1.92
0.51
5.32
17.73
39.19
70.19
108.47
147.87
179.39
194.05
186.52
157.41
112.51
59.62
4.59
-50.76
-107.58
-166.74
-225.72
-277.64
-313.32
-325.26
-311.15
-274.93
-224.72
-169.24
-114.57
-62.99
-14.38
31.08
70.89
100.30
114.66
112.62
98.25
80.57
70.19
74.82
96.05
128.78
164.28
194.44
215.09
226.68
232.04
233.08
228.60
214.90
188.56
149.57
102.62
55.36
14.74
-16.30
-39.83
-60.90
-83.65
-108.06
-129.47
-141.10
-138.38
-122.44
-100.54
-83.08
-78.74
-90.45
-114.25
-141.46
-162.74
-171.85
-167.36
-152.17
-131.34
-109.88
-91.41
-77.80
-69.52
-66.17
-66.76
-69.70
-72.78
-73.38
-68.92
-57.48
-38.33
-12.39
17.42
46.15
67.24
74.24
63.24
35.28
-2.55
-38.55
-60.17
-58.86
-33.35
9.88
59.48
103.80
134.83
150.06
151.66
144.13
131.96
118.10
103.84
89.31
74.25
58.42
41.86
24.94
8.33
-7.16
-20.48
-30.46
-36.00
-36.12
-30.39
-19.23
-4.27
11.55
24.50
30.87
28.11
15.79
-4.08
-27.59
-50.10
-67.67
-77.99
-80.55
-76.12
-65.98
-51.43
-33.71
-14.22
5.12
22.02
34.18
39.84
38.16
29.30
14.35
-4.87
-25.85
-45.63
-61.07
-69.47
-69.19
-60.18
-44.07
-23.85
-3.00
15.39
29.10
36.99
38.61
34.03
23.73
8.86
-8.59
-25.81
-39.73
-47.89
-49.19
-44.06
-34.13
-21.37
-7.48
6.39
19.47
31.03
40.15
45.93
47.68
45.19
38.85
29.45
18.20
6.63
-3.54
-10.56
-13.03
-10.28
-2.75
8.18
20.52
32.38
42.32
49.57
53.76
54.60
51.68
44.67
33.74
19.79
4.58
-9.80
-21.42
-29.05
-32.35
-31.65
-27.49
-20.41
-11.00
-0.09
10.88
20.00
25.26
25.17
19.37
8.78
-4.60
-18.29
-29.94
-37.90
-41.43
-40.63
-36.29
-29.56
-21.79
-14.18
-7.58
-2.27
1.96
5.62
9.01
12.00
14.06
14.45
12.81
9.35
5.05
1.35
-0.22
1.54
7.07
15.92
26.68
37.37
45.79
50.07
49.12
42.83
32.07
18.38
3.61
-10.63
-23.37
-34.42
-44.29
-53.56
-62.34
-69.72
-73.84
-72.57
-64.49
-49.70
-30.22
-9.64
7.69
17.79
18.20
8.70
-8.31
-28.25
-45.60
-55.68
-56.16
-47.67
-33.29
-16.99
-1.99
10.12
19.20
25.68
29.56
30.13
26.60
19.02
8.76
-1.81
-10.35
-15.54
-17.56
-17.64
-17.06
-16.42
-15.49
-13.58
-10.40
-6.45
-3.18
-2.34
-5.24
-12.24
-22.40
-33.61
-42.84
-46.46
-40.56
-21.72
11.93
59.32
115.48
171.93
218.70
247.20
252.98
236.78
203.14
157.65
104.48
45.86
-15.96
-76.16
-126.37
-156.84
-160.66
-138.09
-97.70
-53.40
-19.05
-3.55
-8.97
-31.96
-66.77
-107.59
-149.24
-186.24
-212.43
-221.87
-210.76
-179.19
-131.02
-72.35
-9.68
51.16
105.03
147.09
172.95
179.91
168.46
142.82
109.92
77.02
49.32
28.87
15.03
5.96
0.36
-1.90
-0.15
6.01
15.80
27.28
38.23
47.40
55.24
63.63
74.20
86.58
97.30
100.29
89.05
59.65
13.05
-44.19
-101.51
-147.67
-174.25
-178.16
-162.23
-133.70
-101.53
-73.71
-55.25
-47.56
-49.08
-56.48
-66.04
-74.41
-78.82
-77.11
-67.65
-49.76
-24.30
6.03
36.92
63.32
80.63
85.78
77.95
58.65
31.45
1.33
-26.24
-46.13
-54.54
-49.87
-33.01
-7.21
22.94
52.73
78.54
98.45
112.08
120.09
123.36
122.44
117.21
107.15
92.00
72.50
50.62
29.26
11.26
-1.42
-8.22
-9.79
-7.43
-2.45
4.14
11.54
18.90
25.14
29.09
29.68
26.35
19.11
8.62
-4.10
-17.81
-31.32
-43.74
-54.55
-63.58
-70.84
-76.32
-79.68
-80.34
-77.77
-71.98
-63.85
-55.20
-48.25
-44.90
-46.04
-51.24
-58.88
-66.83
-73.02
-75.92
-74.70
-69.24
-60.06
-48.30
-35.72
-24.25
-15.53
-10.14
-7.08
-4.00
1.96
12.76
28.20
45.68
60.95
70.02
71.03
65.23
56.57
49.97
49.32
56.06
69.02
85.32
101.74
115.62
125.14
129.04
126.35
116.54
100.00
78.38
54.75
32.95
16.63
8.24
8.29
15.44
27.09
40.31
52.75
62.80
69.13
70.12
63.79
48.58
24.68
-5.04
-35.20
-59.57
-73.30
-74.64
-65.27
-49.02
-30.09
-11.33
6.08
21.95
35.83
46.18
50.44
46.03
31.95
9.82
-15.83
-38.68
-52.47
-53.33
-40.90
-18.38
8.75
34.78
55.32
67.78
71.00
64.71
49.42
26.74
-0.46
-28.43
-53.36
-72.40
-84.07
-87.95
-84.13
-72.85
-54.80
-31.65
-6.30
17.72
37.33
50.92
58.60
61.43
60.27
55.13
45.32
30.40
11.19
-10.12
-30.12
-45.02
-51.86
-49.26
-37.74
-19.52
2.09
23.47
41.46
53.54
57.94
53.40
39.14
15.08
-18.06
-59.04
-106.71
-160.30
-218.95
-280.59
-340.81
-392.84
-429.23
-444.46
-437.28
-411.15
-372.76
-329.17
-285.45
-243.76
-204.10
-165.92
-129.30
-94.84
-62.94
-32.77
-1.95
32.64
73.47
120.59
170.62
216.91
251.65
268.76
266.55
248.64
222.38
195.69
173.75
157.46
144.32
130.99
115.88
100.19
87.16
79.96
79.74
84.77
91.12
94.10
89.85
76.17
52.92
21.76
-14.17
-50.50
-81.99
-103.17
-109.52
-99.09
-73.49
-38.10
-0.39
32.75
57.66
74.95
88.20
101.57
117.42
135.23
152.10
163.97
166.91
157.81
134.95
98.60
51.95
1.67
-42.82
-71.51
-76.97
-57.15
-16.41
35.68
87.22
127.28
148.43
147.76
126.67
89.84
43.56
-5.87
-53.35
-95.54
-130.64
-157.38
-174.27
-179.00
-168.86
-141.90
-98.56
-42.76
18.01
74.21
116.82
139.98
142.61
128.43
104.41
78.32
56.43
42.08
35.32
33.49
32.41
27.87
16.78
-2.02
-27.53
-56.92
-86.25
-111.34
-128.45
-134.67
-128.17
-108.61
-77.62
-38.96
2.07
39.74
69.66
89.90
101.19
106.03
106.95
105.14
100.06
90.09
73.74
50.98
24.24
-1.68
-20.69
-27.52
-19.99
-0.78
22.77
40.70
44.14
28.84
-3.02
-43.73
-83.16
-112.58
-127.41
-128.09
-118.78
-105.26
-92.88
-85.24
-83.70
-87.44
-93.59
-97.85
-95.57
-83.12
-59.31
-25.98
12.62
51.18
84.95
110.72
126.88
133.21
130.51
120.61
106.39
91.49
79.20
71.24
67.00
63.84
58.69
49.79
37.59
24.31
12.31
2.58
-5.69
-14.32
-24.78
-37.13
-49.79
-60.41
-66.93
-68.32
-64.90
-57.93
-49.07
-39.86
-31.50
-24.79
-20.02
-16.98
-14.83
-12.04
-6.62
3.02
17.12
34.23
51.46
65.36
72.83
71.59
60.18
37.76
4.62
-36.95
-81.71
-121.66
-147.91
-153.89
-138.23
-105.71
-65.54
-27.79
0.34
16.42
22.34
22.22
19.93
17.67
15.84
13.71
10.58
6.25
1.09
-3.89
-6.94
-5.74
1.84
16.56
36.56
56.98
71.10
72.81
59.69
34.70
5.69
-17.47
-26.84
-19.59
1.46
29.58
57.22
78.76
91.53
95.32
91.15
80.32
64.29
45.36
27.08
13.92
9.93
17.16
34.79
59.41
86.41
111.58
132.36
148.33
160.96
172.82
186.36
202.75
221.00
237.82
248.66
249.39
237.99
215.52
185.58
152.71
120.67
91.42
65.38
42.40
22.86
7.60
-2.58
-8.04
-10.70
-13.51
-19.26
-29.77
-45.73
-66.85
-92.32
-120.68
-149.57
-175.79
-195.98
-207.78
-210.86
-207.14
-199.69
-191.24
-182.83
-173.84
-163.27
-151.54
-141.46
-137.37
-142.88
-158.38
-180.00
-200.98
-214.68
-217.84
-212.15
-203.44
-198.54
-201.79
-212.77
-226.69
-236.61
-236.70
-224.47
-201.15
-170.38
-136.20
-101.78
-69.53
-42.07
-23.05
-16.46
-24.68
-45.96
-73.22
-95.26
-100.13
-79.88
-34.29
27.88
91.36
139.40
159.87
149.77
116.35
74.17
39.40
23.71
30.20
53.20
81.53
103.27
109.61
96.64
64.92
18.00
-38.69
-98.52
-154.00
-197.79
-224.02
-229.77
-215.77
-185.95
-146.18
-102.78
-61.44
-26.58
-1.03
14.50
21.69
24.59
28.62
38.59
56.57
80.53
105.09
123.76
132.17
130.47
123.31
117.81
120.18
133.02
154.18
177.75
196.44
204.05
197.22
176.10
143.95
106.09
68.72
37.30
15.34
3.55
-0.17
0.11
-0.24
-4.68
-14.04
-25.73
-34.14
-32.47
-15.70
16.63
59.10
101.48
131.87
140.59
123.16
81.16
21.14
-47.59
-114.96
-171.39
-208.67
-220.64
-204.35
-161.39
-98.52
-26.93
40.37
92.11
122.06
130.55
123.44
109.15
94.86
84.05
76.28
68.87
59.27
46.78
32.96
21.11
15.03
18.04
32.10
56.85
88.88
121.55
146.17
154.33
140.72
105.07
52.43
-8.43
-67.54
-116.22
-148.70
-162.98
-160.72
-146.70
-127.57
-109.98
-98.81
-95.86
-99.64
-106.29
-111.30
-111.21
-104.60
-92.06
-75.39
-56.56
-36.46
-14.33
12.07
45.24
86.04
131.75
175.39
206.90
216.45
198.68
155.69
97.68
40.11
-1.18
-15.15
1.06
41.81
95.30
147.70
187.09
206.01
202.27
178.16
138.84
90.66
39.91
-8.01
-48.83
-79.68
-99.03
-106.60
-103.42
-91.67
-74.63
-56.35
-40.96
-31.78
-30.34
-36.01
-46.39
-58.35
-69.06
-76.72
-80.38
-79.68
-74.57
-65.55
-54.02
-42.32
-33.34
-29.50
-31.81
-39.57
-50.62
-62.17
-71.54
-76.79
-76.80
-71.28
-60.67
-46.20
-29.84
-14.09
-1.51
5.97
7.54
3.65
-4.19
-14.05
-23.91
-32.02
-37.00
-37.90
-34.32
-26.74
-16.56
-6.11
1.91
5.03
1.89
-7.25
-20.58
-35.11
-47.51
-55.10
-56.51
-51.97
-42.89
-31.22
-18.74
-6.63
4.63
14.91
24.18
32.40
39.51
45.46
50.25
53.77
55.81
56.17
54.95
52.70
50.49
49.45
50.18
52.22
54.10
53.79
49.70
41.44
30.19
18.36
8.58
2.79
1.62
4.50
10.15
17.16
24.34
30.53
34.56
35.09
31.05
22.27
9.88
-3.68
-15.37
-22.54
-23.86
-19.67
-11.72
-2.39
6.15
12.41
15.69
15.85
13.04
7.54
-0.19
-9.33
-18.74
-27.13
-33.35
-36.77
-37.39
-35.70
-32.30
-27.70
-22.29
-16.62
-11.59
-8.67
-9.45
-14.97
-25.06
-38.12
-51.47
-62.26
-68.34
-68.72
-63.53
-53.62
-40.26
-25.08
-10.09
2.26
9.57
10.20
3.86
-8.06
-22.75
-36.80
-47.04
-51.29
-48.59
-39.21
-24.43
-6.55
11.41
26.10
34.52
34.99
27.88
15.91
3.61
-4.11
-3.54
6.34
23.50
43.42
60.74
71.17
72.89
66.86
56.04
43.90
32.93
23.89
16.02
8.03
-0.74
-9.62
-16.81
-20.25
-18.64
-12.28
-3.22
5.02
8.10
1.41
-19.02
-55.32
-106.37
-166.83
-227.60
-277.90
-308.53
-314.87
-298.15
-264.53
-222.19
-178.31
-137.25
-100.45
-67.69
-38.45
-12.42
11.08
33.86
59.02
89.86
128.13
172.51
218.52
259.79
290.49
307.60
311.83
307.10
298.64
290.96
286.55
285.74
287.29
289.15
288.93
284.35
273.69
256.64
234.89
212.09
192.83
180.93
178.04
183.09
192.87
203.30
210.73
212.53
207.29
194.48
174.43
148.21
117.76
85.62
54.52
26.69
3.49
-14.86
-29.06
-40.47
-50.77
-61.58
-74.34
-90.32
-110.82
-136.96
-169.07
-205.95
-244.35
-279.46
-306.19
-320.90
-322.60
-313.13
-296.01
-274.83
-251.84
-227.78
-202.61
-176.76
-151.74
-129.80
-113.00
-102.19
-96.74
-94.99
-95.17
-96.04
-97.18
-98.62
-100.18
-100.92
-99.27
-93.53
-82.75
-67.34
-48.87
-29.69
-11.98
2.82
14.23
22.38
27.43
29.44
28.66
26.32
25.18
29.24
42.35
66.26
99.27
135.92
168.52
189.57
194.36
182.55
158.14
127.75
98.22
74.39
58.09
48.58
43.87
42.02
41.84
42.76
44.22
45.13
44.08
39.98
32.79
23.69
14.73
7.88
4.22
3.73
5.60
8.79
12.62
17.07
22.74
30.52
41.18
54.77
70.17
85.05
96.27
100.75
96.38
82.85
61.66
35.53
7.39
-20.78
-48.50
-76.93
-108.24
-144.31
-185.22
-228.21
-267.49
-295.51
-305.25
-292.81
-259.13
-209.94
-154.04
-100.43
-55.95
-24.01
-4.96
2.83
1.80
-5.43
-16.09
-27.17
-35.64
-39.14
-36.49
-27.93
-15.00
0.10
15.18
28.49
39.28
47.79
55.46
64.44
76.65
92.56
110.47
126.81
137.61
140.65
136.70
129.31
122.92
120.14
120.08
118.65
110.76
93.31
67.12
36.65
7.91
-14.55
-29.63
-39.82
-49.46
-62.78
-82.42
-109.29
-143.34
-183.88
-229.03
-274.86
-314.97
-341.65
-348.44
-332.80
-297.46
-249.36
-196.79
-146.14
-100.05
-57.26
-14.57
30.75
79.06
127.47
170.45
201.49
215.42
210.40
189.04
157.89
125.28
98.72
82.79
78.42
83.73
95.51
110.56
126.18
139.96
149.36
151.82
145.36
129.43
105.36
76.13
45.49
16.56
-8.96
-31.13
-51.00
-69.46
-86.18
-99.29
-106.14
-104.60
-94.57
-78.48
-60.96
-47.34
-41.99
-47.06
-61.92
-83.54
-107.54
-129.23
-144.53
-150.54
-145.77
-130.18
-105.26
-73.82
-39.72
-7.17
20.02
39.32
49.87
52.47
48.88
41.07
30.57
18.40
5.31
-7.75
-19.44
-28.01
-31.66
-28.98
-19.41
-3.66
15.96
35.54
50.16
55.10
47.37
26.93
-2.96
-36.67
-67.82
-91.17
-103.71
-104.79
-95.54
-78.01
-54.48
-27.17
1.75
29.94
54.98
74.58
86.98
91.49
88.88
81.51
73.00
67.41
68.13
77.00
93.63
115.50
138.32
156.94
166.47
163.38
146.54
117.77
81.57
44.10
11.57
-11.34
-22.56
-22.76
-14.75
-2.41
10.30
19.95
24.02
21.04
10.83
-5.51
-25.66
-46.56
-64.92
-77.87
-83.37
-80.40
-69.03
-50.44
-27.02
-2.33
19.28
33.57
37.48
30.19
13.57
-8.23
-29.79
-46.01
-53.27
-50.26
-38.15
-20.00
-0.02
17.37
28.35
30.47
23.20
8.19
-10.84
-28.90
-40.95
-43.24
-34.48
-16.14
7.89
32.52
52.55
63.90
64.44
54.34
36.19
14.38
-5.91
-19.95
-24.66
-19.18
-4.63
16.45
40.69
64.20
82.79
92.30
89.44
72.91
44.14
7.50
-30.65
-63.52
-85.63
-93.92
-88.17
-70.54
-44.85
-15.67
12.44
35.38
49.85
53.64
45.85
27.15
0.07
-31.07
-60.65
-82.72
-92.31
-86.41
-64.50
-28.52
17.48
67.94
116.33
156.01
181.38
189.12
178.99
153.99
119.38
81.19
44.69
13.54
-10.44
-26.59
-35.01
-36.41
-32.35
-25.78
-20.83
-22.14
-33.29
-55.43
-86.52
-121.75
-154.97
-180.57
-194.81
-196.13
-184.64
-161.29
-127.51
-85.51
-38.92
7.05
46.36
73.71
86.21
84.18
70.78
50.55
27.85
5.75
-14.01
-30.40
-42.38
-48.47
-47.15
-37.58
-20.44
1.73
24.80
44.04
55.22
55.46
43.69
20.57
-11.63
-49.22
-87.22
-119.72
-140.80
-145.92
-133.31
-104.78
-65.48
-22.48
17.15
48.13
67.95
76.96
77.66
73.52
67.77
62.40
57.83
53.29
47.88
41.93
37.66
38.63
48.21
67.51
94.09
122.22
144.46
154.14
147.50
124.69
89.53
48.20
7.64
-26.04
-48.70
-58.65
-56.73
-45.68
-29.34
-11.56
4.59
17.09
24.87
27.43
24.51
15.97
1.98
-16.71
-38.70
-61.99
-84.32
-103.53
-117.89
-126.35
-128.34
-123.61
-111.86
-92.44
-64.55
-27.89
16.15
63.73
108.47
142.62
159.19
154.37
129.03
88.85
42.84
0.88
-29.04
-42.80
-41.20
-29.46
-15.52
-7.38
-10.25
-24.98
-47.96
-73.07
-94.44
-108.90
-116.81
-120.85
-123.95
-127.52
-130.83
-131.86
-128.77
-120.81
-107.99
-90.19
-66.60
-36.21
1.04
42.74
83.79
117.64
138.32
142.39
129.64
102.50
65.03
22.32
-19.69
-54.15
-74.37
-75.68
-57.77
-25.75
10.92
41.37
57.25
55.57
39.59
17.31
-1.13
-6.49
7.27
41.28
91.21
147.83
199.08
233.24
242.28
223.81
181.18
121.56
53.42
-15.40
-78.51
-130.94
-169.01
-190.60
-195.54
-185.72
-164.67
-136.73
-106.20
-77.02
-52.70
-36.06
-28.49
-29.51
-36.58
-45.99
-54.29
-59.58
-61.76
-61.90
-60.88
-58.69
-54.30
-46.49
-34.74
-19.63
-2.67
14.11
28.80
40.05
47.40
51.67
55.11
61.43
74.90
98.90
134.41
178.88
226.45
269.44
300.39
314.07
308.44
284.55
245.78
196.83
142.97
89.54
41.51
2.91
-23.66
-37.38
-39.05
-30.81
-15.46
4.03
24.92
44.86
62.03
75.10
83.11
85.28
80.90
69.38
50.51
24.98
-5.53
-38.62
-71.78
-103.57
-134.42
-166.76
-203.85
-247.61
-296.51
-344.74
-383.50
-404.16
-401.63
-376.33
-333.58
-281.05
-225.73
-172.32
-123.53
-81.20
-47.11
-22.38
-6.41
3.74
12.45
23.73
39.50
59.05
80.04
99.75
115.94
126.88
131.00
126.91
114.21
94.16
69.89
45.52
24.83
10.15
2.21
0.67
4.77
13.84
27.28
44.34
64.10
85.20
105.80
123.54
135.63
139.35
132.84
115.83
90.03
58.80
26.43
-2.74
-24.83
-36.79
-36.72
-24.46
-2.22
25.25
51.32
68.97
72.93
61.26
35.89
1.84
-34.49
-67.27
-92.33
-107.75
-113.43
-110.72
-101.86
-89.60
-76.66
-65.32
-56.99
-52.30
-51.50
-55.08
-63.92
-78.92
-100.39
-127.39
-157.57
-187.66
-214.14
-233.89
-244.44
-244.01
-231.63
-207.40
-172.77
-130.66
-84.90
-39.45
2.57
39.49
71.22
98.82
124.19
149.52
177.05
208.57
244.70
284.25
323.98
359.28
385.44
399.50
401.36
394.03
382.50
371.83
365.35
363.61
364.52
364.45
359.84
348.43
329.96
305.88
278.61
250.54
223.21
197.05
171.66
146.43
121.17
96.29
72.54
50.46
29.97
10.11
-10.56
-33.51
-59.97
-90.78
-126.25
-165.93
-208.06
-249.20
-284.60
-309.37
-320.33
-317.68
-305.35
-289.88
-277.89
-273.70
-277.78
-287.05
-296.49
-301.25
-298.23
-286.51
-266.83
-240.78
-210.09
-176.58
-142.21
-109.29
-80.45
-58.07
-43.69
-37.66
-38.98
-45.69
-55.38
-65.65
-74.35
-79.56
-79.62
-73.35
-60.36
-41.54
-19.07
3.99
24.49
40.04
49.52
52.91
50.78
43.75
32.28
16.94
-1.08
-19.53
-35.24
-44.46
-43.49
-29.35
-0.49
42.38
95.53
152.09
202.86
238.34
251.50
240.09
207.63
162.47
115.16
75.39
49.57
39.82
44.53
59.82
81.03
103.79
124.42
139.91
147.84
146.62
135.79
116.47
91.43
64.61
40.32
22.31
13.04
13.44
23.04
40.32
62.96
88.16
112.91
134.38
150.27
159.00
159.70
152.09
136.23
112.60
82.10
46.06
5.96
-36.79
-80.78
-124.22
-164.49
-198.11
-221.57
-232.85
-232.73
-225.27
-216.65
-212.89
-217.50
-230.10
-246.86
-262.05
-270.09
-266.96
-250.83
-221.91
-182.20
-135.24
-85.90
-39.87
-2.65
21.54
30.83
26.16
10.84
-10.33
-32.33
-51.03
-63.82
-69.79
-69.52
-64.46
-56.28
-46.23
-34.93
-22.56
-9.37
3.89
15.80
24.64
29.08
28.97
25.69
21.92
20.85
25.10
35.89
52.58
72.82
93.28
110.28
120.45
121.21
111.09
90.06
59.85
24.04
-12.42
-44.06
-66.27
-76.49
-74.84
-63.89
-47.81
-31.11
-17.64
-10.07
-9.87
-17.58
-33.03
-55.36
-82.76
-112.31
-139.97
-161.08
-171.10
-166.76
-147.04
-113.67
-70.94
-24.93
17.69
50.93
70.53
74.70
64.57
44.09
19.40
-2.54
-15.84
-17.44
-7.87
9.23
28.79
46.11
57.93
62.51
59.12
47.78
29.89
8.85
-10.00
-20.89
-19.91
-6.90
14.55
38.86
61.04
78.32
90.14
96.78
98.04
93.03
81.11
63.18
42.09
21.69
5.33
-5.43
-11.04
-13.11
-13.36
-13.03
-12.91
-13.71
-16.34
-21.74
-30.47
-42.43
-56.71
-71.86
-86.13
-97.74
-105.10
-106.99
-102.76
-92.44
-76.86
-57.60
-36.91
-17.55
-2.57
5.10
3.36
-8.28
-27.93
-51.28
-72.44
-85.65
-87.21
-76.73
-57.16
-33.66
-11.89
3.58
10.08
6.91
-4.93
-23.20
-44.64
-65.27
-80.80
-87.50
-83.03
-67.00
-40.93
-7.44
30.85
71.92
114.42
156.90
197.09
231.68
257.14
271.05
273.26
266.18
253.91
240.72
229.58
221.60
216.30
212.56
209.49
206.81
204.70
203.35
202.62
202.00
200.81
198.48
194.74
189.77
184.05
178.21
172.81
168.35
165.31
164.22
165.62
169.77
176.29
183.79
189.85
191.46
185.84
171.42
148.52
119.21
86.79
54.53
24.57
-2.59
-28.13
-54.22
-83.17
-116.35
-153.38
-191.71
-226.95
-254.11
-269.30
-271.41
-262.98
-249.49
-237.40
-231.60
-233.59
-241.12
-249.58
-254.22
-252.24
-243.67
-230.99
-217.67
-206.76
-199.90
-197.06
-197.02
-197.86
-197.71
-195.02
-188.77
-178.53
-164.28
-146.45
-125.87
-103.69
-81.31
-60.27
-41.92
-27.13
-15.97
-7.68
-0.83
6.03
13.91
22.90
32.09
40.08
45.53
47.72
46.81
43.69
39.46
34.95
30.39
25.41
19.44
12.15
3.77
-4.88
-12.74
-19.07
-23.95
-28.47
-34.31
-42.78
-53.79
-65.21
-73.03
-72.37
-58.93
-30.39
12.66
66.45
124.55
178.85
221.24
245.43
248.55
232.22
202.26
167.26
136.18
116.00
110.09
117.67
134.58
154.52
170.66
176.95
169.37
146.70
110.91
66.79
20.94
-19.93
-50.76
-69.47
-77.18
-77.34
-74.20
-71.20
-70.31
-72.02
-76.17
-82.74
-91.95
-103.86
-117.70
-131.56
-142.83
-149.02
-148.61
-141.41
-128.35
-111.03
-91.17
-70.46
-50.47
-32.56
-17.66
-6.07
2.67
9.46
15.16
20.06
23.73
25.35
24.39
21.32
17.68
15.64
17.12
22.96
32.50
43.75
54.15
61.53
64.73
63.87
60.04
54.85
49.85
46.20
44.41
44.23
44.84
45.18
44.40
42.35
39.55
37.03
35.82
36.20
37.33
36.92
31.61
17.67
-7.67
-45.03
-91.78
-141.84
-186.71
-217.66
-228.28
-216.49
-185.17
-141.04
-92.43
-46.87
-9.58
17.11
33.15
40.04
40.23
36.76
32.96
31.93
35.84
45.12
58.17
71.72
81.79
85.01
79.84
67.07
49.66
31.74
17.33
9.18
8.11
13.04
21.58
30.75
37.60
39.50
34.33
20.86
-0.75
-28.43
-58.24
-85.15
-104.43
-112.93
-109.84
-96.50
-75.54
-49.99
-22.73
3.60
26.61
44.28
55.47
60.39
60.70
58.99
57.87
58.93
62.24
66.52
69.71
69.80
65.43
56.19
42.60
25.82
7.31
-11.67
-30.20
-47.46
-62.21
-72.20
-73.96
-63.36
-36.89
6.70
64.90
131.11
195.62
248.03
280.16
288.43
274.57
244.74
207.06
168.72
134.02
103.61
75.39
46.17
13.49
-23.46
-63.80
-105.57
-146.55
-184.52
-217.28
-242.48
-257.72
-261.03
-251.54
-230.02
-198.93
-162.11
-124.12
-89.82
-63.67
-48.86
-46.24
-53.25
-63.65
-68.72
-59.79
-31.68
14.73
72.10
128.84
173.07
196.67
197.72
180.30
152.04
120.91
92.47
68.99
50.07
34.22
20.24
7.81
-2.79
-11.37
-18.27
-24.23
-29.87
-35.17
-39.39
-41.24
-39.64
-34.49
-26.98
-19.44
-14.40
-13.58
-17.14
-23.58
-30.43
-35.39
-37.20
-35.94
-32.68
-28.68
-24.70
-20.75
-16.38
-11.24
-5.39
0.64
6.13
10.48
13.39
14.71
14.36
12.24
8.43
3.33
-2.26
-7.26
-10.70
-12.02
-11.33
-9.24
-6.60
-4.15
-2.31
-1.26
-1.06
-1.71
-3.13
-5.09
-7.21
-9.04
-10.22
-10.58
-10.26
-9.57
-8.93
-8.66
-8.93
-9.78
-11.10
-12.70
-14.21
-15.25
-15.36
-14.17
-11.50
-7.32
-1.89
4.30
10.54
16.14
20.44
23.08
23.97
23.19
20.96
17.63
13.75
10.12
7.77
7.66
10.46
16.15
24.00
32.69
40.64
46.42
48.97
47.76
42.89
34.95
25.04
14.48
4.72
-3.06
-8.11
-10.25
-9.99
-8.24
-6.24
-5.08
-5.66
-8.38
-13.24
-19.85
-27.50
-35.20
-41.71
-45.67
-45.76
-41.09
-31.60
-18.24
-2.86
12.27
24.96
33.67
37.62
36.80
31.75
23.46
13.38
3.32
-4.61
-8.52
-7.19
-0.55
10.20
22.90
34.95
44.05
48.68
48.32
43.44
35.26
25.51
16.11
8.96
5.61
6.98
13.13
23.09
34.97
46.26
54.29
56.91
52.97
42.56
27.08
8.84
-9.43
-25.16
-36.32
-41.63
-40.67
-33.90
-22.64
-9.03
4.22
14.38
19.32
18.06
11.07
-0.01
-13.02
-26.11
-38.16
-48.76
-57.77
-64.78
-68.93
-69.28
-65.46
-58.23
-49.39
-41.23
-35.56
-32.87
-32.27
-32.01
-30.30
-25.99
-18.83
-9.29
1.75
13.12
23.10
29.21
28.35
17.55
-4.82
-37.90
-78.02
-119.46
-156.32
-184.00
-200.33
-205.23
-199.61
-184.29
-159.33
-124.58
-80.81
-30.62
21.39
69.18
106.85
130.28
138.20
132.39
116.76
95.72
72.86
50.30
29.02
9.56
-7.59
-22.20
-35.01
-48.08
-63.92
-83.62
-105.29
-124.20
-134.71
-133.22
-120.48
-101.10
-81.28
-65.34
-53.79
-43.72
-30.98
-12.72
10.99
37.47
62.96
84.19
99.39
108.33
111.88
111.46
108.75
105.23
101.95
99.05
95.90
91.40
84.49
74.81
62.76
49.45
36.03
23.40
11.98
1.81
-7.05
-14.21
-18.83
-19.95
-16.98
-10.19
-0.92
8.84
17.17
22.99
26.59
29.46
33.79
41.78
55.02
74.22
98.91
127.40
156.66
182.47
200.12
205.32
195.55
170.85
134.07
90.35
45.92
6.81
-22.38
-39.35
-44.45
-40.22
-30.63
-19.90
-11.30
-6.69
-6.46
-10.03
-16.49
-25.07
-35.28
-46.94
-59.99
-74.33
-89.54
-104.64
-117.91
-127.13
-130.12
-125.46
-113.21
-95.02
-73.77
-52.88
-35.55
-24.23
-20.22
-23.58
-33.05
-46.13
-59.31
-68.65
-70.67
-63.22
-46.15
-21.53
6.82
34.11
55.74
68.27
70.12
61.90
46.08
26.43
7.10
-8.33
-17.59
-19.98
-16.32
-8.54
0.94
9.69
15.78
17.89
15.39
8.24
-3.09
-17.54
-33.45
-48.59
-60.48
-66.92
-66.56
-59.37
-46.63
-30.51
-13.44
2.55
16.02
26.19
32.75
35.77
35.76
33.67
30.84
28.60
27.94
29.30
32.59
37.47
43.66
51.02
59.59
69.39
80.17
91.29
101.57
109.25
112.07
107.60
93.92
70.40
38.26
0.68
-37.59
-71.39
-96.33
-109.89
-111.82
-103.81
-88.70
-69.41
-48.34
-27.19
-7.36
9.73
22.49
29.50
29.99
24.21
13.45
-0.33
-14.87
-28.01
-37.78
-42.54
-41.30
-34.09
-22.23
-8.06
5.80
17.36
25.75
31.15
34.07
34.64
32.29
26.09
15.56
1.16
-15.48
-31.97
-45.82
-55.05
-58.55
-56.17
-48.73
-37.85
-25.67
-14.29
-5.33
0.50
3.30
3.52
1.38
-3.65
-12.53
-26.06
-44.03
-64.65
-84.78
-100.66
-109.01
-107.96
-97.59
-79.74
-57.43
-33.97
-12.24
5.74
18.92
27.06
30.45
29.66
25.48
18.88
11.17
3.98
-1.02
-2.56
-0.37
4.72
11.09
17.07
21.61
24.61
26.69
28.59
30.62
32.57
33.87
34.09
33.31
32.09
31.29
31.61
33.44
36.59
40.38
43.81
45.85
45.91
43.98
40.77
37.35
34.82
33.86
34.67
37.11
40.82
45.37
50.20
54.50
57.31
57.77
55.43
50.61
44.24
37.64
31.97
27.75
24.76
22.34
19.72
16.55
13.02
9.83
7.76
7.35
8.68
11.35
14.66
17.91
20.53
22.17
22.67
22.02
20.34
17.86
14.97
12.08
9.53
7.50
5.95
4.71
3.64
2.74
2.22
2.39
3.50
5.52
8.14
10.76
12.64
13.14
11.87
8.83
4.33
-1.10
-6.82
-12.27
-17.00
-20.72
-23.25
-24.58
-24.74
-23.87
-22.22
-20.11
-17.80
-15.47
-13.22
-11.11
-9.28
-8.00
-7.50
-7.87
-8.86
-9.94
-10.46
-9.89
-8.06
-5.16
-1.49
2.77
7.66
13.26
19.41
25.47
30.44
33.18
32.93
29.56
23.68
16.45
9.16
2.95
-1.44
-3.80
-4.38
-3.83
-2.98
-2.73
-3.75
-6.35
-10.36
-15.26
-20.32
-24.95
-28.85
-32.00
-34.65
-37.01
-39.18
-41.07
-42.56
-43.60
-44.33
-45.01
-45.76
-46.48
-46.75
-45.96
-43.57
-39.32
-33.31
-26.03
-18.28
-11.06
-5.35
-1.93
-1.10
-2.49
-4.83
-6.19
-4.33
2.63
15.63
34.25
56.81
80.78
103.43
122.56
136.82
145.90
150.23
150.73
148.54
144.80
140.57
136.71
133.81
132.19
131.80
132.39
133.60
134.95
135.83
135.51
133.30
128.72
121.62
112.23
100.87
87.62
72.25
54.26
33.33
9.58
-16.25
-42.97
-69.04
-92.97
-113.52
-129.89
-141.77
-149.17
-152.35
-151.51
-146.80
-138.32
-126.37
-111.66
-95.37
-78.89
-63.55
-50.41
-40.22
-33.59
-31.12
-33.30
-40.19
-50.93
-63.69
-75.91
-84.95
-88.90
-87.17
-80.56
-70.86
-60.04
-49.54
-40.01
-31.44
-23.70
-16.98
-11.98
-9.72
-11.24
-17.24
-27.90
-42.93
-61.45
-81.89
-101.94
-118.82
-129.69
-132.39
-126.18
-111.98
-92.28
-70.43
-49.80
-32.97
-21.40
-15.29
-13.89
-15.90
-19.84
-24.36
-28.20
-30.27
-29.59
-25.54
-17.94
-7.38
4.88
17.20
28.10
36.74
43.14
47.85
51.59
54.61
56.48
56.29
53.12
46.53
36.99
25.78
14.70
5.53
-0.46
-2.78
-1.56
2.68
9.32
17.89
27.87
38.58
48.95
57.63
63.31
65.05
62.50
55.87
45.75
33.01
18.61
3.58
-11.00
-23.97
-34.21
-40.60
-42.23
-38.51
-29.41
-15.66
1.09
18.27
32.71
41.10
40.72
30.06
9.25
-19.72
-53.23
-86.69
-115.60
-136.48
-147.60
-149.01
-142.16
-129.34
-113.09
-95.83
-79.51
-65.37
-53.67
-43.78
-34.59
-25.27
-16.04
-8.34
-4.38
-6.06
-13.89
-26.49
-41.10
-54.41
-63.44
-65.98
-60.32
-45.13
-19.53
16.16
59.82
107.29
153.05
191.50
218.23
231.01
229.82
216.61
194.61
167.56
138.98
111.46
86.21
63.07
40.99
18.79
-4.18
-27.76
-51.16
-73.35
-93.34
-110.37
-123.96
-134.20
-142.16
-149.89
-159.75
-173.17
-189.29
-204.57
-213.56
-210.91
-193.36
-161.09
-117.50
-67.93
-17.80
28.70
68.98
101.54
125.29
139.23
142.78
136.39
122.05
103.09
83.45
66.52
54.31
47.05
43.51
41.85
40.60
39.17
37.86
37.45
38.53
40.97
43.92
46.10
46.41
44.38
40.25
34.62
28.02
20.66
12.49
3.65
-5.20
-12.79
-17.43
-17.59
-12.38
-1.97
12.24
27.89
42.18
52.60
57.58
56.84
51.34
42.74
32.94
23.56
15.87
10.90
9.37
11.49
16.55
22.77
27.80
29.46
26.72
20.09
11.20
1.90
-6.68
-14.57
-22.83
-32.86
-45.47
-60.45
-76.41
-91.21
-102.69
-109.27
-110.30
-106.10
-97.69
-86.49
-74.02
-61.66
-50.44
-40.73
-31.98
-22.85
-11.70
2.44
19.04
35.72
48.78
54.54
50.77
37.85
18.89
-1.09
-16.72
-23.88
-20.78
-8.21
11.00
33.07
54.42
72.38
85.26
92.22
92.86
87.22
75.99
60.65
43.42
26.73
12.48
1.49
-6.55
-12.67
-17.90
-22.72
-26.78
-29.33
-29.71
-28.02
-25.25
-22.93
-22.57
-24.89
-29.21
-33.27
-33.50
-25.78
-6.65
25.32
68.61
118.52
168.05
209.64
237.06
247.09
240.11
219.72
191.38
160.71
132.00
107.48
87.30
70.25
54.67
39.32
23.71
8.02
-7.28
-21.76
-34.91
-46.07
-54.29
-58.53
-58.21
-53.75
-46.67
-39.20
-33.64
-31.57
-33.56
-39.24
-47.66
-57.73
-68.42
-78.80
-87.96
-95.01
-99.08
-99.52
-96.06
-88.79
-78.24
-65.27
-51.02
-36.84
-24.25
-14.70
-9.29
-8.59
-12.37
-19.67
-28.97
-38.40
-46.18
-50.90
-51.72
-48.49
-41.67
-32.16
-21.04
-9.44
1.57
10.94
17.55
20.33
18.54
12.10
1.81
-10.72
-23.38
-34.16
-41.55
-44.79
-43.81
-38.97
-30.89
-20.36
-8.44
3.54
14.04
21.64
25.36
24.92
20.80
14.05
6.02
-2.17
-9.90
-17.23
-24.59
-32.33
-40.21
-47.19
-51.77
-52.61
-49.19
-42.11
-32.87
-23.31
-15.03
-9.11
-6.19
-6.58
-10.36
-17.16
-25.93
-34.92
-42.02
-45.39
-44.08
-38.25
-29.01
-17.82
-5.87
6.29
18.66
31.34
44.00
55.51
64.17
68.23
66.72
59.96
49.68
38.51
29.15
23.60
22.63
25.67
31.11
36.88
41.05
42.56
41.67
39.96
39.84
43.60
52.24
64.83
78.41
88.74
91.59
83.94
64.89
36.02
0.98
-35.31
-67.78
-92.17
-105.86
-108.16
-100.22
-84.60
-64.88
-45.09
-29.19
-20.63
-21.69
-33.14
-54.10
-82.19
-113.91
-145.10
-171.33
-188.41
-192.90
-182.49
-156.41
-115.30
-61.21
2.11
68.90
131.45
181.09
210.24
214.60
194.44
154.46
102.08
45.46
-8.03
-52.34
-82.75
-96.23
-92.32
-74.06
-47.91
-22.19
-4.36
1.49
-4.33
-17.98
-34.23
-48.71
-59.28
-66.16
-71.15
-76.46
-83.60
-92.76
-102.53
-110.21
-112.44
-106.27
-90.26
-65.34
-34.87
-3.94
22.09
39.32
46.56
45.82
41.52
38.99
42.66
54.56
73.78
97.01
119.87
138.70
151.82
159.88
165.12
170.07
176.26
183.73
191.25
197.04
199.32
196.37
186.55
168.27
140.58
103.95
61.02
16.51
-23.94
-55.43
-75.40
-84.33
-85.32
-82.64
-79.97
-79.33
-80.77
-83.09
-84.97
-85.90
-86.42
-87.76
-90.99
-96.22
-102.22
-106.44
-105.34
-95.00
-72.02
-34.74
15.59
74.13
132.87
182.24
213.66
222.00
207.07
173.46
128.89
81.86
39.34
5.55
-18.17
-32.47
-38.91
-39.16
-34.66
-26.92
-17.79
-9.44
-3.91
-2.54
-5.45
-11.70
-19.89
-28.88
-38.20
-47.98
-58.28
-68.53
-77.19
-82.05
-80.71
-71.37
-53.53
-28.45
0.75
29.45
52.21
64.08
61.73
44.58
15.12
-21.44
-58.20
-88.15
-105.62
-107.42
-93.50
-66.72
-32.18
4.07
36.42
60.96
76.07
82.27
81.46
76.06
68.14
58.98
49.19
38.92
28.34
17.71
7.49
-1.76
-9.38
-14.69
-16.96
-15.69
-10.90
-3.37
5.15
12.31
15.72
13.69
5.92
-6.42
-20.82
-34.07
-43.00
-45.15
-39.28
-25.56
-5.57
18.08
42.31
64.34
82.15
94.80
102.35
105.41
104.73
100.83
93.97
84.30
72.15
58.31
43.95
30.42
18.77
9.38
1.89
-4.67
-11.29
-18.63
-26.67
-34.90
-42.61
-49.40
-55.34
-60.85
-66.42
-72.38
-78.92
-86.16
-94.28
-103.32
-112.92
-122.10
-129.58
-134.30
-136.12
-136.08
-135.80
-136.62
-138.42
-139.29
-135.95
-124.88
-103.66
-71.79
-30.92
15.65
63.95
110.21
151.84
187.71
218.00
243.66
265.69
284.53
299.91
311.03
317.07
317.77
313.61
305.78
295.79
284.84
273.32
260.61
245.26
225.70
200.91
170.95
137.07
101.10
64.78
29.17
-5.51
-39.56
-73.29
-106.77
-139.88
-172.52
-204.55
-235.67
-265.00
-291.03
-312.04
-326.89
-335.69
-340.05
-342.38
-344.68
-347.28
-348.18
-343.65
-329.60
-303.28
-264.41
-215.11
-158.81
-98.64
-36.26
28.03
94.08
160.34
222.97
276.55
315.89
338.11
343.69
335.84
318.79
295.98
269.16
238.68
204.51
166.91
126.42
83.25
37.07
-12.07
-62.41
-109.53
-146.94
-168.41
-170.86
-156.63
-133.44
-112.37
-104.35
-116.53
-150.06
-199.47
-254.02
-300.48
-326.70
-325.01
-294.51
-241.53
-177.83
-117.09
-70.72
-44.74
-38.83
-47.29
-61.40
-72.22
-72.72
-59.30
-32.54
2.66
37.77
62.42
67.26
47.22
3.90
-54.02
-113.03
-158.94
-181.11
-175.27
-143.92
-94.61
-37.45
17.25
60.86
87.62
95.38
85.70
63.15
33.70
2.72
-26.52
-53.37
-79.12
-105.46
-133.05
-160.72
-185.54
-203.75
-212.00
-208.47
-193.45
-169.16
-138.97
-106.29
-73.80
-43.13
-15.22
9.34
30.14
47.15
61.18
74.07
88.25
106.04
129.16
158.33
193.24
232.24
272.18
308.45
335.76
349.41
346.75
327.95
295.58
253.42
205.09
153.34
100.60
50.06
6.41
-24.63
-37.99
-31.53
-7.50
27.77
66.02
99.95
125.50
142.37
152.89
160.06
165.94
171.13
175.31
178.26
180.56
183.63
188.67
195.98
204.77
213.44
219.98
222.45
219.23
209.34
193.04
171.47
146.54
120.52
95.52
73.03
53.97
38.96
26.45
16.27
8.89
4.94
4.82
8.25
14.18
21.25
28.19
34.22
39.75
44.43
47.27
46.96
42.19
32.05
16.20
-5.15
-31.55
-62.52
-96.34
-131.94
-168.50
-205.62
-243.13
-280.98
-318.92
-356.08
-390.61
-420.24
-442.58
-455.49
-457.49
-448.21
-428.47
-400.21
-366.09
-328.93
-291.62
-256.75
-225.97
-199.60
-176.51
-154.20
-129.24
-98.00
-57.74
-8.34
47.02
102.17
149.48
182.12
196.23
191.90
172.96
144.88
112.11
76.70
38.42
-3.78
-50.13
-98.96
-146.80
-189.15
-218.38
-228.86
-218.68
-190.19
-149.40
-104.23
-62.58
-31.37
-14.88
-14.82
-27.93
-47.64
-65.52
-73.69
-67.55
-47.36
-17.75
15.85
48.96
79.96
110.67
145.11
187.13
238.51
298.46
359.19
412.49
451.33
471.82
473.84
460.32
435.62
404.14
369.82
335.51
302.97
271.33
237.24
196.27
145.57
86.11
23.14
-35.69
-83.49
-116.35
-134.62
-141.63
-141.38
-136.90
-129.75
-120.88
-111.51
-103.46
-98.11
-95.89
-95.69
-95.47
-93.16
-87.57
-79.08
-69.23
-60.09
-53.18
-48.98
-46.81
-45.21
-42.66
-38.25
-32.00
-24.76
-17.75
-11.96
-7.79
-4.95
-2.63
0.01
3.54
8.03
13.07
18.10
22.61
26.41
29.57
32.40
35.08
37.62
39.78
41.09
41.06
39.33
35.65
29.99
22.42
13.09
2.18
-9.96
-22.84
-35.72
-47.63
-57.59
-64.79
-68.76
-69.65
-68.00
-64.69
-60.64
-56.51
-52.59
-48.90
-45.34
-41.93
-39.02
-37.14
-36.86
-38.39
-41.26
-44.47
-46.81
-47.40
-45.89
-42.88
-39.43
-36.76
-35.97
-37.59
-41.40
-46.46
-51.33
-53.92
-52.04
-43.76
-28.07
-5.08
23.82
55.84
87.08
112.82
129.49
135.87
133.58
126.24
117.41
108.71
98.86
84.75
62.71
31.50
-7.10
-49.23
-91.04
-130.12
-165.61
-197.86
-222.27
-235.01
-233.05
-216.19
-188.64
-158.46
-134.36
-121.53
-119.00
-120.14
-117.32
-106.28
-89.36
-74.58
-71.14
-83.84
-109.83
-139.65
-161.66
-167.98
-157.02
-132.88
-101.97
-69.02
-35.01
2.21
45.07
93.27
141.93
182.82
207.20
209.14
188.03
148.68
99.46
49.41
5.55
-28.44
-51.65
-64.58
-67.81
-61.48
-45.69
-21.41
8.70
40.17
67.11
83.27
83.46
65.34
30.78
-13.83
-58.88
-94.40
-113.37
-114.08
-100.21
-78.65
-56.14
-36.54
-19.97
-4.05
13.68
33.79
54.71
73.73
88.92
100.38
110.32
122.24
139.88
166.19
202.51
247.75
297.67
344.91
380.35
395.35
384.48
347.51
289.53
219.47
147.44
82.07
28.85
-10.38
-36.87
-53.90
-65.57
-75.49
-85.72
-96.07
-104.52
-108.24
-105.21
-95.34
-80.31
-62.81
-45.29
-29.31
-15.72
-5.48
-0.13
-1.70
-11.68
-29.97
-54.36
-81.07
-105.80
-124.76
-135.21
-135.39
-124.45
-102.65
-71.91
-36.13
-0.69
28.90
48.78
58.06
58.82
54.90
49.79
44.96
39.39
30.64
16.96
-0.86
-18.93
-31.59
-33.77
-23.06
-0.36
31.16
67.82
106.49
144.59
178.90
204.71
216.37
208.86
179.78
130.37
65.23
-8.64
-82.98
-149.19
-199.08
-226.04
-226.40
-200.64
-153.68
-93.89
-31.04
25.87
70.15
98.14
109.02
104.31
87.34
62.79
36.14
12.99
-1.75
-4.72
5.17
26.38
54.82
84.73
110.34
127.49
135.18
135.89
134.82
138.03
150.03
171.81
200.33
229.30
251.44
260.86
254.58
232.53
196.39
148.48
91.56
29.87
-29.89
-78.80
-108.04
-112.52
-93.84
-60.90
-27.19
-6.00
-5.97
-28.87
-70.48
-123.42
-179.94
-233.63
-279.55
-313.99
-334.67
-341.59
-337.64
-328.08
-318.63
-313.12
-311.88
-311.97
-308.92
-299.12
-281.10
-255.49
-223.78
-187.14
-145.76
-99.40
-48.33
5.70
59.18
107.44
145.96
171.84
184.73
187.01
182.67
175.51
167.32
157.08
141.93
119.26
89.22
55.95
26.86
10.25
12.33
35.29
76.94
131.89
193.35
254.50
309.31
352.84
381.55
393.89
390.63
374.63
349.77
319.68
286.60
251.41
214.26
175.49
136.06
97.16
59.32
21.91
-16.79
-58.45
-103.53
-150.37
-195.13
-232.74
-258.30
-268.57
-263.21
-245.24
-220.51
-196.28
-179.27
-173.66
-180.02
-195.38
-214.38
-231.13
-240.70
-240.03
-227.97
-204.99
-172.79
-134.28
-93.54
-55.45
-24.89
-5.55
1.02
-4.22
-18.28
-37.22
-57.16
-74.97
-88.28
-95.23
-94.36
-84.74
-66.43
-40.72
-9.87
23.30
55.96
85.58
109.77
126.13
132.43
127.12
110.22
83.68
51.22
17.47
-13.15
-37.23
-52.72
-58.78
-55.57
-44.19
-26.65
-5.85
14.83
32.05
43.12
46.36
41.26
28.45
9.57
-12.85
-35.57
-54.94
-67.35
-69.88
-60.82
-40.11
-9.58
27.21
65.52
100.24
126.84
142.10
144.51
134.15
112.24
80.88
42.90
2.04
-37.10
-69.39
-90.10
-95.92
-85.82
-61.45
-26.81
12.58
50.61
81.62
101.09
106.26
96.53
73.58
41.06
4.04
-31.90
-61.51
-80.65
-86.87
-79.74
-60.87
-33.66
-2.66
27.33
52.06
68.64
75.76
73.62
63.56
47.50
27.59
5.87
-15.78
-35.58
-51.74
-62.42
-65.84
-60.80
-47.20
-26.51
-1.89
22.28
41.21
50.82
48.68
34.67
11.18
-17.19
-44.36
-64.04
-71.13
-63.00
-40.20
-6.19
33.54
72.89
106.31
129.49
139.57
135.14
116.24
84.60
43.65
-1.78
-46.27
-84.96
-114.47
-133.43
-142.23
-142.48
-136.39
-126.42
-115.10
-104.99
-98.54
-97.74
-103.81
-117.05
-136.90
-162.01
-190.21
-218.34
-242.29
-257.46
-259.92
-247.87
-222.72
-188.90
-152.52
-119.05
-91.34
-68.91
-48.67
-26.64
0.13
32.48
68.99
106.79
142.76
174.59
201.46
224.13
244.39
264.19
284.84
306.52
328.36
349.01
367.15
381.63
391.31
394.86
391.04
379.54
361.84
341.49
323.13
310.59
305.03
304.18
303.03
295.98
279.14
251.67
215.73
175.21
134.00
94.84
58.92
26.29
-3.70
-32.10
-60.50
-90.99
-125.58
-165.10
-207.95
-249.63
-283.69
-303.72
-305.90
-290.85
-263.82
-233.27
-208.40
-196.65
-202.11
-224.93
-261.86
-307.22
-354.04
-395.02
-423.55
-434.73
-426.21
-398.63
-355.43
-302.02
-244.31
-187.48
-134.84
-87.54
-44.85
-4.83
35.02
77.20
123.45
174.00
226.94
278.08
321.81
352.86
368.21
368.11
355.79
335.78
311.98
286.22
258.23
226.44
189.22
145.92
97.25
45.51
-5.53
-51.09
-86.25
-107.22
-112.51
-103.43
-83.64
-57.99
-31.41
-8.05
8.90
17.11
15.21
3.11
-17.69
-44.06
-71.80
-96.56
-114.79
-124.28
-124.28
-115.36
-99.10
-77.80
-54.24
-31.42
-12.15
1.23
7.12
4.99
-4.51
-19.43
-36.74
-52.74
-63.84
-67.34
-62.07
-48.72
-29.68
-8.50
10.94
25.18
31.79
29.58
18.80
1.04
-20.86
-43.14
-61.62
-72.46
-73.05
-62.66
-42.79
-16.91
10.24
33.56
48.56
52.05
42.66
21.14
-9.67
-45.05
-79.28
-106.72
-123.15
-126.75
-118.39
-101.22
-79.57
-57.74
-39.13
-25.90
-19.14
-19.23
-26.12
-39.21
-57.21
-78.01
-98.90
-116.92
-129.50
-134.79
-131.95
-121.17
-103.62
-81.33
-57.04
-33.95
-15.08
-2.75
2.05
-0.13
-7.37
-16.88
-25.66
-31.20
-31.94
-27.49
-18.74
-7.57
3.42
11.32
13.39
7.61
-6.78
-28.81
-55.62
-82.87
-105.59
-119.45
-121.93
-112.91
-94.63
-70.91
-46.04
-23.74
-6.48
4.78
10.20
10.34
5.70
-3.44
-16.43
-31.57
-45.68
-54.49
-53.92
-41.52
-17.34
16.42
56.53
99.77
143.51
185.29
222.39
251.79
271.02
279.30
278.23
271.44
263.23
256.96
253.97
253.53
253.50
251.50
245.88
236.08
222.58
206.44
188.82
170.60
152.26
134.05
116.41
100.21
86.65
77.01
72.08
71.81
75.21
80.74
86.65
91.51
94.40
95.10
94.07
92.51
92.19
95.05
102.78
116.15
134.56
155.82
176.46
192.41
200.06
197.20
183.70
161.50
134.08
105.35
78.49
55.15
35.27
17.53
0.20
-18.07
-37.89
-59.17
-81.49
-104.53
-128.34
-153.26
-179.93
-209.30
-242.48
-280.49
-323.48
-369.83
-415.33
-453.49
-476.76
-478.96
-457.56
-415.07
-358.43
-296.78
-238.62
-189.48
-151.38
-123.93
-106.14
-97.59
-98.35
-107.44
-121.59
-134.94
-140.50
-132.62
-109.09
-71.48
-23.66
30.41
87.84
146.26
202.21
249.96
282.20
292.56
278.56
243.20
194.02
140.31
90.02
47.97
15.96
-5.94
-18.05
-20.60
-14.24
-0.78
16.47
33.11
44.67
47.68
40.59
24.17
1.26
-24.05
-47.54
-65.85
-76.88
-79.66
-73.97
-60.20
-39.54
-14.54
10.96
32.37
45.64
48.40
40.49
23.79
1.39
-23.06
-45.83
-63.36
-72.56
-71.50
-60.24
-41.12
-18.52
2.44
17.33
23.62
21.16
11.90
-0.76
-12.79
-20.36
-20.50
-11.85
4.99
27.45
51.52
72.57
86.37
89.93
82.16
64.10
38.90
11.27
-13.39
-30.10
-35.56
-28.98
-12.30
10.32
33.65
52.78
64.37
67.33
62.92
54.13
44.70
37.94
35.81
38.46
44.40
50.99
55.16
54.13
46.05
30.37
8.22
-17.64
-43.24
-64.12
-76.44
-78.01
-68.92
-51.62
-30.29
-9.81
5.39
12.32
9.91
-0.85
-17.28
-35.70
-52.24
-63.72
-68.21
-65.32
-56.11
-42.66
-27.52
-13.22
-1.94
4.69
5.69
0.83
-9.30
-23.26
-38.89
-53.56
-64.65
-70.07
-68.70
-60.73
-47.66
-32.06
-17.08
-5.74
-0.40
-2.11
-10.38
-23.10
-36.94
-47.95
-52.51
-48.35
-35.32
-15.59
6.87
27.40
41.91
47.97
45.22
35.13
20.44
4.33
-10.10
-20.30
-24.56
-22.14
-13.34
0.50
17.31
34.58
49.80
60.76
65.78
63.87
54.93
40.01
21.41
2.49
-12.91
-21.32
-20.75
-11.37
4.37
22.30
37.73
46.67
46.78
37.65
20.55
-2.13
-27.36
-51.79
-71.83
-84.09
-85.92
-76.25
-56.35
-29.82
-1.99
21.38
35.53
37.77
27.86
7.70
-19.20
-48.49
-75.46
-95.60
-105.06
-101.41
-84.23
-55.58
-19.85
17.05
48.99
71.07
80.59
77.55
64.30
44.80
23.68
5.42
-6.23
-8.84
-1.42
15.34
39.21
66.76
93.92
116.63
131.44
136.17
130.26
115.08
93.80
70.80
50.58
36.66
30.52
31.25
35.93
40.51
41.03
34.58
19.76
-3.35
-33.65
-69.58
-109.35
-150.82
-191.13
-226.45
-252.36
-264.85
-261.56
-242.95
-212.39
-175.48
-138.54
-107.15
-85.22
-74.49
-74.48
-82.52
-93.97
-102.82
-103.18
-91.30
-67.49
-36.93
-8.33
9.07
9.36
-7.36
-34.70
-62.46
-80.63
-82.87
-68.22
-40.13
-3.95
35.70
76.24
117.12
158.66
200.93
243.11
283.58
320.37
351.72
376.56
394.78
407.13
414.82
418.76
418.89
414.04
402.56
383.35
356.83
325.13
291.42
258.72
228.91
202.47
178.96
157.74
138.48
121.05
105.28
90.60
76.02
60.47
43.17
23.84
2.63
-20.25
-44.82
-71.55
-101.35
-135.46
-175.01
-220.20
-269.33
-318.39
-361.58
-393.19
-409.79
-411.95
-403.99
-392.21
-382.00
-375.78
-372.34
-368.02
-358.67
-341.44
-315.35
-280.97
-239.60
-192.45
-140.42
-84.04
-23.97
38.41
100.25
157.06
203.45
234.58
247.89
244.05
226.62
200.58
170.51
139.51
109.18
80.44
54.33
32.24
15.30
3.67
-3.83
-9.33
-14.82
-21.27
-28.23
-34.23
-37.57
-37.16
-33.01
-26.09
-17.96
-10.16
-3.94
-0.02
1.43
0.75
-1.20
-3.23
-4.11
-3.00
0.24
5.03
10.41
15.57
20.24
24.73
29.56
35.00
40.80
46.27
50.70
53.80
55.77
57.14
58.26
58.99
58.64
56.32
51.37
43.66
33.65
22.10
9.80
-2.69
-14.97
-26.66
-37.27
-46.17
-52.77
-56.65
-57.59
-55.54
-50.60
-43.12
-34.00
-24.79
-17.66
-14.86
-17.97
-27.25
-41.40
-57.97
-74.06
-87.29
-96.29
-100.74
-101.02
-97.64
-90.87
-80.67
-66.88
-49.68
-30.02
-9.77
8.48
22.04
28.82
28.12
21.01
10.15
-0.84
-8.25
-9.39
-3.25
9.16
24.96
40.23
50.99
54.52
50.21
39.99
27.83
18.61
16.52
23.69
39.49
60.68
82.41
99.52
107.82
104.86
90.08
64.69
31.27
-6.70
-45.31
-80.71
-109.72
-130.32
-141.88
-145.15
-142.02
-135.22
-127.95
-123.57
-125.09
-134.60
-152.57
-177.46
-205.80
-232.79
-253.46
-263.97
-262.73
-251.00
-232.77
-213.63
-198.98
-192.04
-192.53
-196.65
-198.50
-192.38
-174.98
-146.69
-111.39
-74.98
-43.18
-19.55
-4.51
4.39
11.15
19.44
31.19
46.22
62.83
79.05
93.81
107.35
120.82
135.37
151.72
170.06
190.37
212.48
235.78
258.77
278.90
293.24
299.60
297.69
289.34
277.79
266.17
256.27
247.99
239.88
230.24
218.08
203.51
187.45
170.94
154.61
138.66
123.00
107.75
93.45
81.03
71.40
64.96
61.24
58.87
55.94
50.58
41.66
29.07
13.59
-3.53
-21.13
-38.39
-54.78
-69.64
-81.93
-90.16
-92.98
-89.82
-81.44
-69.86
-57.87
-48.12
-42.45
-41.39
-44.33
-49.74
-55.72
-60.33
-61.85
-58.98
-51.11
-38.51
-22.37
-4.67
12.20
25.92
34.71
37.63
34.72
26.92
15.95
4.02
-6.53
-13.55
-15.50
-11.62
-2.05
12.29
29.90
48.90
67.19
82.71
93.64
98.73
97.78
91.83
83.19
75.07
70.84
73.11
82.97
99.62
120.67
142.84
162.85
178.05
186.78
188.30
182.46
169.54
150.15
125.29
96.33
64.96
32.93
1.78
-27.48
-54.50
-79.70
-104.13
-129.26
-156.75
-188.29
-225.51
-269.65
-320.75
-376.55
-431.83
-478.84
-509.30
-517.09
-500.57
-463.07
-411.30
-352.47
-291.86
-232.12
-174.37
-120.40
-73.91
-40.04
-23.12
-24.15
-39.52
-61.86
-82.62
-94.81
-95.05
-83.91
-64.70
-41.82
-19.30
-0.26
13.25
20.12
20.32
15.10
7.00
-0.52
-4.05
-1.08
9.45
27.20
50.94
79.26
111.07
145.81
183.17
222.52
262.33
299.85
331.37
353.12
362.41
358.69
343.80
321.37
295.45
269.18
244.08
220.19
196.84
173.56
150.45
128.03
106.73
86.63
67.59
49.73
33.77
21.16
13.40
11.31
14.46
21.08
28.70
34.84
37.71
36.47
31.17
22.49
11.46
-0.79
-13.24
-25.12
-35.96
-45.53
-53.60
-59.82
-63.76
-65.19
-64.35
-62.12
-59.83
-58.80
-59.83
-62.83
-66.88
-70.50
-72.12
-70.55
-65.25
-56.52
-45.44
-33.79
-23.69
-17.14
-15.46
-18.88
-26.26
-35.44
-43.84
-49.27
-50.51
-47.50
-41.10
-32.50
-22.81
-12.89
-3.54
4.21
9.05
9.70
5.41
-3.51
-15.70
-29.14
-41.89
-52.65
-61.05
-67.34
-71.93
-74.90
-75.97
-74.63
-70.64
-64.29
-56.37
-48.01
-40.27
-33.94
-29.42
-26.72
-25.62
-25.77
-26.74
-28.10
-29.42
-30.27
-30.23
-28.97
-26.25
-21.99
-16.30
-9.41
-1.66
6.54
14.83
22.88
30.50
37.69
44.51
51.02
57.15
62.63
67.13
70.40
72.39
73.10
72.48
69.97
64.46
54.46
38.71
16.72
-10.71
-41.55
-72.88
-101.44
-124.27
-139.23
-145.34
-143.10
-134.46
-122.48
-110.74
-102.39
-99.40
-101.96
-108.40
-115.55
-119.56
-116.91
-105.40
-84.92
-57.65
-27.45
1.14
24.26
39.61
46.76
46.82
41.84
34.29
26.77
21.89
21.89
28.04
39.98
55.46
70.83
82.04
85.97
81.22
68.24
48.71
24.71
-1.93
-29.73
-57.00
-81.16
-98.53
-105.10
-98.17
-78.15
-49.44
-19.83
1.92
9.35
0.86
-19.59
-44.00
-63.48
-71.33
-64.90
-45.29
-15.79
20.15
60.06
102.44
145.93
188.56
227.63
260.45
285.33
302.35
313.10
319.85
324.39
327.43
328.53
326.84
321.66
312.81
300.47
284.78
265.71
243.21
217.65
189.97
161.47
133.30
105.82
78.57
50.69
21.69
-7.99
-37.06
-63.95
-87.80
-109.06
-129.61
-152.28
-180.24
-216.04
-260.69
-312.58
-366.89
-416.04
-451.30
-465.32
-454.53
-420.34
-368.64
-307.64
-245.42
-187.82
-137.80
-95.99
-62.05
-35.91
-18.31
-10.46
-12.98
-24.74
-42.38
-60.88
-75.13
-81.82
-80.34
-72.37
-60.11
-44.55
-24.69
1.89
37.50
83.09
137.54
197.69
258.65
314.22
357.50
382.17
384.33
363.88
324.89
274.33
219.54
166.02
116.51
71.55
30.98
-4.85
-34.86
-57.94
-73.79
-83.32
-88.24
-90.25
-90.35
-88.74
-84.91
-78.36
-69.01
-57.52
-45.25
-34.02
-25.59
-21.13
-20.93
-24.40
-30.41
-37.66
-45.07
-51.95
-58.01
-63.19
-67.51
-70.95
-73.37
-74.67
-74.81
-73.81
-71.77
-68.79
-64.98
-60.48
-55.57
-50.56
-45.71
-41.04
-36.24
-30.79
-24.28
-16.75
-8.87
-1.71
3.82
7.41
9.50
11.05
13.01
15.90
19.64
23.75
27.66
30.85
32.84
33.17
31.33
27.06
20.56
12.58
4.37
-2.76
-7.90
-10.74
-11.57
-10.98
-9.55
-7.72
-5.78
-3.97
-2.57
-1.82
-1.89
-2.81
-4.50
-6.85
-9.73
-12.96
-16.25
-19.08
-20.89
-21.18
-19.80
-17.02
-13.45
-9.78
-6.60
-4.18
-2.58
-1.74
-1.59
-2.11
-3.10
-4.11
-4.40
-3.15
0.14
5.34
11.62
17.70
22.36
24.88
25.32
24.35
22.86
21.51
20.41
19.25
17.52
14.95
11.69
8.24
5.23
3.16
2.23
2.40
3.54
5.52
8.13
11.05
13.78
15.84
17.01
17.48
17.82
18.64
20.22
22.23
23.95
24.68
24.20
23.14
22.79
24.69
29.94
38.77
50.28
62.51
72.81
78.43
77.26
68.48
52.96
33.11
12.17
-6.90
-22.20
-33.26
-40.59
-44.95
-46.91
-46.84
-45.44
-44.21
-45.31
-50.83
-61.75
-77.19
-94.61
-110.58
-121.91
-126.41
-123.40
-113.63
-99.16
-83.15
-69.40
-61.56
-62.12
-71.56
-88.22
-109.12
-131.31
-152.98
-173.55
-192.82
-209.69
-221.53
-224.84
-216.80
-196.93
-167.70
-133.59
-99.31
-67.89
-40.05
-14.77
9.41
33.02
55.48
75.76
93.39
109.33
126.06
146.84
174.58
210.51
253.19
298.37
339.83
371.04
387.05
385.97
369.24
340.76
305.27
266.80
227.77
188.93
149.98
110.47
70.47
30.89
-6.58
-39.80
-66.65
-85.45
-95.29
-96.13
-88.67
-74.26
-54.78
-32.44
-9.51
12.14
31.48
48.58
64.43
80.44
97.77
116.88
137.35
158.12
177.95
195.89
211.47
224.74
235.95
245.18
252.03
255.62
254.80
248.73
237.29
221.37
202.62
182.95
163.88
146.16
129.76
114.10
98.53
82.64
66.37
49.84
33.06
15.76
-2.69
-23.09
-46.09
-71.90
-100.14
-130.00
-160.48
-190.84
-220.82
-250.73
-281.40
-314.04
-349.97
-390.30
-435.21
-483.37
-531.45
-574.40
-606.36
-622.16
-618.75
-595.97
-556.35
-504.10
-443.89
-379.90
-315.42
-252.91
-194.14
-140.23
-91.55
-47.45
-6.42
33.58
74.56
118.06
164.72
214.00
264.11
312.34
355.75
392.04
420.10
439.76
450.90
452.55
442.55
418.32
378.59
324.88
261.78
196.04
134.16
80.36
35.37
-3.30
-40.18
-80.26
-127.53
-183.38
-245.40
-307.11
-359.08
-391.40
-396.92
-373.91
-327.19
-267.14
-206.75
-158.01
-128.90
-121.60
-132.71
-154.77
-178.58
-195.53
-199.29
-186.50
-156.77
-112.21
-56.77
4.26
64.53
117.24
156.07
176.07
174.81
153.09
115.11
68.30
21.87
-14.99
-35.18
-34.91
-13.95
25.12
77.90
138.67
200.29
254.16
290.87
301.98
282.48
232.81
159.65
74.78
-7.64
-74.38
-116.16
-129.53
-117.06
-86.24
-47.01
-9.06
20.40
37.75
42.84
37.85
26.25
12.00
-0.75
-8.02
-6.63
4.84
25.34
51.32
77.60
98.92
111.51
114.16
108.15
96.49
82.77
70.18
60.88
55.82
54.80
56.64
59.48
61.11
59.51
53.28
41.82
25.32
4.66
-18.77
-43.10
-66.17
-85.75
-100.14
-108.61
-111.71
-111.06
-108.77
-106.71
-105.99
-106.87
-108.96
-111.24
-112.14
-109.48
-100.75
-83.90
-58.39
-26.06
8.93
41.21
66.01
80.88
86.26
84.99
80.78
76.71
74.47
74.44
76.38
80.07
85.31
91.72
98.23
103.20
104.91
102.18
94.85
83.76
70.33
56.10
42.27
29.15
15.80
-0.21
-22.32
-53.79
-96.06
-147.32
-202.25
-253.21
-292.47
-314.48
-317.23
-302.18
-273.17
-235.11
-192.90
-151.08
-113.44
-82.74
-60.15
-45.04
-35.23
-27.92
-20.72
-12.39
-3.04
6.45
15.05
22.18
27.81
32.21
35.73
38.72
41.81
46.07
52.95
63.68
78.46
95.93
113.25
127.08
134.89
136.14
132.44
126.76
121.88
119.04
117.46
115.02
109.64
100.71
89.73
79.72
73.80
73.52
77.94
83.71
86.44
82.57
70.96
53.30
33.46
15.92
4.27
0.25
3.75
13.41
27.35
43.56
60.03
74.51
84.56
87.87
82.92
69.69
50.07
27.69
7.05
-7.72
-14.14
-12.11
-3.85
7.02
16.72
22.55
23.40
19.63
12.49
3.50
-6.00
-14.99
-22.66
-28.30
-31.24
-30.80
-26.52
-18.44
-7.45
4.45
14.40
19.39
17.27
7.62
-7.88
-25.95
-42.57
-54.12
-58.10
-53.40
-40.28
-20.24
3.97
28.60
49.30
62.00
63.84
53.91
33.40
5.22
-26.75
-58.34
-85.58
-104.91
-113.50
-109.67
-93.50
-67.38
-35.96
-5.33
18.32
30.52
29.94
18.98
3.42
-8.93
-10.34
4.71
37.75
85.62
141.08
194.63
237.02
261.56
265.56
250.36
220.23
180.82
137.68
95.46
57.76
27.29
6.04
-4.75
-4.98
4.09
19.64
37.68
53.82
64.33
67.11
62.22
51.79
39.11
27.63
19.99
17.54
20.27
26.96
35.43
42.66
45.43
40.91
27.39
4.80
-25.78
-63.12
-106.79
-156.99
-213.22
-272.25
-327.09
-368.02
-385.54
-373.83
-332.85
-268.30
-189.80
-108.40
-34.63
22.74
57.46
66.69
51.55
17.10
-29.02
-78.62
-125.11
-164.43
-194.66
-214.69
-223.08
-218.18
-198.84
-165.74
-122.15
-73.64
-26.96
11.65
37.91
50.52
50.84
41.93
27.12
9.07
-10.45
-30.01
-47.81
-61.63
-69.34
-69.88
-63.79
-52.92
-39.59
-25.57
-11.71
1.88
15.13
27.46
37.57
43.85
44.95
40.05
29.07
12.48
-8.66
-32.70
-57.25
-79.31
-95.60
-103.16
-100.06
-85.91
-61.97
-30.91
3.68
38.00
68.63
93.05
109.95
119.21
121.78
119.40
114.22
108.57
104.61
104.09
108.05
116.50
128.23
140.82
151.01
155.40
151.40
138.07
116.46
89.45
60.98
35.05
14.94
2.65
-1.11
3.22
14.19
29.52
46.27
61.11
70.93
73.50
67.91
54.81
36.28
15.34
-4.61
-20.31
-29.06
-29.14
-20.04
-2.69
20.67
46.72
71.58
91.43
103.11
104.61
95.51
77.04
51.97
24.11
-2.35
-23.65
-37.00
-40.97
-35.42
-21.24
0.02
26.49
56.05
86.36
114.72
138.12
153.55
158.51
151.87
134.52
109.57
81.85
56.96
39.91
34.12
40.77
58.75
85.02
115.14
143.94
166.36
178.28
177.35
163.35
137.99
104.03
64.03
19.69
-27.97
-77.37
-125.01
-165.11
-190.90
-197.32
-183.81
-155.51
-122.14
-94.87
-82.68
-90.00
-116.30
-157.43
-207.49
-260.36
-310.27
-351.95
-380.89
-394.08
-390.92
-373.77
-347.75
-319.47
-295.35
-279.73
-273.92
-276.04
-281.93
-286.55
-285.41
-275.59
-256.09
-227.59
-191.70
-150.30
-105.27
-58.49
-12.14
31.36
69.64
101.20
126.01
145.76
163.32
181.85
203.89
230.86
262.96
299.17
337.11
372.95
401.73
418.36
419.14
403.20
372.85
332.67
287.78
242.32
198.86
158.95
124.15
96.68
79.28
74.27
82.51
102.80
131.91
165.28
197.90
225.24
243.95
252.29
250.20
239.11
221.52
200.43
178.87
159.53
144.41
134.49
129.61
128.33
128.37
127.11
122.28
112.50
97.44
77.75
54.78
30.23
5.81
-17.10
-37.71
-56.16
-73.46
-91.22
-111.23
-135.20
-164.55
-199.94
-240.37
-282.06
-318.24
-340.36
-340.84
-316.41
-270.18
-211.43
-152.76
-106.24
-80.13
-77.72
-98.29
-138.66
-194.10
-258.20
-322.41
-376.55
-410.96
-419.66
-402.71
-366.64
-322.40
-281.70
-252.99
-238.99
-236.39
-237.75
-234.68
-220.85
-193.74
-154.84
-108.02
-57.58
-6.50
44.21
95.23
147.85
202.69
258.67
312.47
358.76
391.40
405.04
396.89
367.71
321.31
262.85
196.69
125.53
51.30
-22.83
-90.84
-144.39
-175.49
-180.16
-160.62
-124.86
-83.57
-46.25
-18.38
-1.18
6.86
7.45
0.95
-13.48
-36.64
-67.75
-103.79
-139.81
-170.03
-189.20
-193.66
-182.18
-155.92
-118.29
-73.95
-27.89
15.68
53.72
84.26
105.82
116.91
115.87
101.57
74.25
36.40
-7.09
-49.59
-84.06
-104.56
-107.49
-92.18
-60.68
-17.15
32.99
83.85
129.77
165.90
188.70
196.46
189.47
169.89
141.14
106.99
70.84
35.37
2.79
-24.66
-44.42
-53.74
-50.42
-33.83
-5.60
30.23
67.81
100.57
122.43
128.87
117.59
88.91
45.78
-6.66
-61.87
-113.15
-154.82
-183.26
-197.31
-198.02
-188.12
-170.95
-149.65
-126.28
-101.51
-74.64
-44.51
-10.57
25.95
61.56
91.10
109.12
111.78
98.32
71.55
37.19
2.55
-25.19
-40.33
-39.45
-21.69
11.34
55.95
106.82
157.53
201.26
231.62
243.66
234.87
205.69
159.65
102.77
42.49
-13.46
-58.23
-86.70
-96.17
-86.62
-60.81
-23.94
17.22
55.45
84.37
99.42
98.57
82.41
53.89
17.62
-20.93
-56.48
-84.72
-102.80
-109.37
-104.41
-88.90
-64.68
-34.42
-1.58
29.92
56.27
74.54
83.22
82.40
73.45
58.43
39.56
18.82
-2.24
-22.53
-41.44
-58.67
-74.08
-87.57
-98.88
-107.81
-114.28
-118.56
-121.08
-122.39
-122.97
-123.19
-123.58
-124.91
-128.12
-133.91
-142.22
-151.91
-160.94
-166.94
-167.95
-162.91
-151.82
-135.56
-115.56
-93.51
-71.21
-50.37
-32.43
-18.32
-8.36
-2.34
0.37
0.65
-0.32
-0.82
1.63
10.04
27.42
55.67
94.51
140.77
188.85
231.97
264.21
282.14
285.57
277.03
260.23
238.54
213.97
187.25
158.55
128.18
96.98
66.16
36.93
10.39
-12.30
-29.73
-40.33
-42.87
-37.21
-24.81
-8.74
7.02
18.54
22.98
19.29
8.24
-8.01
-26.78
-45.67
-63.19
-78.85
-92.65
-104.37
-113.03
-116.81
-113.66
-102.33
-83.23
-58.90
-33.51
-11.83
2.06
5.96
-0.08
-13.76
-31.31
-48.42
-61.35
-67.66
-66.65
-59.36
-48.17
-36.27
-26.85
-22.15
-22.60
-26.31
-29.45
-27.56
-17.46
1.16
25.20
48.98
66.43
73.26
68.44
54.22
34.86
14.98
-1.55
-12.04
-14.81
-8.98
5.50
27.69
55.57
86.29
116.64
143.54
164.33
176.92
179.81
172.41
155.24
130.28
100.71
70.42
43.15
21.90
8.52
3.78
7.41
18.28
34.49
53.47
72.21
87.65
97.18
99.00
92.33
77.46
55.50
28.19
-2.40
-33.95
-64.04
-90.25
-110.33
-122.58
-126.06
-120.80
-107.79
-88.76
-65.87
-41.49
-18.01
2.18
16.74
23.35
19.76
4.03
-24.95
-66.60
-117.81
-172.44
-222.06
-257.55
-271.50
-260.23
-224.60
-169.65
-102.98
-33.11
31.95
85.56
123.26
143.59
148.66
144.24
138.23
138.11
148.18
167.73
191.54
212.08
222.82
220.72
207.11
186.57
164.50
144.89
128.94
115.35
101.73
86.26
68.73
50.46
33.19
17.81
3.57
-11.46
-29.14
-49.91
-72.05
-92.34
-107.42
-115.31
-115.91
-110.59
-101.10
-88.68
-73.82
-56.83
-38.59
-20.87
-6.12
3.18
5.26
-0.49
-13.38
-31.62
-52.63
-73.38
-90.91
-102.73
-107.22
-103.75
-92.57
-74.58
-51.25
-24.52
3.09
28.65
49.11
61.90
65.47
59.52
45.02
23.97
-0.87
-26.26
-48.76
-65.19
-73.12
-71.44
-60.74
-43.09
-21.56
0.67
20.97
37.69
50.00
57.58
60.28
57.89
50.45
38.56
23.71
8.27
-4.97
-13.57
-16.16
-12.74
-4.53
6.58
18.66
30.16
40.07
47.70
52.46
53.79
51.11
44.03
32.54
17.16
-1.00
-20.14
-38.03
-52.24
-60.71
-62.22
-56.64
-44.91
-28.73
-9.98
9.58
28.55
45.74
59.88
69.40
72.41
67.04
52.04
27.49
-4.58
-40.23
-74.21
-101.18
-117.11
-120.33
-111.75
-94.27
-71.70
-47.61
-24.65
-4.58
11.47
22.51
27.55
25.65
16.28
-0.33
-22.95
-49.26
-75.96
-99.06
-114.43
-118.58
-109.50
-87.19
-53.89
-13.48
29.36
70.32
106.29
135.59
157.52
171.61
177.03
172.45
156.80
130.32
95.53
57.50
22.94
-1.41
-10.75
-3.54
18.08
49.24
83.80
116.05
141.75
158.37
164.72
160.35
145.24
119.95
85.97
45.93
3.45
-37.47
-73.30
-101.50
-120.85
-131.32
-133.75
-129.41
-119.63
-105.78
-89.22
-71.61
-54.99
-41.76
-34.41
-34.99
-44.60
-62.95
-88.16
-116.84
-144.58
-166.64
-178.88
-178.79
-166.07
-142.66
-112.25
-79.22
-47.76
-21.32
-2.49
6.90
5.86
-5.23
-24.11
-46.41
-66.22
-77.46
-75.65
-59.22
-29.98
7.66
48.02
85.73
116.74
138.66
150.53
152.25
144.27
127.44
103.28
74.22
43.86
16.74
-2.29
-9.03
-1.11
21.18
54.57
93.31
130.11
157.67
169.96
163.34
137.15
94.10
40.13
-16.31
-65.77
-99.83
-113.16
-104.70
-77.66
-38.03
7.31
52.15
91.55
121.58
139.02
141.36
127.56
98.97
59.60
15.37
-27.63
-64.72
-93.66
-114.35
-127.69
-134.35
-134.20
-126.47
-110.66
-87.51
-59.73
-31.81
-9.19
3.21
2.39
-11.75
-36.60
-67.76
-100.41
-130.46
-155.03
-172.22
-180.71
-179.65
-168.94
-149.67
-124.31
-96.23
-68.84
-44.74
-25.50
-11.98
-4.74
-4.32
-10.78
-23.10
-38.60
-53.03
-61.30
-58.62
-41.78
-9.99
34.75
87.86
142.95
193.19
232.42
256.22
262.13
249.56
219.52
174.90
120.74
64.26
13.90
-22.72
-40.93
-40.45
-25.09
-1.19
24.60
46.97
62.53
69.39
66.72
54.59
34.25
8.42
-18.97
-43.69
-62.34
-73.21
-76.44
-73.56
-66.66
-57.69
-47.83
-37.36
-26.02
-13.69
-1.17
9.47
15.30
13.60
3.39
-13.49
-32.37
-47.01
-51.79
-43.88
-24.20
2.93
31.71
56.88
75.32
86.17
90.01
87.67
79.58
65.96
47.44
25.57
2.47
-19.88
-40.31
-58.21
-72.90
-83.10
-87.23
-84.39
-75.25
-62.15
-48.30
-36.60
-28.79
-25.43
-26.56
-32.27
-42.70
-57.31
-74.11
-89.50
-99.08
-99.13
-88.00
-66.69
-38.60
-8.53
18.43
38.00
47.52
46.35
35.92
19.37
1.04
-14.34
-22.53
-20.66
-8.00
13.80
41.21
69.92
96.02
116.87
131.42
139.72
142.10
138.61
128.93
112.82
90.74
64.34
36.25
9.46
-13.50
-31.08
-42.64
-48.12
-47.64
-41.50
-30.57
-16.70
-2.66
8.29
13.37
11.27
2.55
-10.53
-24.82
-37.32
-45.92
-49.74
-48.83
-43.61
-34.32
-20.86
-3.09
18.37
41.61
63.47
80.34
89.44
89.95
83.25
72.37
60.67
50.57
42.91
37.23
32.61
28.64
25.85
25.31
27.57
31.84
35.54
34.87
26.09
6.89
-22.47
-58.97
-97.45
-131.79
-156.32
-166.93
-161.66
-140.73
-106.00
-60.27
-6.54
52.30
113.58
174.62
232.54
284.18
326.30
355.93
370.79
369.75
353.23
323.24
283.10
236.62
187.23
137.25
87.74
38.97
-8.87
-55.21
-99.11
-139.73
-176.79
-210.72
-242.34
-272.33
-300.83
-327.11
-349.53
-365.49
-371.70
-364.72
-342.06
-303.39
-251.39
-191.74
-131.76
-78.48
-36.44
-6.56
13.81
29.48
45.26
64.18
86.44
109.95
131.61
148.92
161.23
169.72
176.58
183.49
190.48
195.48
195.05
185.67
165.08
133.05
91.28
42.76
-8.98
-60.29
-107.44
-146.58
-173.90
-186.25
-182.02
-161.92
-129.14
-88.81
-46.96
-9.48
18.88
34.95
37.37
26.72
5.46
-22.24
-50.97
-74.88
-88.76
-89.08
-74.91
-48.25
-13.67
22.70
54.52
76.65
86.12
82.55
68.03
46.48
22.87
2.11
-11.92
-17.05
-13.26
-2.32
12.80
28.98
43.78
55.97
65.55
73.15
79.39
84.23
86.79
85.65
79.68
68.68
53.85
37.59
22.62
11.00
3.40
-0.94
-3.73
-6.73
-11.20
-17.58
-25.68
-35.08
-45.31
-55.77
-65.43
-72.51
-74.60
-69.28
-55.02
-32.14
-3.16
27.58
54.86
73.87
81.46
76.81
61.64
39.65
15.62
-5.91
-21.67
-30.42
-33.08
-32.18
-30.90
-32.07
-37.33
-46.72
-58.81
-71.16
-81.15
-86.82
-87.52
-84.22
-79.22
-75.47
-75.68
-81.57
-93.41
-110.05
-129.03
-147.05
-160.50
-166.05
-161.50
-146.58
-123.29
-95.73
-69.22
-48.84
-38.18
-38.31
-47.58
-62.12
-76.92
-87.00
-88.56
-79.74
-60.83
-34.07
-3.01
28.25
55.83
76.60
88.55
90.92
84.43
71.21
54.64
38.68
27.03
22.32
25.67
36.82
54.46
76.71
101.20
124.99
144.60
156.45
157.82
148.00
128.84
104.50
80.25
60.89
49.40
46.44
50.57
58.99
68.33
75.23
76.90
71.57
59.05
40.95
20.52
1.61
-12.77
-21.73
-27.09
-32.77
-43.07
-60.82
-85.95
-115.36
-143.94
-166.44
-179.18
-181.11
-173.73
-160.04
-143.33
-126.17
-110.03
-95.49
-82.44
-70.17
-57.31
-41.99
-22.34
2.43
31.29
61.25
88.21
108.46
119.94
122.70
118.09
107.44
91.01
68.00
37.65
0.62
-40.13
-79.64
-112.35
-134.04
-143.34
-142.16
-135.03
-127.26
-122.87
-122.99
-125.21
-124.12
-113.09
-86.69
-43.28
13.31
73.99
126.42
158.45
161.43
132.57
75.53
-0.50
-82.89
-158.07
-214.05
-242.58
-240.43
-209.74
-157.31
-92.82
-26.50
32.99
79.86
111.59
128.30
131.98
125.89
113.86
99.92
87.99
81.51
83.25
94.93
116.51
145.78
178.42
208.67
230.73
240.06
234.20
212.96
178.33
134.18
85.95
39.91
1.63
-25.74
-42.82
-53.75
-64.16
-78.41
-97.23
-117.40
-133.50
-140.69
-136.89
-123.45
-104.03
-82.86
-63.45
-48.17
-38.28
-34.04
-34.38
-36.53
-36.14
-28.32
-9.30
21.84
62.31
106.02
145.48
174.36
189.79
193.43
190.88
189.36
194.84
209.67
231.75
255.65
274.95
284.63
282.46
268.84
245.85
215.93
181.36
144.26
106.90
71.56
39.85
12.06
-13.07
-37.51
-62.59
-87.87
-110.93
-128.43
-137.85
-138.98
-134.24
-127.90
-124.33
-126.12
-133.01
-141.91
-147.95
-146.19
-133.33
-108.74
-74.74
-35.85
2.44
35.17
58.83
71.86
74.32
67.25
52.21
30.86
4.98
-23.37
-51.89
-78.40
-101.13
-118.91
-130.92
-136.39
-134.62
-125.28
-108.99
-87.71
-64.54
-42.97
-25.94
-15.13
-10.90
-12.60
-19.06
-28.86
-40.27
-51.27
-59.65
-63.56
-61.99
-55.17
-44.51
-32.05
-19.91
-9.94
-3.29
-0.52
-1.68
-6.33
-13.46
-21.41
-27.95
-30.64
-27.54
-17.85
-2.35
16.66
35.90
52.11
62.75
66.61
63.89
55.99
45.05
33.52
23.69
17.30
15.13
16.80
20.85
25.04
26.99
24.82
17.56
5.34
-10.73
-28.88
-46.99
-62.82
-74.23
-79.44
-77.42
-68.20
-53.01
-34.16
-14.60
2.71
15.32
21.65
21.16
14.43
3.11
-10.26
-22.69
-31.34
-34.24
-30.65
-21.05
-6.74
10.72
29.78
49.00
66.82
81.54
91.39
94.96
91.57
81.62
66.65
49.14
32.07
18.32
10.05
8.18
12.06
19.68
28.11
34.28
35.69
30.97
20.10
4.31
-14.17
-32.49
-47.66
-57.07
-58.92
-52.66
-39.19
-20.85
-1.09
16.04
26.67
27.80
17.86
-2.93
-32.52
-67.29
-102.47
-132.82
-153.57
-161.33
-155.02
-136.24
-109.01
-78.69
-50.43
-27.72
-11.60
-1.14
5.49
9.55
11.06
9.07
2.87
-6.74
-16.94
-23.65
-23.13
-13.71
3.25
23.76
42.56
54.87
57.73
50.59
35.15
14.69
-6.69
-24.89
-36.62
-39.86
-34.27
-21.10
-2.94
16.81
34.57
47.16
52.36
49.31
38.82
23.32
6.40
-8.01
-16.71
-18.03
-12.16
-0.86
13.25
27.46
39.58
48.19
52.57
52.54
48.43
41.02
31.61
21.90
13.67
8.53
7.61
11.42
19.83
32.00
46.32
60.47
71.73
77.54
76.38
68.40
55.61
41.44
29.78
23.71
24.65
32.04
43.71
56.68
68.04
75.61
77.98
74.51
65.08
50.10
30.79
9.38
-10.85
-26.12
-33.07
-29.77
-16.46
4.42
28.78
51.87
69.27
77.67
75.28
62.08
39.80
11.79
-17.43
-42.96
-60.55
-67.54
-63.55
-50.44
-31.75
-11.75
5.54
17.07
21.06
17.16
6.30
-9.45
-27.06
-43.09
-54.21
-58.06
-53.79
-42.36
-26.43
-9.62
4.36
12.61
13.66
7.58
-4.24
-19.53
-35.69
-50.15
-60.67
-65.63
-64.25
-56.86
-45.03
-31.39
-19.07
-10.97
-9.00
-13.63
-23.87
-37.56
-51.93
-64.25
-72.34
-74.96
-71.94
-64.19
-53.39
-41.55
-30.54
-21.77
-15.91
-12.99
-12.50
-13.44
-14.29
-12.95
-7.04
5.65
26.14
53.64
85.12
115.72
139.80
152.25
149.68
131.29
98.94
56.78
10.35
-34.61
-73.18
-102.04
-119.85
-127.06
-125.51
-117.88
-107.37
-97.36
-91.02
-90.83
-97.94
-111.52
-128.50
-144.05
-152.43
-148.36
-128.48
-92.54
-43.96
10.84
63.86
107.67
137.05
149.84
146.70
130.16
103.71
71.22
36.89
5.20
-19.37
-33.17
-34.12
-22.32
0.17
29.97
63.20
96.21
125.80
149.40
165.33
172.91
172.58
165.79
154.67
141.40
127.79
114.91
103.15
92.62
83.55
76.59
72.61
72.01
74.09
76.67
76.49
70.35
56.59
36.09
12.40
-9.38
-24.42
-30.03
-26.51
-16.98
-6.00
2.13
4.54
0.30
-10.02
-25.07
-43.28
-63.02
-82.43
-99.21
-110.81
-115.06
-110.84
-98.53
-80.10
-58.74
-38.27
-22.36
-13.67
-13.36
-20.63
-33.22
-48.08
-62.41
-74.23
-82.39
-86.04
-84.19
-75.63
-59.51
-36.19
-7.81
21.88
48.31
67.40
76.48
74.79
63.44
44.98
22.98
1.46
-15.67
-25.22
-25.27
-15.62
2.28
25.54
50.53
73.48
91.11
101.08
102.24
94.72
80.00
60.69
40.19
22.19
10.07
6.23
11.67
25.97
47.35
73.08
99.81
123.78
141.21
148.75
143.84
125.12
92.66
47.93
-6.16
-65.42
-124.61
-177.75
-218.79
-242.54
-245.47
-226.67
-188.35
-135.94
-77.64
-23.12
18.41
40.42
40.89
22.98
-6.13
-37.57
-63.55
-79.32
-83.57
-77.48
-63.42
-44.11
-22.51
-2.30
12.20
17.00
9.93
-8.08
-32.84
-58.14
-77.95
-88.29
-88.27
-79.70
-66.05
-51.21
-38.66
-31.15
-30.69
-38.49
-54.58
-77.38
-103.28
-126.92
-142.11
-143.36
-127.47
-94.40
-46.98
10.60
74.46
141.75
210.09
276.12
334.37
377.70
399.27
395.10
365.72
315.87
252.79
184.07
116.39
55.26
5.33
-29.76
-48.11
-50.56
-41.11
-26.10
-12.51
-5.96
-9.30
-22.33
-42.26
-64.93
-86.07
-102.32
-111.97
-114.96
-112.54
-106.57
-98.81
-90.81
-84.03
-79.99
-80.20
-85.65
-96.20
-110.30
-125.14
-137.44
-144.39
-144.28
-136.87
-123.20
-105.29
-85.61
-66.66
-50.67
-39.24
-33.32
-33.05
-37.73
-45.62
-54.12
-60.01
-60.32
-53.27
-39.04
-19.86
0.58
18.48
31.13
37.52
38.28
34.91
29.12
22.41
16.10
11.53
9.98
12.46
19.28
29.75
42.28
54.77
65.25
72.21
74.86
72.86
66.14
54.80
39.29
20.75
1.22
-16.33
-28.58
-32.74
-27.41
-13.33
6.71
28.38
46.93
58.18
59.46
50.06
31.30
6.29
-20.53
-44.22
-60.35
-65.92
-60.01
-43.78
-19.80
8.87
39.49
69.87
98.08
122.12
139.85
149.55
150.76
144.82
134.77
124.38
117.01
114.69
117.90
125.86
137.03
149.42
160.63
167.96
168.70
161.02
144.76
121.95
96.48
72.95
55.16
44.84
41.07
40.65
39.13
32.09
16.20
-10.14
-46.65
-91.43
-141.21
-191.84
-238.67
-277.13
-303.46
-315.49
-313.19
-298.88
-276.77
-251.84
-228.51
-209.52
-195.44
-185.16
-176.87
-169.22
-161.88
-155.40
-150.43
-147.03
-144.32
-140.86
-135.37
-127.34
-117.08
-105.46
-93.24
-80.93
-68.90
-57.68
-48.19
-41.41
-37.95
-37.40
-38.22
-37.99
-34.11
-24.54
-8.37
13.79
39.77
66.19
89.04
104.58
110.24
105.27
90.91
69.91
45.78
22.09
2.12
-11.25
-15.68
-9.84
5.82
28.57
53.55
74.93
87.87
90.32
83.70
72.33
61.52
55.54
56.29
63.18
73.88
85.52
95.58
102.29
104.61
101.93
93.98
81.12
64.94
48.38
35.50
30.85
38.44
60.54
96.64
143.20
194.47
244.28
287.37
320.57
343.39
357.18
364.04
365.42
361.39
351.02
333.71
309.71
280.39
248.39
216.61
187.35
161.43
138.12
116.06
94.85
74.93
57.21
43.50
35.10
33.46
40.53
56.82
77.35
97.57
113.82
123.91
127.50
124.00
113.63
97.02
74.67
46.85
14.12
-23.02
-65.61
-110.04
-153.72
-193.70
-227.65
-255.30
-278.71
-301.47
-328.19
-366.27
-415.75
-477.82
-550.64
-629.07
-705.22
-769.76
-814.00
-832.74
-829.45
-804.07
-763.36
-713.60
-658.72
-599.78
-535.92
-466.11
-368.18
-278.89
-201.28
-144.08
-113.09
-107.90
-120.90
-139.59
-151.23
-148.16
-133.87
-109.93
-84.37
-62.79
-46.23
-32.25
-17.94
-2.46
12.43
21.15
25.80
27.63
29.94
36.43
49.08
67.25
87.90
107.08
119.87
127.30
130.44
131.85
134.24
139.26
146.91
155.72
163.62
167.97
169.08
167.31
163.80
159.82
156.25
153.24
150.39
146.99
142.09
135.79
128.10
119.34
109.96
100.46
91.26
82.70
74.94
67.99
61.69
55.79
50.20
45.16
41.35
39.83
41.80
48.11
58.96
73.83
91.62
111.04
131.11
151.40
172.16
194.19
218.74
247.08
279.89
316.57
354.65
389.77
416.46
429.60
426.02
405.52
370.99
327.42
280.54
235.43
195.82
164.11
141.67
129.11
126.29
132.03
143.92
158.49
171.86
180.80
183.57
180.56
174.00
166.99
162.13
160.27
160.03
158.06
150.27
133.32
105.70
68.36
24.51
-21.24
-64.29
-101.50
-132.26
-158.50
-183.55
-210.11
-238.38
-265.22
-285.05
-292.23
-283.58
-260.08
-226.64
-190.41
-158.55
-136.50
-127.24
-131.39
-147.14
-170.33
-194.80
-213.45
-220.49
-213.68
-195.62
-172.78
-152.68
-140.21
-135.35
-133.35
-127.26
-111.32
-83.47
-45.45
-0.93
46.92
96.77
148.53
201.43
252.27
295.34
324.14
333.93
323.61
295.72
255.07
206.64
154.35
100.97
48.89
0.88
-39.80
-70.35
-89.59
-98.66
-100.77
-99.98
-99.62
-101.18
-104.00
-105.74
-103.62
-95.69
-81.62
-62.89
-42.12
-22.08
-4.75
9.11
19.90
28.70
36.70
44.73
53.01
61.18
68.54
74.34
78.10
79.74
79.56
78.20
76.46
75.23
75.28
77.18
80.98
86.19
91.81
96.62
99.64
100.57
100.06
99.56
100.76
104.82
111.58
119.37
125.52
127.60
124.91
119.47
115.68
118.66
131.69
154.14
180.88
203.90
215.04
208.87
184.38
144.82
96.34
46.14
0.80
-34.81
-58.19
-69.61
-72.21
-71.29
-73.03
-82.80
-103.59
-135.59
-176.81
-224.54
-276.45
-330.69
-384.96
-435.28
-475.80
-499.96
-502.74
-482.76
-443.03
-389.48
-328.29
-263.57
-196.98
-129.49
-63.87
-6.16
35.54
54.51
49.26
25.53
-5.08
-29.12
-35.99
-21.10
13.67
62.00
116.00
168.40
213.32
245.92
262.05
258.54
234.25
190.91
133.28
68.25
3.03
-56.55
-106.99
-147.18
-177.65
-199.69
-214.69
-223.74
-227.62
-226.85
-221.84
-212.91
-200.38
-184.55
-165.69
-143.90
-119.11
-91.14
-60.02
-26.32
8.62
42.83
74.03
100.22
120.14
133.52
140.88
143.02
140.64
134.07
123.41
108.94
91.69
73.54
57.18
45.54
41.12
45.38
58.52
79.34
105.10
131.63
153.62
165.63
163.64
146.48
116.68
79.92
43.27
12.99
-7.17
-16.43
-16.22
-8.77
3.95
20.56
39.97
60.76
80.92
97.97
109.46
113.31
108.23
93.88
71.10
42.08
10.21
-20.13
-44.28
-58.24
-59.61
-48.23
-26.20
2.76
34.40
64.92
91.54
112.39
125.95
130.72
125.28
109.07
83.38
51.86
20.31
-4.54
-16.67
-12.15
10.04
48.04
97.34
151.42
202.47
242.63
265.53
267.84
250.15
216.59
173.31
126.36
79.98
35.86
-6.44
-48.39
-91.01
-133.82
-174.37
-208.84
-233.31
-245.47
-246.01
-238.84
-229.98
-225.20
-227.62
-236.42
-247.25
-254.26
-252.60
-240.31
-218.55
-190.55
-159.79
-128.73
-98.59
-70.21
-45.06
-25.65
-14.87
-14.44
-23.64
-39.08
-55.84
-69.41
-77.15
-78.63
-74.69
-66.06
-52.56
-33.48
-8.72
19.87
48.27
71.15
83.47
82.15
66.79
39.65
4.58
-34.04
-72.22
-106.74
-134.99
-154.69
-163.83
-160.85
-145.15
-117.41
-79.53
-34.03
16.78
71.03
126.81
181.33
230.33
268.56
291.33
296.43
285.40
263.12
236.17
210.52
190.03
176.09
168.45
166.27
168.65
174.57
182.37
189.45
192.65
189.09
177.08
156.91
130.80
102.43
75.65
53.46
37.35
27.51
23.63
25.67
34.03
48.89
69.12
91.84
112.82
128.06
135.39
135.20
129.74
121.45
111.31
98.23
79.86
53.93
19.42
-23.12
-71.85
-123.80
-174.88
-219.86
-253.06
-269.77
-268.12
-250.14
-221.51
-189.84
-162.52
-144.98
-140.30
-149.66
-172.96
-208.88
-254.46
-304.74
-353.10
-392.68
-418.22
-427.42
-421.12
-402.27
-374.35
-339.98
-300.35
-255.67
-205.96
-151.86
-94.60
-35.61
23.90
82.82
139.48
190.95
233.01
261.15
272.11
265.28
243.08
210.13
171.77
132.75
96.51
65.34
40.76
23.61
13.77
9.74
8.64
6.83
1.14
-9.94
-25.46
-42.20
-55.54
-61.02
-55.66
-38.91
-12.68
19.30
52.60
83.18
108.03
125.31
134.04
133.83
124.72
107.32
83.01
54.01
23.19
-6.44
-32.23
-52.17
-64.92
-69.77
-66.42
-55.08
-36.48
-12.08
15.95
44.73
71.03
91.59
103.61
105.19
95.79
76.43
49.61
19.02
-11.11
-36.74
-54.64
-62.81
-60.54
-48.32
-27.55
-0.34
30.62
62.17
90.89
113.45
127.15
130.44
123.22
106.79
83.60
56.75
29.65
5.64
-12.17
-21.23
-19.85
-7.61
14.30
43.16
75.09
105.83
131.63
149.93
159.61
160.80
154.39
141.51
123.11
99.81
71.97
39.80
3.61
-35.98
-77.83
-119.91
-159.20
-191.98
-214.42
-223.73
-219.16
-202.73
-178.98
-153.98
-133.70
-122.44
-121.82
-130.68
-145.83
-163.26
-179.26
-190.98
-196.69
-195.60
-187.71
-173.80
-155.50
-135.25
-116.00
-100.66
-91.52
-89.77
-95.50
-107.87
-125.37
-146.17
-168.37
-190.14
-209.62
-224.96
-234.00
-234.40
-223.87
-201.02
-166.03
-121.11
-70.15
-17.78
32.02
76.98
116.87
153.28
188.78
225.89
266.08
308.87
351.47
389.08
416.39
429.52
427.69
413.92
394.13
375.23
362.87
359.94
366.24
378.99
394.00
406.67
412.81
409.18
393.97
366.98
329.68
284.82
235.85
186.33
139.44
97.41
61.21
30.42
3.32
-22.52
-49.36
-78.76
-111.27
-146.60
-183.89
-221.83
-258.66
-292.25
-320.50
-342.07
-356.82
-365.71
-369.88
-369.48
-362.99
-347.70
-321.25
-283.29
-236.48
-185.96
-137.89
-97.72
-69.05
-53.59
-51.58
-62.31
-84.18
-114.60
-149.96
-185.81
-217.50
-240.76
-252.29
-250.11
-233.79
-204.37
-164.36
-116.98
-65.27
-11.08
45.30
104.50
166.32
228.00
283.53
324.53
343.03
334.43
299.51
244.33
178.14
110.43
48.52
-3.43
-43.80
-72.18
-88.25
-91.59
-82.38
-62.22
-34.57
-4.34
23.23
43.90
55.46
57.99
53.25
43.56
30.73
15.58
-1.83
-21.36
-41.95
-61.27
-76.25
-83.98
-82.70
-72.35
-54.38
-31.11
-4.92
22.05
47.94
70.89
88.87
99.96
102.74
96.76
82.63
61.87
36.63
9.36
-17.20
-40.21
-57.06
-65.84
-65.90
-58.12
-44.67
-28.37
-12.04
2.15
12.71
18.73
19.73
15.60
6.65
-6.21
-21.48
-37.22
-51.34
-61.96
-67.66
-67.62
-61.61
-50.02
-33.77
-14.19
7.08
28.32
47.87
64.28
76.43
83.61
85.51
82.28
74.49
62.93
48.64
32.75
16.58
1.63
-10.36
-17.58
-18.55
-12.44
0.50
18.96
40.73
63.04
83.02
98.11
106.44
107.18
100.56
87.78
70.61
50.94
30.35
10.04
-9.09
-26.19
-40.34
-50.53
-55.85
-55.72
-50.13
-39.81
-26.23
-11.58
1.59
10.78
14.09
10.69
1.02
-13.43
-30.58
-48.26
-64.77
-78.92
-90.13
-98.18
-102.98
-104.39
-102.07
-95.44
-83.83
-66.70
-44.07
-16.87
12.82
41.90
66.70
83.68
90.22
85.21
69.30
44.79
15.14
-15.60
-43.48
-65.09
-77.95
-80.67
-73.13
-56.47
-33.02
-6.17
20.12
41.92
55.93
60.16
54.21
39.33
18.12
-6.10
-29.90
-50.34
-65.42
-74.14
-76.33
-72.38
-62.95
-48.83
-31.05
-10.94
9.81
29.15
44.98
55.46
59.38
56.41
47.18
33.14
16.24
-1.41
-17.81
-31.28
-40.43
-44.14
-41.70
-33.01
-18.79
-0.62
19.22
38.26
54.51
66.84
75.15
79.99
82.15
82.10
79.92
75.43
68.56
59.72
49.94
40.67
33.52
29.84
30.45
35.50
44.52
56.43
69.63
82.08
91.50
95.74
93.18
83.15
66.17
43.80
18.34
-7.79
-32.56
-54.74
-73.84
-89.95
-103.26
-113.84
-121.55
-126.21
-127.95
-127.30
-125.11
-122.15
-118.81
-115.03
-110.61
-105.86
-101.92
-100.61
-103.54
-111.06
-121.55
-131.69
-137.65
-136.59
-127.74
-112.45
-93.33
-73.29
-54.68
-39.26
-28.36
-23.08
-24.03
-30.96
-42.49
-56.42
-70.43
-82.94
-93.41
-102.14
-109.60
-115.71
-119.39
-118.79
-111.81
-96.88
-73.59
-42.78
-6.30
33.51
74.27
113.79
150.16
181.72
207.36
226.68
239.96
247.99
251.64
251.62
248.56
243.39
237.77
234.01
234.30
239.66
249.13
259.82
267.77
269.25
261.81
244.79
219.18
187.30
152.23
117.49
86.39
61.59
44.57
35.40
32.87
35.01
39.91
46.43
54.54
65.05
78.68
95.06
112.03
125.77
131.74
126.18
107.14
74.76
30.69
-22.74
-82.60
-144.85
-203.35
-249.82
-275.41
-273.72
-243.87
-192.16
-130.82
-74.43
-35.43
-20.55
-29.79
-57.82
-97.02
-140.44
-183.49
-223.90
-260.63
-292.65
-318.19
-334.96
-340.90
-334.97
-317.45
-289.80
-254.29
-213.67
-171.25
-130.80
-96.37
-71.29
-56.88
-51.34
-49.78
-45.32
-31.34
-3.72
37.95
90.38
147.87
204.01
253.01
290.22
312.33
317.47
305.52
278.43
240.10
195.56
149.56
105.27
63.67
24.15
-14.24
-51.46
-85.86
-114.56
-134.55
-143.87
-142.35
-131.48
-113.65
-91.35
-66.60
-41.03
-16.17
6.25
24.46
37.05
43.52
44.46
41.32
35.79
29.31
22.82
16.92
12.23
9.64
10.17
14.59
22.96
34.40
47.14
58.85
67.24
70.49
67.71
59.05
45.59
29.04
11.36
-5.54
-19.94
-30.46
-36.02
-36.04
-30.59
-20.45
-7.09
7.65
21.90
34.05
42.94
47.73
47.88
43.08
33.36
19.22
1.70
-17.62
-36.85
-53.99
-67.14
-74.79
-75.96
-70.35
-58.41
-41.35
-21.02
0.28
20.10
36.22
46.95
51.33
49.26
41.21
28.12
11.23
-8.01
-27.90
-46.55
-62.00
-72.45
-76.62
-73.92
-64.56
-49.45
-30.05
-8.16
14.09
34.43
50.53
60.36
62.55
56.78
44.03
26.50
7.25
-10.41
-23.53
-30.14
-29.29
-21.09
-6.40
13.31
36.03
59.32
80.55
97.29
107.83
111.45
108.39
99.51
85.81
68.22
47.79
26.10
5.47
-11.27
-21.64
-24.50
-20.62
-12.39
-2.80
5.80
12.31
16.80
19.65
20.64
18.47
11.07
-3.50
-26.08
-55.79
-90.01
-125.08
-157.19
-183.40
-202.29
-214.15
-220.45
-223.14
-223.67
-222.63
-219.78
-214.60
-207.06
-198.01
-189.14
-182.16
-177.85
-175.11
-170.85
-160.67
-140.25
-106.64
-59.11
0.63
68.48
137.99
200.72
247.17
268.90
261.55
227.65
177.21
125.38
87.32
72.76
82.69
110.10
144.01
174.84
197.91
213.74
225.46
235.26
242.39
243.64
236.06
219.80
199.46
182.74
177.06
186.05
207.48
233.81
255.04
262.45
251.44
222.23
178.60
125.68
68.30
10.44
-44.13
-91.25
-126.60
-146.92
-151.43
-142.66
-126.06
-108.41
-96.17
-94.02
-104.61
-128.72
-165.56
-212.82
-266.44
-320.87
-369.86
-407.78
-430.76
-437.25
-427.70
-403.77
-367.51
-321.09
-266.87
-207.52
-145.84
-84.16
-23.76
35.25
93.01
148.64
199.26
240.15
266.35
274.66
265.07
240.94
207.68
170.97
135.22
103.00
75.25
51.97
32.64
16.35
1.85
-12.30
-27.24
-43.24
-59.36
-73.55
-83.07
-85.20
-77.89
-60.55
-34.46
-2.71
30.31
59.94
82.39
95.54
99.01
93.86
81.82
64.81
44.80
23.90
4.61
-10.39
-18.69
-18.88
-11.18
2.56
19.27
35.63
48.91
57.53
60.98
59.28
52.47
40.40
22.94
0.67
-24.74
-50.43
-72.99
-89.39
-97.81
-98.02
-91.24
-79.49
-64.99
-49.54
-34.37
-20.09
-6.96
4.89
15.19
23.46
29.13
31.78
31.55
29.26
26.51
25.21
27.18
33.49
44.13
58.02
73.27
87.56
98.65
104.60
103.91
95.72
79.85
57.09
29.22
-1.04
-30.46
-55.83
-74.54
-84.87
-86.07
-78.25
-62.32
-39.94
-13.58
13.70
38.56
58.04
69.95
73.20
67.69
54.17
34.13
9.73
-16.15
-40.10
-58.63
-68.85
-69.15
-59.60
-41.98
-19.24
5.10
27.69
45.73
57.27
61.12
56.84
44.71
25.82
2.20
-23.23
-46.89
-65.17
-75.09
-74.94
-64.61
-45.54
-20.27
8.14
36.55
62.21
82.89
96.97
103.42
101.83
92.31
75.51
52.65
25.56
-3.29
-30.79
-53.55
-68.48
-73.47
-67.97
-53.32
-32.47
-9.33
12.07
28.37
37.41
38.37
31.64
18.59
1.22
-18.01
-36.57
-52.00
-62.26
-65.95
-62.45
-51.98
-35.51
-14.63
8.65
32.04
53.13
69.59
79.41
81.24
74.67
60.49
40.73
18.45
-2.72
-19.21
-28.16
-27.94
-18.34
-0.50
23.50
50.86
78.38
102.57
120.01
127.85
124.49
110.03
86.15
55.56
21.02
-15.39
-52.40
-89.03
-123.88
-154.81
-179.18
-194.72
-200.50
-197.38
-188.00
-176.18
-166.11
-161.42
-164.43
-175.53
-193.00
-213.43
-232.56
-246.49
-252.47
-249.21
-236.60
-215.20
-185.85
-149.58
-107.60
-61.13
-11.21
41.23
95.02
148.02
196.50
235.31
259.21
264.85
252.59
227.09
196.20
168.59
151.07
146.97
155.83
174.43
198.22
222.47
242.76
255.13
256.16
243.43
216.33
176.96
130.52
84.82
48.64
29.37
30.71
51.24
84.55
121.03
150.73
166.05
163.49
143.83
110.83
69.30
23.39
-24.33
-72.67
-121.03
-168.32
-212.06
-248.50
-273.35
-283.09
-276.27
-254.01
-219.53
-177.22
-131.87
-88.35
-51.63
-26.58
-16.98
-24.18
-46.05
-77.15
-110.40
-139.59
-161.40
-176.01
-186.01
-194.30
-202.08
-208.06
-208.88
-200.56
-180.09
-146.26
-99.61
-41.80
24.63
95.87
166.06
226.97
269.44
286.42
276.41
245.07
203.69
164.57
135.95
118.91
108.31
96.83
79.66
56.99
33.09
13.04
-0.52
-8.73
-15.30
-24.11
-37.24
-54.42
-73.58
-91.98
-106.87
-115.51
-115.31
-104.21
-81.48
-48.43
-8.61
32.86
70.72
100.90
121.44
132.53
135.81
133.48
127.45
118.86
108.13
95.22
80.26
64.15
48.80
36.95
31.30
33.39
42.58
55.79
68.23
74.75
71.46
56.74
31.45
-1.47
-37.86
-72.95
-101.88
-120.23
-124.67
-113.75
-88.42
-52.09
-9.92
32.20
68.83
95.71
110.14
111.04
98.84
75.46
44.25
9.70
-23.10
-49.26
-64.89
-67.82
-57.94
-37.30
-9.60
20.35
47.53
67.55
77.31
75.43
62.29
39.74
10.72
-21.33
-52.79
-80.18
-100.26
-110.27
-108.18
-93.11
-65.77
-28.64
14.15
57.37
95.58
124.02
139.38
140.30
127.52
103.67
72.89
40.16
10.60
-11.14
-21.67
-19.26
-4.19
21.27
53.05
85.86
113.98
132.28
137.27
127.79
105.26
73.07
35.57
-3.23
-40.78
-76.64
-112.16
-149.34
-189.11
-229.92
-267.43
-295.61
-308.96
-304.89
-284.88
-254.09
-219.41
-187.20
-161.65
-144.46
-135.36
-132.87
-134.62
-137.21
-136.31
-127.42
-107.56
-76.84
-39.29
-1.92
27.25
41.73
38.40
17.98
-15.61
-56.70
-99.18
-137.61
-167.69
-186.55
-192.84
-186.58
-168.90
-141.40
-105.77
-63.53
-16.45
33.09
81.69
125.22
159.50
181.35
189.37
184.33
169.08
147.97
126.07
108.22
98.13
97.62
106.21
121.23
138.42
152.95
160.57
158.56
146.36
125.67
100.05
73.99
51.89
37.11
31.52
35.36
47.56
66.10
88.45
111.82
133.37
150.43
160.64
162.23
154.20
136.61
110.86
79.72
47.03
16.96
-6.97
-22.86
-30.62
-31.68
-27.95
-21.04
-11.76
-0.46
12.30
25.17
35.80
41.47
39.88
30.09
12.95
-9.03
-32.19
-52.57
-66.69
-72.25
-68.44
-56.04
-37.21
-15.08
6.72
24.61
35.73
38.41
32.44
18.99
0.00
-22.56
-47.24
-73.12
-99.09
-123.15
-142.06
-152.04
-149.99
-134.98
-108.89
-76.16
-42.49
-13.39
7.03
16.72
15.68
5.71
-10.03
-27.64
-43.41
-54.84
-61.45
-64.83
-67.66
-72.29
-79.31
-87.17
-92.81
-93.10
-86.37
-73.26
-56.46
-39.70
-26.44
-18.86
-17.60
-21.95
-30.28
-40.39
-49.76
-55.87
-56.58
-50.59
-37.73
-18.97
3.87
28.52
52.56
73.56
89.07
96.80
95.12
83.87
65.19
43.65
25.52
16.97
22.00
40.86
69.80
102.36
131.34
150.75
157.00
149.12
128.36
97.82
62.02
26.30
-4.24
-26.02
-37.89
-40.99
-37.66
-29.82
-17.86
-0.73
23.06
54.11
91.39
132.57
174.83
215.41
251.62
280.36
297.89
300.57
286.49
257.04
217.77
177.38
145.10
127.68
127.13
140.28
160.60
180.72
194.99
200.39
196.25
182.96
161.08
131.15
93.98
51.38
6.12
-38.63
-80.16
-117.16
-150.00
-180.69
-212.26
-247.64
-288.37
-333.38
-378.57
-417.55
-443.41
-450.81
-437.64
-405.47
-358.88
-304.11
-247.60
-194.96
-150.14
-115.08
-89.38
-70.53
-54.73
-38.21
-18.59
4.39
28.95
52.30
71.73
85.23
91.71
90.53
81.32
64.00
39.07
8.05
-26.35
-60.31
-89.56
-110.12
-119.23
-116.04
-101.81
-79.82
-54.65
-31.34
-14.40
-7.05
-10.76
-25.33
-49.19
-79.82
-114.13
-148.67
-179.70
-203.32
-215.87
-214.65
-198.63
-169.00
-128.99
-82.82
-34.51
13.44
60.55
108.16
158.35
212.34
269.11
324.81
373.35
408.11
423.95
418.94
394.63
355.07
305.11
248.90
189.45
129.15
70.52
16.55
-29.78
-66.46
-93.16
-111.33
-123.50
-132.42
-140.12
-147.48
-153.99
-158.17
-158.34
-153.54
-144.26
-132.53
-121.27
-113.08
-109.20
-109.10
-111.04
-113.09
-114.14
-114.11
-113.62
-113.13
-112.38
-110.39
-106.08
-98.99
-89.67
-79.38
-69.30
-59.59
-49.04
-35.37
-16.37
8.82
38.95
70.63
99.45
121.37
134.02
137.37
133.37
125.06
115.44
106.59
99.35
93.60
88.97
85.31
82.99
82.51
84.08
87.23
90.94
94.09
95.99
96.63
96.61
96.62
97.07
97.76
97.87
96.20
91.47
82.68
69.58
52.96
34.71
17.51
4.05
-3.94
-6.50
-5.61
-4.71
-7.52
-16.84
-33.53
-56.22
-81.75
-106.12
-125.70
-138.18
-143.08
-141.50
-135.48
-127.16
-118.11
-109.19
-100.68
-92.68
-85.37
-79.16
-74.46
-71.53
-70.23
-70.07
-70.37
-70.45
-69.82
-68.29
-65.97
-63.04
-59.57
-55.30
-49.64
-42.02
-32.38
-21.61
-11.35
-3.42
1.11
2.55
2.47
2.94
5.51
10.50
17.00
23.47
28.52
31.41
32.11
31.14
29.29
27.58
27.20
29.38
35.10
44.59
57.25
71.71
86.32
99.62
110.53
118.32
122.35
121.95
116.52
105.81
90.25
71.06
50.11
29.30
9.95
-7.64
-24.08
-40.31
-56.70
-72.57
-86.09
-94.77
-96.34
-89.53
-74.46
-52.53
-25.96
2.97
32.42
61.26
88.91
114.90
138.34
157.67
170.80
175.70
171.23
157.79
137.48
113.60
89.81
69.21
53.67
43.60
38.00
34.83
31.67
26.57
18.78
9.11
-0.35
-7.22
-9.95
-8.58
-4.83
-1.31
-0.41
-3.54
-10.86
-21.57
-34.45
-48.22
-61.79
-74.34
-85.62
-96.21
-107.45
-120.88
-137.13
-155.00
-171.36
-182.17
-184.34
-177.28
-163.36
-146.94
-132.36
-122.08
-115.96
-111.88
-107.31
-100.81
-92.69
-84.52
-78.11
-74.57
-73.82
-74.75
-75.50
-73.82
-67.11
-52.79
-28.83
5.29
47.66
93.72
137.15
171.63
193.01
200.86
198.62
192.44
189.09
193.76
208.56
232.04
259.76
285.68
303.79
309.58
301.00
278.39
243.87
200.14
149.53
93.74
34.35
-26.31
-84.51
-135.31
-173.45
-194.61
-196.52
-179.25
-145.03
-97.86
-43.19
12.36
61.51
97.28
114.53
111.28
89.35
53.90
11.93
-29.26
-63.47
-86.05
-94.21
-86.97
-65.40
-32.66
6.45
46.33
81.76
108.87
125.30
130.04
123.01
104.94
77.54
43.65
7.02
-28.57
-60.35
-87.19
-109.48
-128.27
-144.33
-157.67
-167.66
-173.74
-176.03
-175.44
-173.35
-170.94
-168.61
-165.78
-160.96
-152.11
-137.13
-114.23
-82.50
-42.31
4.38
54.09
102.39
144.53
176.31
194.64
198.11
187.18
164.24
133.26
99.01
65.94
36.94
12.83
-7.54
-26.38
-45.78
-66.79
-89.09
-111.19
-130.94
-146.10
-154.84
-156.07
-149.69
-136.51
-117.90
-95.35
-70.20
-43.60
-16.84
8.34
29.85
45.78
55.18
58.51
57.40
53.78
49.07
43.61
36.94
28.45
18.09
6.75
-3.85
-11.69
-14.89
-12.19
-3.26
11.21
29.47
48.85
66.14
78.05
81.86
75.95
60.07
35.43
4.46
-29.45
-62.46
-90.78
-111.25
-121.80
-121.80
-112.11
-94.81
-72.72
-48.77
-25.37
-3.97
14.91
31.31
45.29
56.33
63.30
64.87
60.23
49.86
35.76
21.10
9.30
3.07
3.71
10.84
22.66
36.43
49.02
57.63
60.22
55.86
44.87
28.63
9.15
-11.25
-30.43
-46.61
-58.65
-66.18
-69.70
-70.54
-70.64
-72.12
-76.74
-85.29
-97.21
-110.54
-122.29
-129.26
-128.92
-120.22
-103.78
-81.80
-57.34
-33.72
-13.92
-0.29
5.71
3.63
-5.92
-21.22
-39.70
-58.46
-74.77
-86.76
-93.66
-95.80
-94.25
-90.37
-85.40
-80.12
-74.73
-68.70
-60.81
-49.34
-32.49
-8.85
22.27
60.63
105.08
153.42
202.12
246.12
279.41
296.45
294.22
274.05
241.83
206.35
176.11
156.22
147.19
145.91
148.26
151.39
154.47
157.94
162.00
166.01
169.27
172.47
178.42
191.24
214.09
246.81
285.00
321.11
347.20
357.73
351.26
330.19
299.16
263.13
225.91
189.60
154.99
122.18
91.20
62.31
35.85
11.99
-9.54
-29.51
-49.05
-69.30
-91.23
-115.67
-143.39
-174.77
-209.34
-245.27
-279.46
-308.40
-329.57
-342.52
-349.13
-352.62
-355.96
-360.69
-366.61
-372.45
-376.92
-379.26
-379.04
-375.50
-367.28
-352.80
-331.35
-303.97
-273.54
-243.80
-217.95
-197.50
-181.98
-169.78
-159.17
-149.05
-138.92
-128.18
-115.52
-98.82
-75.76
-44.83
-5.93
39.67
90.00
142.96
196.47
248.18
295.13
333.89
361.21
375.05
375.21
363.37
342.46
315.63
285.53
253.86
221.45
188.57
155.27
121.74
88.63
57.20
29.33
7.19
-7.16
-12.37
-8.08
4.77
23.93
46.05
67.21
83.80
93.49
95.72
91.79
84.21
75.73
68.55
63.84
61.77
61.60
61.91
60.67
55.34
43.38
22.88
-6.53
-43.28
-83.84
-123.58
-157.74
-182.59
-196.05
-197.92
-189.77
-174.61
-156.34
-139.16
-126.73
-121.27
-122.88
-129.40
-136.99
-141.17
-138.12
-125.59
-103.26
-72.63
-36.66
0.67
34.85
61.40
76.76
79.30
70.02
52.64
32.75
16.25
7.61
8.72
18.54
33.78
50.17
63.67
71.33
71.48
63.74
48.72
28.01
4.07
-20.04
-41.12
-56.60
-65.09
-66.57
-62.05
-52.94
-40.67
-26.46
-11.69
1.97
12.54
18.26
18.21
12.85
3.97
-5.90
-14.18
-19.03
-19.53
-15.64
-7.82
3.23
16.70
31.47
46.02
58.36
66.18
67.27
59.93
43.33
17.90
-14.47
-50.25
-84.48
-111.48
-126.18
-125.62
-109.97
-82.73
-49.72
-17.43
8.64
25.20
31.44
28.68
19.64
7.61
-4.26
-13.56
-18.97
-20.40
-18.76
-15.56
-12.51
-11.18
-12.84
-18.17
-27.07
-38.70
-51.55
-63.92
-74.30
-81.69
-85.53
-85.59
-81.66
-73.52
-61.16
-45.11
-26.66
-7.83
8.90
21.05
26.60
24.41
14.60
-1.30
-20.47
-39.18
-53.53
-60.22
-57.25
-44.26
-22.73
4.19
32.11
55.96
70.88
73.30
62.15
39.51
10.63
-17.29
-37.09
-43.75
-35.75
-15.27
12.75
42.26
67.68
85.04
92.56
90.51
80.72
65.83
48.49
30.78
14.05
-0.69
-12.41
-19.83
-21.90
-18.67
-12.05
-5.74
-4.05
-10.04
-23.89
-42.58
-60.99
-73.98
-78.36
-73.79
-62.36
-47.26
-31.43
-16.84
-4.56
4.72
10.38
12.04
10.04
5.83
1.85
0.86
4.82
14.10
27.21
41.18
52.40
57.75
55.39
45.30
29.20
10.20
-8.04
-22.27
-30.45
-32.30
-29.30
-24.17
-20.00
-19.42
-23.87
-33.54
-47.52
-64.17
-81.52
-97.52
-110.34
-118.70
-122.19
-121.53
-118.32
-114.32
-110.68
-107.41
-103.67
-98.61
-92.00
-84.31
-75.95
-66.30
-53.28
-34.06
-6.43
29.71
72.07
116.85
160.56
201.52
240.29
278.78
318.60
359.72
400.26
437.23
467.89
490.70
505.40
512.32
511.49
502.13
482.99
453.39
414.21
368.18
319.33
271.63
227.80
188.64
153.32
120.26
88.14
56.57
26.15
-1.91
-26.44
-46.99
-64.11
-79.23
-94.23
-110.78
-129.87
-151.86
-176.89
-205.38
-238.03
-275.21
-316.08
-358.14
-397.74
-431.47
-457.38
-475.43
-486.54
-490.99
-487.38
-472.99
-445.49
-404.90
-354.43
-299.45
-245.22
-194.99
-149.39
-107.76
-69.97
-37.62
-13.55
0.04
3.45
0.11
-4.55
-5.50
-0.17
10.73
24.37
37.75
49.58
60.88
74.28
92.74
118.14
150.56
188.14
227.58
264.82
296.01
318.60
331.88
336.87
335.26
328.04
314.65
293.34
262.51
222.44
175.96
127.84
83.06
45.01
14.75
-8.56
-26.32
-39.49
-48.24
-52.47
-52.59
-49.94
-46.51
-44.26
-44.42
-47.18
-51.77
-56.97
-61.51
-64.37
-64.85
-62.47
-57.01
-48.60
-37.76
-25.45
-12.77
-0.61
10.73
21.71
33.24
46.27
61.15
77.23
92.64
104.36
108.64
101.75
81.09
46.57
1.42
-47.94
-93.36
-127.42
-145.83
-148.67
-139.91
-125.44
-110.65
-98.81
-90.68
-85.47
-82.04
-79.67
-78.11
-77.17
-76.32
-74.71
-71.66
-67.05
-61.39
-55.63
-50.65
-46.88
-44.22
-42.18
-40.30
-38.37
-36.64
-35.61
-35.86
-37.65
-40.62
-43.75
-45.60
-44.65
-39.98
-31.54
-20.23
-7.69
4.27
14.20
21.28
25.41
27.00
26.64
24.95
22.30
18.95
15.05
10.69
5.95
0.85
-4.66
-10.64
-17.04
-23.56
-29.70
-34.91
-38.75
-41.18
-42.45
-43.02
-43.32
-43.60
-44.06
-44.90
-46.30
-48.24
-50.30
-51.58
-51.01
-47.78
-41.65
-32.98
-22.50
-10.98
0.83
12.03
21.40
27.44
28.82
24.97
16.51
5.29
-6.11
-15.00
-19.37
-18.29
-12.15
-2.50
8.44
18.46
26.03
30.58
32.46
32.44
31.17
28.87
25.45
20.94
16.03
12.22
11.58
15.99
26.37
41.96
60.05
76.42
86.38
86.18
74.43
53.11
27.66
5.90
-4.00
3.91
31.18
73.77
122.77
166.54
193.80
196.45
171.44
121.40
54.15
-18.71
-83.80
-128.41
-143.26
-124.81
-76.48
-8.15
66.20
131.91
177.28
196.06
188.39
159.79
119.05
75.44
36.35
5.95
-14.84
-27.12
-32.48
-31.87
-25.69
-14.52
0.05
15.13
27.32
33.74
32.88
24.49
8.87
-13.76
-43.19
-78.50
-117.16
-154.84
-186.18
-206.59
-214.00
-209.53
-196.89
-180.68
-164.48
-149.88
-136.52
-123.06
-108.25
-91.26
-71.65
-48.98
-22.98
6.16
37.47
69.51
101.20
132.43
163.94
196.05
227.03
252.27
265.12
259.32
231.90
184.95
125.44
63.10
7.45
-34.74
-60.59
-70.99
-69.31
-59.96
-47.10
-34.13
-23.49
-16.98
-15.83
-20.50
-30.32
-43.14
-55.67
-64.42
-67.07
-63.52
-56.09
-48.49
-44.24
-45.01
-49.92
-56.10
-60.04
-59.25
-53.23
-43.39
-32.15
-21.79
-13.66
-8.02
-4.35
-1.78
0.52
3.24
6.77
11.07
15.57
19.23
20.85
19.56
15.31
8.97
2.19
-3.20
-5.82
-5.13
-1.59
3.59
8.88
13.02
15.26
15.54
14.26
11.98
9.09
5.87
2.48
-0.78
-3.46
-5.00
-5.06
-3.69
-1.42
0.83
2.15
1.92
0.10
-2.84
-6.16
-9.13
-11.29
-12.41
-12.40
-11.26
-9.06
-6.07
-2.80
0.08
2.01
2.76
2.63
2.25
2.31
3.21
4.94
7.16
9.41
11.29
12.48
12.78
12.07
10.41
8.14
5.86
4.31
4.06
5.29
7.64
10.42
12.84
14.36
14.82
14.48
13.81
13.32
13.31
13.92
15.13
16.69
18.07
18.41
16.58
11.69
3.55
-6.85
-17.47
-25.83
-30.00
-29.26
-24.31
-16.79
-8.49
-0.79
5.52
10.00
12.16
11.37
7.02
-0.97
-11.89
-24.29
-36.49
-47.10
-55.50
-61.89
-66.91
-71.20
-75.06
-78.53
-81.77
-85.63
-91.75
-102.12
-118.38
-140.68
-166.81
-192.07
-210.23
-215.31
-203.53
-174.52
-131.25
-79.23
-24.52
28.14
76.42
120.47
162.03
203.39
246.42
291.98
338.79
383.24
420.10
443.80
450.11
437.39
406.99
362.72
309.98
253.65
197.34
143.43
93.62
49.26
11.25
-20.44
-49.04
-75.04
-97.02
-112.73
-120.55
-120.12
-112.22
-98.51
-81.68
-64.68
-49.73
-38.32
-30.86
-26.56
-23.78
-20.89
-17.12
-13.65
-12.69
-16.09
-24.63
-37.72
-53.48
-69.18
-82.45
-92.14
-99.55
-107.25
-118.28
-135.37
-160.41
-193.33
-231.63
-271.11
-301.10
-313.99
-305.90
-277.90
-235.18
-185.42
-135.49
-89.20
-46.74
-5.65
36.27
80.85
124.65
164.16
194.24
210.41
210.69
196.53
172.48
143.70
114.41
86.46
60.05
34.52
10.26
-10.74
-25.74
-32.96
-33.32
-29.82
-26.21
-24.72
-25.60
-27.04
-26.44
-21.73
-12.46
-0.03
13.13
24.44
32.29
36.05
36.20
33.90
30.38
26.38
21.89
16.31
8.98
0.03
-9.51
-17.62
-22.08
-21.45
-15.96
-7.52
0.93
6.73
8.68
7.42
4.98
3.64
4.82
8.37
12.75
15.80
15.69
11.61
3.92
-6.18
-17.33
-28.42
-38.80
-48.06
-55.76
-61.32
-64.16
-64.02
-61.28
-57.01
-52.63
-49.26
-47.28
-46.24
-45.17
-43.16
-39.83
-35.48
-30.91
-27.05
-24.45
-23.10
-22.34
-21.18
-18.62
-14.12
-7.77
-0.28
7.15
13.10
16.20
15.38
10.14
0.93
-10.69
-22.06
-30.03
-31.91
-26.51
-14.65
0.87
16.29
28.08
34.17
34.42
30.42
24.75
19.90
17.38
17.41
18.95
20.29
19.90
17.05
12.24
7.07
3.70
4.19
9.82
20.75
35.92
53.17
69.70
82.70
90.08
91.08
86.58
78.80
70.65
64.73
62.74
65.10
71.05
79.02
86.91
92.43
93.44
88.37
76.84
59.94
40.21
20.91
5.05
-5.54
-10.57
-11.06
-8.78
-5.53
-2.86
-1.89
-3.36
-7.45
-13.61
-20.45
-26.09
-28.86
-28.06
-24.49
-20.07
-16.96
-16.40
-18.25
-21.08
-23.20
-23.51
-22.02
-19.51
-16.90
-14.59
-12.26
-9.21
-4.88
0.72
6.98
12.93
17.73
20.94
22.66
23.50
24.23
25.60
28.01
31.39
35.20
38.64
40.92
41.62
40.87
39.30
37.71
36.79
36.77
37.27
37.30
35.49
30.19
19.92
3.92
-17.27
-41.40
-64.86
-83.67
-94.91
-97.86
-94.26
-87.47
-80.90
-76.58
-74.58
-73.43
-71.20
-66.73
-60.14
-52.71
-46.09
-41.36
-38.36
-35.82
-31.98
-25.52
-16.28
-5.48
4.91
12.94
17.48
18.39
16.27
11.99
6.35
0.15
-5.53
-9.02
-8.34
-1.92
10.55
27.56
46.01
62.09
72.56
75.73
71.81
62.49
49.92
35.90
21.25
5.86
-10.90
-29.58
-50.17
-71.92
-93.26
-112.26
-127.05
-136.48
-140.59
-140.57
-138.24
-135.47
-133.60
-133.19
-134.20
-136.34
-139.44
-143.38
-147.97
-152.55
-155.78
-155.52
-149.29
-134.99
-111.64
-79.81
-41.31
1.65
47.07
93.39
139.00
181.73
218.83
247.81
267.56
278.91
284.29
286.22
286.04
283.50
277.51
267.36
253.50
237.33
220.41
203.56
186.56
169.03
151.48
135.78
124.39
118.98
119.24
122.83
126.32
126.40
121.38
111.57
98.93
85.81
73.71
62.80
52.20
40.70
26.81
9.65
-10.58
-32.19
-52.47
-68.80
-79.66
-85.18
-87.11
-89.04
-94.78
-107.25
-127.01
-152.53
-181.32
-210.81
-238.77
-257.92
-260.72
-242.88
-206.83
-159.91
-110.40
-64.87
-27.72
-1.35
13.75
17.90
13.32
2.32
-12.47
-28.96
-46.51
-66.14
-90.11
-121.20
-162.75
-213.71
-271.16
-328.66
-377.19
-407.77
-414.63
-397.22
-360.25
-312.00
-260.91
-213.18
-171.06
-133.87
-100.25
-69.68
-42.67
-19.61
0.15
18.82
39.02
62.88
90.91
121.73
152.63
180.96
205.38
226.21
245.25
264.84
287.33
314.43
346.44
381.69
416.26
444.28
459.19
455.71
431.61
388.86
332.96
270.88
208.70
150.08
96.27
47.43
3.95
-32.96
-61.77
-81.77
-93.74
-99.80
-102.30
-102.69
-100.97
-96.04
-86.74
-72.89
-55.77
-37.78
-21.65
-9.61
-2.85
-1.32
-3.98
-9.21
-15.38
-21.28
-26.34
-30.43
-33.51
-35.27
-35.06
-32.26
-26.64
-18.63
-8.99
1.61
13.04
25.58
39.41
53.97
67.79
79.03
86.26
89.11
88.30
84.90
79.34
71.04
58.69
41.19
18.68
-6.92
-32.20
-53.04
-66.00
-69.37
-63.71
-51.67
-37.06
-23.53
-13.65
-8.62
-8.85
-14.92
-28.02
-49.49
-79.47
-115.40
-151.53
-180.03
-193.41
-187.41
-162.59
-124.23
-80.41
-39.59
-8.52
8.77
11.19
0.55
-18.77
-40.57
-58.50
-68.37
-70.14
-68.35
-70.11
-81.59
-104.42
-134.48
-163.57
-183.44
-189.74
-183.96
-172.14
-161.36
-156.17
-156.79
-159.99
-161.77
-160.02
-155.66
-151.67
-150.85
-153.79
-158.36
-161.04
-158.86
-150.88
-138.28
-123.13
-106.86
-89.42
-69.61
-46.02
-18.10
13.48
47.07
80.71
112.73
141.86
167.17
187.90
203.40
213.22
217.32
216.16
210.83
202.94
194.44
187.25
182.79
181.75
183.92
188.47
194.17
199.58
203.31
204.15
201.24
194.18
182.85
167.34
147.96
125.34
100.65
75.71
52.66
33.52
19.39
10.08
4.37
0.50
-2.97
-6.76
-10.96
-15.49
-20.51
-26.65
-34.69
-44.97
-56.88
-68.71
-78.13
-83.10
-83.08
-79.50
-75.59
-75.04
-80.34
-91.53
-106.04
-119.77
-128.93
-131.55
-128.00
-120.38
-111.23
-102.37
-94.41
-86.96
-79.36
-71.32
-63.06
-55.10
-47.76
-40.56
-32.12
-20.44
-3.43
20.33
51.25
88.88
132.51
181.52
235.04
290.73
343.93
387.79
415.22
421.76
407.92
379.18
343.45
307.32
273.22
239.31
202.10
159.87
114.74
71.77
36.10
9.72
-9.80
-27.95
-50.35
-80.25
-117.82
-160.88
-206.19
-249.98
-287.48
-312.61
-318.80
-301.64
-261.73
-206.12
-146.91
-96.95
-64.97
-52.34
-53.45
-59.23
-62.03
-59.01
-52.61
-48.09
-49.94
-59.32
-73.86
-89.70
-103.92
-116.07
-127.50
-139.28
-150.33
-157.19
-155.88
-144.57
-125.17
-102.62
-82.30
-66.85
-54.71
-40.99
-19.97
12.18
55.91
108.53
165.34
220.87
269.58
306.30
326.74
328.48
311.77
279.96
238.48
193.00
147.46
103.22
59.55
15.36
-28.97
-70.70
-105.31
-128.37
-137.53
-133.66
-120.59
-103.53
-87.17
-74.16
-64.90
-58.24
-52.68
-47.37
-42.40
-38.47
-36.23
-35.65
-35.86
-35.46
-33.15
-28.17
-20.52
-10.74
0.46
12.48
24.67
36.17
45.63
51.45
52.18
47.12
36.61
21.92
4.74
-13.26
-30.66
-46.30
-59.06
-67.88
-72.05
-71.58
-67.48
-61.54
-55.80
-51.68
-49.53
-48.45
-46.82
-43.07
-36.40
-27.15
-16.60
-6.42
2.07
8.28
12.49
15.41
17.83
20.19
22.46
24.40
25.74
26.48
26.82
27.06
27.29
27.34
26.81
25.42
23.28
20.96
19.35
19.14
20.47
22.74
24.89
25.93
25.42
23.61
21.15
18.63
16.22
13.70
10.79
7.49
4.16
1.34
-0.59
-1.67
-2.18
-2.48
-2.60
-2.20
-0.78
1.89
5.55
9.50
12.93
15.26
16.26
16.11
15.24
14.15
13.33
13.13
13.92
16.06
19.88
25.29
31.92
39.18
46.45
53.26
59.28
64.37
68.49
71.69
73.58
73.93
72.96
71.58
71.05
72.39
75.97
81.38
87.51
92.15
93.52
91.44
87.85
85.67
87.00
91.69
96.93
98.15
89.54
67.56
33.17
-8.18
-49.08
-83.58
-109.12
-126.72
-139.72
-154.25
-176.28
-209.74
-255.10
-309.73
-368.51
-424.44
-470.18
-488.69
-469.44
-415.32
-343.01
-272.69
-217.15
-178.84
-153.46
-135.64
-122.02
-113.38
-111.27
-115.70
-122.74
-127.71
-127.72
-122.41
-113.68
-104.28
-97.69
-95.81
-97.82
-100.21
-98.54
-91.96
-80.77
-66.72
-51.97
-39.09
-29.50
-22.87
-17.21
-10.28
-0.79
11.43
25.29
39.21
51.52
61.37
69.23
76.59
85.16
95.88
108.90
123.36
138.02
151.71
164.11
175.89
188.63
204.21
224.13
249.14
278.67
310.64
341.73
368.30
387.33
397.51
399.23
394.15
384.09
369.92
351.25
326.92
296.08
259.06
217.75
175.23
134.95
99.81
71.49
49.61
31.54
12.96
-10.58
-41.65
-79.33
-118.76
-152.89
-174.72
-180.86
-173.02
-157.40
-142.03
-133.18
-133.18
-138.93
-143.67
-138.46
-116.53
-75.85
-20.01
42.64
101.60
146.48
171.27
174.65
161.62
139.75
116.74
98.48
88.12
86.62
92.39
104.57
121.82
145.01
174.10
