1681911794.00
64.000000
-0.00
-0.00
-0.00
-0.00
-0.00
-0.00
-0.00
-0.00
-0.00
-0.00
0.00
0.01
0.01
-0.00
-0.03
-0.05
-0.05
0.00
0.13
0.36
0.66
1.01
1.37
1.72
2.06
2.40
2.79
3.24
3.80
4.42
5.06
5.66
6.20
6.68
7.15
7.68
8.31
9.14
10.09
11.04
11.88
12.56
13.14
13.76
14.65
15.96
17.91
20.32
22.90
25.38
27.58
29.57
31.68
34.32
37.81
42.54
48.15
54.10
59.83
64.97
69.58
74.14
79.34
85.71
93.76
103.00
112.62
121.73
129.77
136.75
143.30
150.75
157.77
166.64
177.95
191.79
206.97
220.57
228.25
225.36
208.53
176.87
132.76
80.05
23.07
-34.94
-92.44
-149.16
-205.23
-260.37
-313.74
-363.87
-409.83
-450.91
-486.50
-515.74
-537.23
-549.22
-549.96
-538.37
-514.21
-478.67
-433.88
-382.45
-327.02
-269.84
-212.63
-156.66
-102.95
-52.37
-5.90
35.58
71.43
101.35
125.50
144.38
158.69
169.15
176.37
180.75
182.57
182.07
179.51
175.23
169.65
163.18
156.15
148.81
141.30
133.69
126.02
118.33
110.69
103.16
95.80
88.68
81.83
75.25
68.95
62.95
57.25
51.86
46.78
42.03
37.59
33.45
29.61
26.07
22.81
19.83
17.11
14.67
12.48
10.54
8.83
7.35
6.07
4.97
4.05
3.27
2.62
2.09
1.65
1.30
1.01
0.79
0.61
0.48
0.37
0.29
0.24
0.21
0.19
0.18
0.18
0.20
0.22
0.25
0.28
0.32
0.36
0.41
0.45
0.50
0.55
0.60
0.65
0.71
0.77
0.84
0.91
0.98
1.07
1.16
1.27
1.39
1.52
1.67
1.84
2.02
2.23
2.46
2.71
2.99
3.30
3.64
4.02
4.42
4.87
5.35
5.87
6.42
7.02
7.67
8.35
9.08
9.86
10.68
11.55
12.47
13.43
14.44
15.52
16.66
17.86
19.12
20.42
21.71
22.94
24.02
24.85
25.30
25.24
24.58
23.23
21.16
18.36
14.89
10.80
6.25
1.43
-3.42
-8.09
-12.32
-15.93
-18.78
-20.86
-22.17
-22.80
-22.87
-22.49
-21.73
-20.66
-19.33
-17.83
-16.24
-14.66
-13.19
-11.93
-10.87
-9.95
-9.01
-7.96
-6.77
-5.51
-4.36
-3.47
-3.06
-3.12
-3.46
-3.76
-3.73
-3.32
-2.70
-2.19
-2.13
-2.98
-4.75
-7.05
-9.27
-10.85
-11.63
-11.85
-12.07
-12.84
-14.97
-18.56
-23.08
-27.69
-31.60
-34.49
-36.57
-38.46
-41.06
-46.10
-54.91
-68.12
-85.12
-103.89
-121.27
-134.03
-140.32
-135.68
-120.82
-99.35
-76.11
-55.24
-38.85
-26.94
-18.28
-11.60
-6.34
-3.32
-3.28
-6.35
-11.91
-18.87
-25.97
-31.99
-35.71
-36.02
-32.67
-25.77
-15.97
-4.45
7.34
18.04
26.68
32.81
36.68
38.81
40.31
42.57
46.76
53.30
61.67
70.47
78.06
83.14
85.12
84.44
82.21
79.66
77.62
76.32
75.55
74.86
73.88
72.37
70.22
67.31
63.45
58.35
51.75
43.50
33.60
22.30
10.02
-2.44
-13.94
-22.99
-28.13
-28.40
-23.84
-15.54
-5.35
4.80
13.50
20.17
24.92
28.22
30.47
31.84
32.35
32.07
31.19
30.09
29.25
29.16
30.25
32.78
36.79
42.01
47.76
53.10
57.01
58.57
57.22
52.75
45.41
35.75
24.57
12.87
1.63
-8.31
-16.37
-22.22
-25.69
-26.64
-24.89
-20.45
-13.59
-5.15
3.63
11.39
17.02
20.09
20.74
19.52
16.96
13.33
8.63
2.71
-4.43
-12.52
-20.97
-29.06
-36.00
-41.14
-44.22
-45.47
-45.58
-45.57
-46.32
-48.28
-51.27
-54.64
-57.72
-60.08
-61.79
-63.29
-65.17
-67.93
-71.81
-76.79
-82.51
-88.25
-92.88
-95.08
-93.56
-87.61
-77.31
-63.65
-48.16
-32.48
-17.97
-5.37
5.07
13.44
19.95
24.80
28.17
30.23
31.26
31.56
31.49
31.37
31.44
31.83
32.56
33.58
34.78
35.97
36.90
37.34
37.14
36.33
35.23
34.27
33.88
34.13
34.70
34.85
33.64
30.28
24.32
15.84
5.47
-5.63
-15.80
-23.16
-25.94
-22.95
-14.06
-0.28
16.46
33.94
50.14
63.72
74.12
81.38
85.92
88.30
89.05
88.59
87.17
84.91
81.93
78.41
74.66
71.07
67.94
65.38
63.31
61.61
60.18
58.93
57.72
56.20
53.76
49.78
43.78
35.65
25.75
14.80
3.63
-7.00
-16.56
-24.88
-32.15
-38.83
-45.47
-52.55
-60.20
-68.19
-75.90
-82.37
-86.56
-87.46
-84.43
-77.42
-67.04
-54.53
-41.40
-29.01
-18.29
-9.59
-2.86
1.99
5.03
6.22
5.62
3.60
0.79
-2.02
-4.20
-5.43
-5.73
-5.33
-4.44
-3.17
-1.52
0.55
2.94
5.38
7.46
8.77
9.00
8.12
6.31
3.90
1.25
-1.44
-4.11
-6.89
-10.02
-13.77
-18.36
-23.84
-29.94
-36.00
-40.92
-43.48
-42.60
-37.84
-29.57
-18.99
-7.67
2.81
11.43
17.83
22.20
25.04
26.71
27.37
26.95
25.37
22.73
19.42
16.03
13.20
11.37
10.68
10.94
11.79
12.79
13.58
13.91
13.68
12.90
11.68
10.15
8.43
6.56
4.41
1.75
-1.78
-6.45
-12.33
-19.06
-25.82
-31.45
-34.75
-34.87
-31.59
-25.44
-17.55
-9.28
-1.82
4.09
8.30
11.08
12.89
14.13
14.80
14.60
12.93
9.31
3.71
-3.15
-9.98
-15.28
-18.00
-17.88
-15.57
-12.32
-9.35
-7.42
-6.67
-6.83
-7.51
-8.60
-10.25
-12.76
-16.32
-20.87
-26.14
-31.77
-37.38
-42.53
-46.68
-49.09
-48.99
-45.82
-39.51
-30.64
-20.32
-9.89
-0.59
6.81
12.09
15.43
17.28
18.11
18.31
18.16
17.80
17.33
16.77
16.15
15.53
14.91
14.35
13.88
13.53
13.30
13.15
12.97
12.54
11.62
9.99
7.55
4.34
0.61
-3.34
-7.22
-10.84
-14.21
-17.53
-21.09
-25.13
-29.70
-34.50
-38.78
-41.48
-41.52
-38.19
-31.45
-22.09
-11.47
-1.14
7.67
14.31
18.78
21.47
22.87
23.41
23.32
22.75
21.87
20.86
19.91
19.16
18.65
18.34
18.10
17.83
17.48
17.06
16.60
16.12
15.58
14.88
13.86
12.44
10.58
8.31
5.68
2.74
-0.43
-3.71
-6.93
-9.92
-12.58
-15.00
-17.38
-20.02
-23.16
-26.86
-30.99
-35.13
-38.68
-40.86
-40.91
-38.28
-32.85
-25.08
-15.91
-6.54
1.88
8.61
13.39
16.38
17.99
18.65
18.71
18.43
17.95
17.34
16.65
15.90
15.13
14.43
13.89
13.63
13.72
14.12
14.70
15.24
15.53
15.40
14.77
13.66
12.13
10.28
8.22
6.05
3.83
1.57
-0.78
-3.24
-5.79
-8.32
-10.67
-12.70
-14.38
-15.85
-17.35
-19.19
-21.58
-24.56
-28.00
-31.47
-34.31
-35.69
-34.81
-31.17
-24.84
-16.48
-7.21
1.75
9.48
15.47
19.73
22.42
23.81
24.05
23.31
21.79
19.82
17.74
15.87
14.34
13.24
12.58
12.41
12.76
13.56
14.57
15.46
15.90
15.69
14.83
13.49
11.82
9.93
7.83
5.50
2.94
0.22
-2.56
-5.26
-7.79
-10.05
-12.01
-13.72
-15.34
-17.11
-19.27
-21.96
-25.09
-28.30
-31.05
-32.64
-32.44
-30.00
-25.28
-18.69
-11.04
-3.36
3.39
8.54
11.91
13.68
14.21
13.91
13.05
11.78
10.23
8.55
6.95
5.62
4.67
4.12
3.96
4.16
4.71
5.57
6.65
7.70
8.43
8.54
7.83
6.26
3.94
1.08
-2.06
-5.24
-8.27
-11.01
-13.46
-15.78
-18.22
-21.00
-24.16
-27.36
-29.88
-30.87
-29.61
-25.81
-19.79
-12.39
-4.70
2.30
8.02
12.30
15.32
17.31
18.44
18.70
18.09
16.68
14.70
12.55
10.55
8.93
7.65
6.61
5.68
4.84
4.23
3.96
4.08
4.49
4.95
5.13
4.77
3.77
2.13
0.05
-2.28
-4.65
-6.90
-9.01
-11.02
-13.08
-15.36
-18.05
-21.28
-24.99
-28.90
-32.46
-34.88
-35.38
-33.40
-28.83
-22.07
-13.99
-5.63
2.04
8.41
13.25
16.62
18.77
19.94
20.31
20.05
19.31
18.30
17.19
16.12
15.15
14.28
13.51
12.88
12.44
12.20
12.16
12.22
12.25
12.09
11.57
10.61
9.16
7.29
5.14
2.88
0.67
-1.42
-3.45
-5.53
-7.71
-9.99
-12.19
-14.15
-15.76
-17.11
-18.43
-20.08
-22.37
-25.45
-29.23
-33.30
-36.96
-39.39
-39.80
-37.65
-32.89
-25.98
-17.75
-9.21
-1.32
5.27
10.23
13.58
15.54
16.48
16.75
16.65
16.32
15.81
15.08
14.10
12.96
11.83
10.95
10.49
10.53
10.99
11.74
12.63
13.50
14.22
14.60
14.48
13.70
12.20
10.09
7.65
5.20
3.04
1.28
-0.17
-1.53
-3.08
-4.92
-7.07
-9.35
-11.56
-13.57
-15.37
-17.08
-18.92
-21.12
-23.85
-27.09
-30.57
-33.79
-36.05
-36.62
-34.98
-30.97
-24.93
-17.55
-9.78
-2.45
3.78
8.66
12.20
14.58
16.08
16.91
17.25
17.21
16.96
16.62
16.32
16.12
16.00
15.93
15.88
15.89
16.06
16.50
17.22
18.09
18.88
19.25
18.98
17.94
16.24
14.08
11.68
9.20
6.70
4.13
1.45
-1.34
-4.20
-7.04
-9.78
-12.31
-14.47
-16.11
-17.17
-17.73
-18.11
-18.80
-20.29
-22.87
-26.41
-30.27
-33.45
-34.87
-33.74
-29.83
-23.54
-15.71
-7.36
0.59
7.56
13.26
17.61
20.56
22.11
22.29
21.32
19.61
17.64
15.84
14.43
13.41
12.64
11.99
11.45
11.15
11.28
11.93
13.01
14.24
15.23
15.63
15.24
14.11
12.41
10.40
8.26
6.07
3.84
1.48
-1.07
-3.82
-6.73
-9.68
-12.49
-14.97
-17.01
-18.66
-20.17
-21.85
-24.05
-26.84
-29.95
-32.77
-34.40
-34.01
-31.02
-25.35
-17.45
-8.19
1.45
10.62
18.85
26.02
32.28
37.83
42.86
47.49
51.80
55.92
60.05
64.40
69.12
74.30
79.91
85.79
91.65
97.06
101.46
104.30
105.17
103.86
100.40
94.89
87.47
78.26
67.39
55.13
41.93
28.35
14.94
2.19
-9.58
-20.19
-29.58
-37.83
-45.16
-51.97
-58.71
-65.80
-73.40
-81.26
-88.70
-94.75
-98.35
-98.67
-95.34
-88.56
-79.06
-67.96
-56.44
-45.59
-36.14
-28.47
-22.62
-18.38
-15.45
-13.49
-12.22
-11.43
-10.95
-10.59
-10.15
-9.37
-8.05
-6.14
-3.71
-1.05
1.55
3.76
5.38
6.30
6.52
6.10
5.15
3.82
2.21
0.36
-1.74
-4.12
-6.78
-9.72
-12.88
-16.16
-19.46
-22.67
-25.69
-28.51
-31.22
-34.03
-37.19
-40.89
-45.07
-49.29
-52.81
-54.64
-53.92
-50.17
-43.49
-34.55
-24.41
-14.27
-5.05
2.65
8.66
13.11
16.24
18.27
19.35
19.60
19.18
18.36
17.46
16.79
16.56
16.77
17.34
18.13
19.05
20.05
21.16
22.34
23.47
24.35
24.73
24.42
23.30
21.40
18.90
16.02
13.04
10.19
7.59
5.18
2.82
0.25
-2.70
-6.08
-9.77
-13.53
-17.08
-20.25
-23.01
-25.53
-28.16
-31.31
-35.28
-40.10
-45.36
-50.24
-53.61
-54.41
-51.92
-46.09
-37.58
-27.50
-17.15
-7.56
0.61
7.11
11.97
15.35
17.36
18.18
17.98
17.06
15.79
14.66
14.04
14.15
14.99
16.31
17.80
19.25
20.57
21.84
23.18
24.54
25.70
26.25
25.85
24.34
21.90
18.93
15.88
13.06
10.53
8.13
5.59
2.69
-0.65
-4.36
-8.24
-12.03
-15.54
-18.71
-21.57
-24.34
-27.38
-31.02
-35.44
-40.46
-45.45
-49.36
-50.97
-49.33
-44.08
-35.63
-25.07
-13.81
-3.18
5.91
13.03
18.18
21.59
23.54
24.28
24.00
22.93
21.29
19.34
17.40
15.76
14.70
14.35
14.77
15.83
17.33
18.96
20.44
21.52
22.06
22.00
21.32
19.99
17.97
15.25
11.88
8.07
4.10
0.30
-3.09
-6.03
-8.68
-11.35
-14.45
-18.31
-23.14
-28.88
-35.12
-41.15
-45.96
-48.47
-47.82
-43.59
-36.03
-26.03
-14.85
-3.90
5.71
13.35
18.89
22.56
24.76
25.86
26.15
25.81
24.99
23.84
22.50
21.13
19.91
19.03
18.67
18.96
19.87
21.21
22.60
23.68
24.14
23.90
23.03
21.61
19.70
17.25
14.14
10.35
6.00
1.35
-3.29
-7.66
-11.68
-15.40
-18.93
-22.46
-26.14
-30.16
-34.72
-39.86
-45.30
-50.30
-53.77
-54.50
-51.64
-45.03
-35.26
-23.58
-11.44
-0.14
9.52
17.14
22.77
26.62
28.97
30.15
30.42
30.12
29.50
28.78
28.09
27.50
27.02
26.67
26.50
26.57
26.94
27.61
28.51
29.45
30.15
30.32
29.71
28.19
25.82
22.87
19.66
16.47
13.40
10.37
7.17
3.64
-0.26
-4.40
-8.51
-12.33
-15.71
-18.67
-21.39
-24.15
-27.28
-31.11
-35.89
-41.62
-47.88
-53.76
-57.94
-59.04
-56.08
-48.89
-38.24
-25.57
-12.58
-0.66
9.37
17.27
23.14
27.16
29.54
30.47
30.27
29.38
28.32
27.48
27.06
27.08
27.40
27.87
28.42
29.08
29.90
30.93
32.15
33.47
34.63
35.34
35.20
33.94
31.47
27.97
23.85
19.63
15.69
12.21
9.07
5.96
2.55
-1.31
-5.57
-9.99
-14.24
-18.12
-21.57
-24.73
-27.82
-31.08
-34.74
-38.97
-43.84
-49.20
-54.48
-58.67
-60.46
-58.61
-52.48
-42.33
-29.34
-15.28
-1.89
9.56
18.52
25.04
29.48
32.21
33.50
33.54
32.56
30.89
28.95
27.11
25.63
24.64
24.11
24.03
24.35
25.10
26.27
27.80
29.50
31.11
32.27
32.72
32.26
30.87
28.65
25.82
22.60
19.16
15.66
12.13
8.56
4.91
1.11
-2.88
-7.01
-11.18
-15.14
-18.71
-21.78
-24.45
-26.99
-29.81
-33.31
-37.71
-42.95
-48.53
-53.56
-56.87
-57.24
-53.84
-46.48
-35.79
-23.07
-9.91
2.21
12.28
19.86
25.03
28.14
29.61
29.83
29.11
27.76
26.08
24.41
23.04
22.19
21.92
22.16
22.77
23.61
24.63
25.80
27.03
28.16
28.87
28.83
27.78
25.67
22.70
19.23
15.68
12.38
9.45
6.78
4.13
1.17
-2.27
-6.21
-10.40
-14.50
-18.18
-21.31
-24.02
-26.69
-29.85
-33.91
-38.99
-44.72
-50.20
-54.13
-55.20
-52.44
-45.68
-35.58
-23.52
-11.17
0.02
9.11
15.82
20.38
23.23
24.78
25.28
24.89
23.72
21.94
19.85
17.77
16.04
14.91
14.44
14.61
15.26
16.20
17.25
18.25
19.03
19.38
19.10
18.00
15.96
13.00
9.27
5.06
0.69
-3.54
-7.36
-10.65
-13.42
-15.76
-17.94
-20.30
-23.25
-27.08
-31.91
-37.44
-42.92
-47.26
-49.21
-47.79
-42.63
-34.08
-23.22
-11.51
-0.35
9.19
16.62
21.85
25.10
26.70
26.94
26.11
24.45
22.23
19.73
17.24
15.06
13.44
12.55
12.40
12.85
13.67
14.61
15.51
16.33
16.99
17.42
17.36
16.55
14.76
11.96
8.32
4.09
-0.41
-4.95
-9.34
-13.46
-17.18
-20.50
-23.59
-26.80
-30.60
-35.29
-40.76
-46.31
-50.73
-52.60
-50.81
-44.94
-35.51
-23.82
-11.52
-0.13
9.36
16.54
21.51
24.60
26.17
26.59
26.17
25.27
24.21
23.25
22.49
21.93
21.45
20.99
20.58
20.36
20.50
21.09
22.11
23.38
24.54
25.22
25.08
23.91
21.68
18.61
15.04
11.44
8.17
5.41
3.09
0.96
-1.28
-3.84
-6.70
-9.67
-12.53
-15.09
-17.38
-19.59
-22.10
-25.32
-29.61
-35.07
-41.44
-47.96
-53.39
-56.32
-55.52
-50.45
-41.47
-29.75
-16.96
-4.69
5.92
14.35
20.59
24.88
27.51
28.73
28.80
28.03
26.82
25.58
24.62
24.13
24.08
24.38
24.87
25.44
26.04
26.67
27.36
28.04
28.61
28.85
28.54
27.52
25.71
23.23
20.30
17.19
14.16
11.31
8.63
5.95
3.06
-0.20
-3.90
-7.96
-12.15
-16.16
-19.74
-22.80
-25.44
-28.02
-31.00
-34.86
-39.81
-45.69
-51.77
-56.86
-59.51
-58.47
-53.07
-43.53
-30.97
-17.11
-3.77
7.65
16.44
22.51
26.26
28.22
28.85
28.51
27.50
26.15
24.83
23.82
23.25
23.03
22.98
22.93
22.92
23.09
23.65
24.69
26.11
27.56
28.56
28.68
27.65
25.47
22.33
18.65
14.83
11.22
7.96
4.99
2.09
-0.99
-4.40
-8.14
-12.00
-15.74
-19.14
-22.15
-24.91
-27.70
-30.81
-34.54
-39.04
-44.17
-49.48
-54.17
-57.07
-57.01
-53.09
-45.10
-33.70
-20.34
-6.84
5.16
14.60
21.20
25.26
27.37
28.06
27.69
26.44
24.50
22.14
19.71
17.58
16.04
15.25
15.21
15.88
17.07
18.58
20.11
21.36
22.10
22.19
21.60
20.40
18.63
16.32
13.46
10.06
6.20
2.03
-2.24
-6.36
-10.14
-13.46
-16.36
-19.02
-21.74
-24.88
-28.76
-33.49
-38.87
-44.28
-48.76
-51.16
-50.47
-46.16
-38.38
-27.96
-16.24
-4.59
5.81
14.27
20.53
24.66
26.86
27.39
26.51
24.51
21.78
18.74
15.82
13.38
11.62
10.63
10.34
10.59
11.22
12.08
13.09
14.14
15.06
15.60
15.41
14.17
11.69
8.05
3.58
-1.22
-5.89
-10.11
-13.81
-17.17
-20.54
-24.34
-28.96
-34.57
-40.94
-47.32
-52.51
-55.07
-53.84
-48.28
-38.82
-26.67
-13.53
-1.05
9.59
17.78
23.45
26.90
28.54
28.83
28.21
27.07
25.74
24.44
23.25
22.19
21.23
20.41
19.84
19.65
19.94
20.65
21.55
22.32
22.60
22.16
20.94
19.04
16.65
13.91
10.89
7.62
4.10
0.37
-3.42
-7.13
-10.63
-13.88
-16.91
-19.85
-22.93
-26.43
-30.68
-35.83
-41.83
-48.15
-53.76
-57.30
-57.40
-53.16
-44.47
-32.21
-18.00
-3.80
8.72
18.49
25.19
29.16
31.01
31.43
30.94
29.93
28.73
27.62
26.85
26.54
26.67
27.06
27.48
27.80
28.02
28.30
28.79
29.54
30.41
31.06
31.05
30.07
28.00
25.00
21.44
17.71
14.14
10.85
7.77
4.68
1.33
-2.42
-6.54
-10.81
-14.92
-18.58
-21.68
-24.33
-26.88
-29.83
-33.64
-38.56
-44.46
-50.72
-56.25
-59.71
-59.78
-55.63
-47.23
-35.42
-21.76
-8.02
4.22
14.03
21.13
25.73
28.28
29.26
29.07
28.08
26.65
25.14
23.89
23.12
22.86
23.03
23.48
24.07
24.76
25.54
26.42
27.32
28.02
28.27
27.78
26.39
24.13
21.14
17.67
13.95
10.15
6.30
2.38
-1.64
-5.75
-9.90
-13.96
-17.79
-21.27
-24.34
-27.09
-29.73
-32.65
-36.27
-40.85
-46.21
-51.56
-55.59
-56.79
-53.96
-46.70
-35.68
-22.38
-8.70
3.71
13.78
21.15
25.98
28.70
29.72
29.37
27.92
25.70
23.07
20.41
18.13
16.48
15.56
15.35
15.69
16.37
17.19
17.98
18.61
19.00
19.06
18.71
17.86
16.44
14.38
11.60
8.11
3.99
-0.54
-5.09
-9.30
-12.88
-15.83
-18.39
-21.01
-24.20
-28.35
-33.53
-39.46
-45.42
-50.32
-52.94
-52.18
-47.47
-38.97
-27.60
-14.83
-2.26
8.79
17.51
23.69
27.44
29.09
29.00
27.50
24.96
21.78
18.46
15.45
13.08
11.52
10.70
10.42
10.48
10.80
11.37
12.19
13.20
14.07
14.35
13.57
11.43
7.99
3.62
-1.12
-5.71
-9.84
-13.45
-16.72
-20.01
-23.71
-28.23
-33.78
-40.21
-46.89
-52.59
-55.82
-55.21
-50.06
-40.65
-28.21
-14.58
-1.61
9.33
17.63
23.35
26.93
28.91
29.69
29.55
28.67
27.20
25.35
23.33
21.41
19.80
18.74
18.35
18.64
19.47
20.57
21.64
22.41
22.73
22.51
21.72
20.28
18.09
15.05
11.20
6.68
1.75
-3.30
-8.22
-12.86
-17.12
-20.98
-24.50
-27.82
-31.24
-35.20
-40.10
-46.10
-52.79
-59.07
-63.35
-63.97
-59.83
-50.89
-38.20
-23.59
-9.08
3.71
13.86
21.19
25.98
28.69
29.87
29.99
29.52
28.87
28.32
28.01
27.89
27.89
27.93
28.02
28.22
28.61
29.26
30.19
31.31
32.45
33.37
33.70
33.11
31.37
28.47
24.64
20.30
15.94
11.94
8.45
5.35
2.32
-1.02
-4.90
-9.35
-14.11
-18.79
-22.96
-26.37
-28.99
-31.14
-33.30
-36.11
-40.07
-45.42
-51.89
-58.55
-63.96
-66.43
-64.56
-57.72
-46.36
-31.89
-16.26
-1.46
11.05
20.49
26.78
30.27
31.56
31.29
30.06
28.46
26.95
25.87
25.40
25.55
26.22
27.27
28.54
29.91
31.29
32.61
33.80
34.79
35.52
35.83
35.52
34.39
32.25
29.11
25.16
20.79
16.45
12.50
9.08
6.07
3.14
-0.12
-3.95
-8.35
-13.03
-17.59
-21.62
-24.96
-27.74
-30.32
-33.27
-37.11
-42.20
-48.48
-55.43
-61.89
-66.32
-67.08
-63.06
-54.07
-41.10
-26.03
-11.07
1.95
12.02
19.03
23.49
26.07
27.30
27.46
26.69
25.21
23.36
21.58
20.26
19.60
19.54
19.91
20.56
21.41
22.47
23.77
25.19
26.49
27.33
27.39
26.46
24.52
21.71
18.26
14.44
10.47
6.48
2.50
-1.46
-5.44
-9.42
-13.29
-16.96
-20.31
-23.38
-26.33
-29.47
-33.19
-37.74
-43.08
-48.65
-53.35
-55.77
-54.61
-49.12
-39.51
-26.97
-13.26
-0.23
10.76
19.09
24.80
28.27
29.86
29.80
28.23
25.38
21.69
17.84
14.53
12.29
11.33
11.52
12.52
13.91
15.36
16.66
17.73
18.48
18.83
18.63
17.62
15.56
12.33
7.98
2.84
-2.61
-7.82
-12.40
-16.23
-19.49
-22.58
-26.01
-30.27
-35.59
-41.88
-48.54
-54.51
-58.40
-58.86
-55.02
-46.79
-34.98
-21.14
-7.10
5.55
15.73
23.04
27.67
30.11
30.93
30.64
29.56
27.92
25.89
23.65
21.48
19.64
18.45
18.06
18.48
19.49
20.76
21.94
22.74
23.03
22.80
22.03
20.70
18.72
15.97
12.37
7.96
2.93
-2.42
-7.73
-12.70
-17.21
-21.26
-25.06
-28.93
-33.24
-38.31
-44.26
-50.88
-57.43
-62.71
-65.29
-63.88
-57.84
-47.46
-33.92
-18.98
-4.44
8.24
18.26
25.41
29.87
32.10
32.61
31.96
30.67
29.16
27.75
26.62
25.87
25.51
25.53
25.85
26.43
27.23
28.28
29.57
31.05
32.45
33.34
33.25
31.82
29.06
25.30
21.09
16.99
13.28
9.93
6.61
2.93
-1.37
-6.26
-11.42
-16.37
-20.69
-24.23
-27.15
-29.89
-33.05
-37.12
-42.40
-48.76
-55.63
-61.93
-66.25
-67.09
-63.36
-54.73
-41.91
-26.49
-10.53
4.06
15.96
24.60
30.13
33.01
33.86
33.26
31.77
29.92
28.21
26.98
26.38
26.39
26.85
27.61
28.53
29.55
30.63
31.72
32.76
33.66
34.29
34.50
34.03
32.64
30.15
26.62
22.34
17.82
13.59
10.02
7.18
4.80
2.43
-0.34
-3.79
-7.83
-12.16
-16.32
-19.93
-22.89
-25.41
-27.97
-31.18
-35.54
-41.29
-48.09
-55.04
-60.71
-63.44
-61.86
-55.33
-44.26
-30.10
-14.85
-0.51
11.45
20.41
26.41
29.96
31.62
31.87
31.05
29.47
27.49
25.44
23.63
22.24
21.34
20.92
21.00
21.63
22.84
24.58
26.64
28.69
30.32
31.13
30.91
29.54
27.14
23.92
20.26
16.52
12.99
9.76
6.68
3.46
-0.20
-4.39
-8.91
-13.40
-17.45
-20.90
-23.85
-26.65
-29.76
-33.56
-38.26
-43.74
-49.53
-54.69
-58.00
-58.16
-54.22
-46.02
-34.34
-20.73
-7.11
4.87
14.23
20.74
24.73
26.74
27.28
26.67
25.14
22.97
20.52
18.23
16.50
15.60
15.58
16.31
17.58
19.13
20.75
22.28
23.56
24.45
24.79
24.45
23.31
21.28
18.30
14.40
9.70
4.50
-0.79
-5.70
-9.85
-13.10
-15.63
-17.83
-20.23
-23.34
-27.45
-32.60
-38.42
-44.15
-48.69
-50.84
-49.60
-44.54
-35.97
-24.95
-12.99
-1.58
8.13
15.53
20.53
23.34
24.34
23.85
22.21
19.74
16.90
14.14
11.87
10.39
9.74
9.77
10.21
10.80
11.39
11.96
12.61
13.35
14.03
14.28
13.59
11.54
7.96
3.11
-2.45
-7.94
-12.74
-16.55
-19.54
-22.27
-25.49
-29.79
-35.35
-41.73
-47.87
-52.36
-53.80
-51.29
-44.65
-34.59
-22.49
-10.03
1.27
10.37
16.84
20.81
22.77
23.31
22.91
21.91
20.52
18.94
17.43
16.29
15.77
15.97
16.81
18.01
19.25
20.27
20.94
21.27
21.27
20.96
20.25
18.96
16.88
13.84
9.85
5.08
-0.13
-5.32
-10.09
-14.21
-17.63
-20.55
-23.30
-26.29
-29.94
-34.54
-40.08
-46.08
-51.57
-55.20
-55.65
-52.13
-44.64
-34.13
-22.14
-10.26
0.26
8.81
15.30
19.96
23.11
25.04
26.03
26.38
26.38
26.32
26.33
26.47
26.68
26.93
27.22
27.54
27.90
28.27
28.64
29.01
29.31
29.41
29.06
27.96
25.85
22.70
18.71
14.33
10.08
6.35
3.27
0.64
-1.89
-4.71
-8.01
-11.72
-15.52
-19.00
-21.84
-23.98
-25.68
-27.46
-29.92
-33.61
-38.74
-44.97
-51.40
-56.62
-59.05
-57.45
-51.35
-41.28
-28.68
-15.45
-3.37
6.38
13.42
18.08
20.99
22.80
23.89
24.45
24.55
24.33
23.99
23.78
23.84
24.14
24.54
24.86
25.04
25.16
25.38
25.82
26.45
27.05
27.29
26.84
25.50
23.24
20.26
16.87
13.41
10.17
7.31
4.84
2.63
0.46
-1.88
-4.52
-7.42
-10.46
-13.42
-16.15
-18.65
-21.08
-23.79
-27.13
-31.41
-36.69
-42.73
-48.85
-53.97
-56.82
-56.16
-51.36
-42.58
-30.91
-18.07
-5.90
4.21
11.58
16.29
18.95
20.33
21.07
21.57
22.00
22.33
22.48
22.41
22.16
21.89
21.82
22.16
22.98
24.17
25.51
26.68
27.37
27.38
26.57
24.96
22.64
19.80
16.63
13.30
9.89
6.35
2.63
-1.30
-5.33
-9.24
-12.73
-15.62
-17.85
-19.58
-21.19
-23.16
-25.98
-29.94
-34.90
-40.19
-44.61
-46.76
-45.48
-40.30
-31.65
-20.76
-9.29
1.22
9.72
15.81
19.61
21.56
22.15
21.80
20.83
19.48
17.94
16.42
15.12
14.23
13.89
14.14
14.83
15.70
16.41
16.72
16.53
15.94
15.14
14.25
13.21
11.75
9.57
6.50
2.61
-1.71
-5.95
-9.69
-12.75
-15.31
-17.75
-20.54
-24.05
-28.44
-33.58
-38.96
-43.77
-46.98
-47.55
-44.72
-38.38
-29.09
-18.10
-6.89
3.19
11.28
17.10
20.89
23.07
24.08
24.24
23.79
22.92
21.88
20.93
20.20
19.73
19.46
19.27
19.17
19.20
19.47
19.97
20.55
20.91
20.78
19.98
18.54
16.62
14.38
11.92
9.20
6.11
2.57
-1.40
-5.68
-10.06
-14.29
-18.14
-21.46
-24.25
-26.67
-29.08
-31.97
-35.76
-40.59
-46.08
-51.27
-54.78
-55.20
-51.58
-43.81
-32.77
-20.06
-7.49
3.41
11.76
17.42
20.77
22.46
23.08
23.09
22.83
22.49
22.25
22.23
22.51
23.03
23.64
24.16
24.44
24.45
24.29
24.16
24.24
24.54
24.91
25.04
24.56
23.21
20.93
17.90
14.48
11.09
8.03
5.39
3.04
0.68
-2.01
-5.20
-8.87
-12.78
-16.59
-19.96
-22.68
-24.79
-26.51
-28.25
-30.52
-33.79
-38.28
-43.82
-49.70
-54.78
-57.65
-57.06
-52.31
-43.57
-31.86
-18.82
-6.21
4.53
12.57
17.79
20.60
21.73
21.93
21.82
21.83
22.12
22.69
23.39
24.05
24.57
24.92
25.16
25.36
25.63
25.98
26.40
26.85
27.27
27.52
27.42
26.71
25.14
22.63
19.31
15.57
11.91
8.74
6.26
4.32
2.57
0.59
-1.91
-4.98
-8.43
-11.99
-15.40
-18.50
-21.27
-23.82
-26.39
-29.35
-33.11
-37.96
-43.89
-50.33
-56.12
-59.74
-59.78
-55.40
-46.77
-35.02
-21.92
-9.31
1.47
9.79
15.67
19.51
21.77
22.83
22.97
22.48
21.68
20.92
20.41
20.19
20.18
20.22
20.32
20.63
21.36
22.62
24.29
25.98
27.20
27.54
26.86
25.26
23.00
20.35
17.47
14.38
11.05
7.43
3.55
-0.47
-4.47
-8.23
-11.56
-14.35
-16.63
-18.65
-20.84
-23.71
-27.64
-32.70
-38.53
-44.32
-48.94
-51.16
-50.02
-45.07
-36.64
-25.71
-13.77
-2.31
7.47
14.94
20.01
22.98
24.31
24.39
23.51
21.88
19.75
17.41
15.25
13.61
12.74
12.69
13.32
14.35
15.47
16.43
17.07
17.31
17.04
16.11
14.36
11.71
8.20
4.09
-0.22
-4.33
-7.92
-10.92
-13.52
-16.11
-19.21
-23.22
-28.26
-33.99
-39.54
-43.70
-45.20
-43.14
-37.34
-28.43
-17.68
-6.61
3.44
11.63
17.66
21.66
23.93
24.76
24.40
23.07
21.04
18.65
16.30
14.32
12.91
12.12
11.84
11.95
12.33
12.91
13.62
14.36
14.94
15.08
14.45
12.74
9.76
5.55
0.45
-5.00
-10.19
-14.69
-18.39
-21.57
-24.82
-28.75
-33.72
-39.66
-45.92
-51.43
-54.90
-55.16
-51.54
-44.08
-33.60
-21.45
-9.21
1.78
10.67
17.19
21.53
24.13
25.49
26.05
26.15
26.09
26.02
26.02
26.04
25.99
25.82
25.55
25.28
25.16
25.24
25.46
25.65
25.59
25.04
23.88
22.06
19.63
16.72
13.50
10.12
6.69
3.21
-0.40
-4.18
-8.11
-12.03
-15.72
-19.02
-21.90
-24.54
-27.31
-30.66
-34.99
-40.47
-46.80
-53.18
-58.25
-60.47
-58.55
-52.01
-41.44
-28.36
-14.77
-2.47
7.39
14.46
18.99
21.56
22.78
23.21
23.34
23.59
24.25
25.38
26.84
28.34
29.58
30.43
30.92
31.20
31.49
31.92
32.52
33.15
33.59
33.50
32.54
30.48
27.34
23.38
19.10
15.02
11.55
8.75
6.42
4.14
1.45
-1.94
-6.00
-10.44
-14.77
-18.60
-21.70
-24.21
-26.57
-29.34
-33.11
-38.20
-44.46
-51.13
-56.92
-60.25
-59.73
-54.65
-45.26
-32.79
-19.06
-5.98
5.05
13.33
18.92
22.32
24.17
25.07
25.46
25.65
25.84
26.18
26.72
27.39
28.03
28.44
28.54
28.41
28.26
28.29
28.55
28.86
28.87
28.22
26.72
24.45
21.64
18.63
15.63
12.71
9.83
6.92
3.96
0.91
-2.24
-5.49
-8.82
-12.14
-15.33
-18.35
-21.34
-24.61
-28.52
-33.32
-38.80
-44.23
-48.44
-50.13
-48.32
-42.71
-33.82
-22.90
-11.48
-0.98
7.67
14.11
18.48
21.13
22.46
22.79
22.36
21.41
20.21
19.08
18.27
18.00
18.30
19.08
20.15
21.26
22.24
22.96
23.36
23.41
23.04
22.11
20.43
17.80
14.14
9.53
4.29
-1.10
-6.10
-10.31
-13.55
-15.95
-17.92
-19.94
-22.47
-25.80
-29.94
-34.60
-39.18
-42.75
-44.31
-42.96
-38.27
-30.45
-20.43
-9.56
0.71
9.30
15.63
19.72
21.94
22.80
22.80
22.28
21.51
20.68
20.00
19.61
19.60
20.00
20.75
21.77
22.94
24.16
25.28
26.13
26.48
26.13
25.00
23.18
20.90
18.37
15.67
12.76
9.49
5.75
1.61
-2.68
-6.79
-10.48
-13.68
-16.50
-19.15
-21.89
-25.02
-28.91
-33.84
-39.89
-46.58
-52.81
-57.00
-57.60
-53.67
-45.34
-33.82
-20.97
-8.72
1.54
9.22
14.40
17.64
19.60
20.81
21.65
22.32
22.89
23.38
23.78
24.16
24.62
25.23
26.02
26.90
27.70
28.24
28.43
28.31
27.97
27.53
26.98
26.21
25.02
23.24
20.78
17.75
14.45
11.20
8.29
5.82
3.63
1.41
-1.18
-4.31
-7.89
-11.60
-15.08
-18.05
-20.47
-22.56
-24.65
-27.08
-30.15
-34.06
-38.87
-44.39
-50.07
-54.86
-57.43
-56.49
-51.29
-42.00
-29.78
-16.43
-3.85
6.52
14.01
18.66
21.01
21.76
21.61
21.10
20.66
20.51
20.76
21.38
22.24
23.18
24.07
24.85
25.47
25.96
26.30
26.51
26.63
26.63
26.48
26.06
25.17
23.59
21.21
18.08
14.47
10.81
7.53
4.94
3.04
1.57
0.11
-1.73
-4.14
-7.13
-10.51
-14.05
-17.49
-20.62
-23.29
-25.52
-27.50
-29.62
-32.42
-36.28
-41.21
-46.62
-51.41
-54.17
-53.66
-49.26
-41.13
-30.27
-18.18
-6.50
3.46
10.91
15.70
18.20
19.07
18.99
18.52
18.00
17.58
17.29
17.10
17.03
17.09
17.30
17.65
18.15
18.82
19.69
20.76
21.96
23.06
23.72
23.58
22.40
20.24
17.37
14.25
11.29
8.72
6.51
4.41
2.13
-0.56
-3.65
-6.96
-10.22
-13.20
-15.78
-18.06
-20.25
-22.65
-25.59
-29.34
-33.96
-39.17
-44.18
-47.83
-48.82
-46.20
-39.73
-30.10
-18.70
-7.25
2.80
10.60
15.96
19.21
20.88
21.41
21.11
20.16
18.69
16.88
15.02
13.40
12.31
11.95
12.37
13.43
14.87
16.34
17.50
18.14
18.20
17.73
16.87
15.66
14.09
11.99
9.19
5.66
1.58
-2.72
-6.81
-10.37
-13.31
-15.80
-18.22
-20.96
-24.38
-28.67
-33.81
-39.45
-44.93
-49.20
-51.11
-49.65
-44.35
-35.56
-24.42
-12.55
-1.54
7.45
13.95
18.08
20.34
21.27
21.30
20.70
19.65
18.31
16.86
15.50
14.46
13.89
13.88
14.43
15.43
16.72
18.09
19.26
19.99
20.06
19.32
17.74
15.42
12.55
9.37
6.06
2.72
-0.66
-4.16
-7.85
-11.77
-15.87
-20.04
-24.10
-27.89
-31.36
-34.64
-38.05
-42.07
-47.14
-53.34
-60.16
-66.43
-70.58
-71.12
-67.20
-59.01
-47.85
-35.71
-24.72
-16.54
-11.86
-10.32
-10.68
-11.26
-10.42
-7.06
-0.84
7.71
17.48
27.09
35.30
41.32
44.90
46.25
45.89
44.43
42.41
40.27
38.31
36.72
35.56
34.79
34.28
33.93
33.62
33.31
33.03
32.84
32.79
32.86
32.95
32.87
32.38
31.25
29.37
26.72
23.47
19.85
16.15
12.59
9.32
6.30
3.41
0.40
-2.93
-6.70
-10.85
-15.13
-19.22
-22.83
-25.87
-28.48
-31.04
-34.06
-37.99
-43.11
-49.28
-55.85
-61.66
-65.23
-65.16
-60.62
-51.72
-39.49
-25.69
-12.14
-0.33
8.96
15.65
20.11
22.91
24.52
25.29
25.46
25.28
24.99
24.85
25.09
25.82
26.99
28.43
29.85
31.00
31.71
32.00
31.98
31.80
31.54
31.15
30.43
29.12
27.04
24.15
20.66
16.90
13.24
9.95
7.08
4.49
1.92
-0.86
-3.96
-7.31
-10.71
-13.98
-17.02
-19.83
-22.54
-25.34
-28.48
-32.21
-36.86
-42.60
-49.31
-56.32
-62.40
-65.97
-65.56
-60.40
-50.76
-37.85
-23.54
-9.71
2.22
11.49
18.05
22.19
24.42
25.25
25.13
24.47
23.63
22.86
22.29
22.00
21.99
22.30
22.96
24.01
25.42
27.06
28.74
30.15
31.06
31.26
30.62
29.14
26.89
23.98
20.59
16.97
13.29
9.69
6.12
2.45
-1.46
-5.64
-9.93
-14.03
-17.62
-20.57
-23.01
-25.35
-28.18
-31.98
-36.90
-42.56
-48.00
-51.87
-52.80
-49.83
-42.82
-32.51
-20.35
-8.00
3.03
11.85
18.18
22.25
24.49
25.27
24.86
23.41
21.16
18.47
15.85
13.79
12.65
12.49
13.15
14.28
15.55
16.76
17.84
18.83
19.72
20.38
20.58
19.97
18.26
15.34
11.30
6.54
1.54
-3.19
-7.37
-10.95
-14.16
-17.37
-21.05
-25.57
-31.17
-37.71
-44.62
-50.82
-54.90
-55.51
-51.82
-43.91
-32.73
-19.89
-7.15
4.14
13.21
19.90
24.46
27.28
28.66
28.86
28.02
26.32
24.00
21.45
19.12
17.50
16.89
17.39
18.76
20.59
22.37
23.71
24.37
24.28
23.48
22.00
19.84
16.99
13.40
9.13
4.29
-0.88
-6.06
-10.90
-15.19
-18.85
-22.09
-25.24
-28.76
-33.04
-38.33
-44.64
-51.51
-58.03
-62.86
-64.56
-62.04
-54.97
-43.98
-30.49
-16.36
-3.28
7.59
15.79
21.41
24.89
26.75
27.47
27.46
27.08
26.63
26.38
26.46
26.92
27.69
28.63
29.64
30.70
31.84
33.10
34.42
35.55
36.11
35.70
34.06
31.23
27.51
23.36
19.25
15.44
11.99
8.73
5.37
1.66
-2.56
-7.24
-12.19
-17.06
-21.53
-25.41
-28.71
-31.82
-35.33
-39.90
-45.97
-53.41
-61.35
-68.22
-72.13
-71.43
-65.29
-54.04
-39.15
-22.78
-7.17
5.97
15.78
22.23
25.91
27.62
28.19
28.26
28.29
28.55
29.16
30.11
31.30
32.59
33.87
35.07
36.18
37.25
38.24
39.09
39.70
39.96
39.77
39.04
37.64
35.43
32.33
28.40
23.94
19.37
15.14
11.56
8.65
6.15
3.69
0.89
-2.44
-6.25
-10.37
-14.49
-18.37
-21.85
-24.96
-27.87
-30.93
-34.62
-39.44
-45.66
-53.10
-60.87
-67.45
-70.94
-69.76
-63.15
-51.62
-36.78
-20.87
-6.02
6.29
15.46
21.67
25.48
27.57
28.48
28.60
28.27
27.77
27.35
27.19
27.35
27.75
28.33
28.98
29.69
30.54
31.65
33.05
34.65
36.16
37.09
36.97
35.48
32.60
28.66
24.20
19.78
15.78
12.27
9.04
5.76
2.16
-1.86
-6.16
-10.44
-14.42
-17.90
-20.86
-23.48
-26.16
-29.46
-33.93
-39.82
-46.84
-53.91
-59.33
-61.21
-58.18
-49.92
-37.45
-22.76
-8.15
4.54
14.38
21.31
25.82
28.46
29.64
29.52
28.29
26.24
23.81
21.49
19.67
18.57
18.20
18.48
19.26
20.37
21.58
22.67
23.44
23.74
23.53
22.76
21.40
19.35
16.56
12.99
8.76
4.10
-0.68
-5.28
-9.50
-13.23
-16.52
-19.54
-22.56
-25.97
-30.15
-35.33
-41.29
-47.31
-52.10
-54.19
-52.38
-46.19
-36.16
-23.68
-10.54
1.58
11.53
18.91
23.81
26.64
27.79
27.56
26.23
24.11
21.62
19.30
17.65
17.03
17.52
18.96
20.99
23.15
25.05
26.46
27.27
27.48
27.12
26.15
24.45
21.85
18.20
13.47
7.83
1.63
-4.60
-10.42
-15.50
-19.76
-23.43
-26.94
-30.81
-35.55
-41.40
-48.20
-55.23
-61.25
-64.71
-64.17
-58.77
-48.59
-34.74
-19.06
-3.66
9.69
19.95
26.84
30.75
32.40
32.53
31.81
30.70
29.58
28.67
28.09
27.85
27.84
27.98
28.24
28.65
29.29
30.16
31.17
32.11
32.67
32.54
31.48
29.39
26.33
22.52
18.23
13.72
9.15
4.54
-0.19
-5.09
-10.13
-15.16
-19.91
-24.14
-27.77
-30.92
-34.03
-37.69
-42.54
-48.88
-56.40
-63.95
-69.74
-71.79
-68.63
-59.89
-46.51
-30.44
-14.01
0.69
12.38
20.61
25.68
28.27
29.18
29.16
28.77
28.40
28.24
28.34
28.69
29.22
29.88
30.64
31.44
32.25
33.01
33.71
34.38
35.00
35.45
35.48
34.76
32.97
29.99
25.96
21.33
16.67
12.46
8.90
5.82
2.76
-0.78
-5.06
-9.98
-15.11
-19.90
-23.93
-27.07
-29.61
-32.07
-35.15
-39.38
-45.02
-51.83
-58.94
-64.94
-68.16
-67.12
-61.08
-50.33
-36.23
-20.78
-6.08
6.28
15.49
21.55
25.02
26.65
27.12
26.95
26.46
25.82
25.15
24.51
24.00
23.74
23.85
24.44
25.56
27.13
28.96
30.73
32.09
32.78
32.58
31.43
29.38
26.57
23.15
19.30
15.17
10.86
6.43
1.93
-2.61
-7.10
-11.43
-15.47
-19.13
-22.45
-25.67
-29.17
-33.44
-38.79
-45.16
-51.82
-57.47
-60.44
-59.27
-53.24
-42.78
-29.32
-14.90
-1.51
9.52
17.63
22.95
25.93
27.05
26.73
25.32
23.26
20.99
18.95
17.44
16.57
16.32
16.56
17.17
17.98
18.87
19.75
20.60
21.38
21.99
22.12
21.31
19.12
15.37
10.26
4.40
-1.41
-6.52
-10.65
-13.94
-16.89
-20.13
-24.24
-29.60
-36.18
-43.38
-50.04
-54.56
-55.34
-51.39
-42.70
-30.40
-16.38
-2.68
9.06
18.06
24.23
27.97
29.80
30.12
29.24
27.42
25.03
22.46
20.10
18.29
17.22
16.93
17.31
18.19
19.28
20.31
21.05
21.35
21.16
20.48
19.24
17.33
14.55
10.77
6.03
0.58
-5.12
-10.55
-15.36
-19.40
-22.79
-25.88
-29.08
-32.84
-37.48
-43.09
-49.42
-55.66
-60.56
-62.58
-60.37
-53.33
-41.88
-27.50
-12.25
1.86
13.38
21.74
27.11
30.07
31.29
31.28
30.44
29.13
27.71
26.55
25.94
25.98
26.58
27.50
28.44
29.19
29.70
30.06
30.45
30.98
31.58
31.87
31.39
29.70
26.64
22.43
17.63
12.90
8.75
5.30
2.32
-0.63
-4.01
-8.02
-12.57
-17.29
-21.75
-25.57
-28.62
-31.04
-33.19
-35.58
-38.75
-43.15
-48.90
-55.59
-62.15
-66.96
-68.25
-64.71
-56.01
-43.03
-27.61
-11.98
1.89
12.74
20.21
24.65
26.79
27.47
27.37
26.98
26.54
26.18
25.97
25.97
26.29
26.99
28.06
29.37
30.73
31.90
32.74
33.15
33.15
32.76
31.98
30.74
28.96
26.56
23.53
19.98
16.13
12.33
8.89
6.02
3.72
1.78
-0.14
-2.38
-5.20
-8.63
-12.53
-16.59
-20.44
-23.85
-26.75
-29.33
-32.00
-35.29
-39.72
-45.52
-52.46
-59.70
-65.79
-68.99
-67.80
-61.48
-50.33
-35.80
-19.94
-4.92
7.66
17.04
23.26
26.88
28.59
28.99
28.52
27.49
26.22
25.03
24.23
24.01
24.40
25.24
26.29
27.34
28.23
28.93
29.52
30.04
30.48
30.65
30.30
29.08
26.76
23.34
19.10
14.55
10.23
6.57
3.70
1.42
-0.74
-3.27
-6.50
-10.48
-14.93
-19.36
-23.26
-26.30
-28.47
-30.07
-31.67
-33.90
-37.25
-41.90
-47.52
-53.23
-57.74
-59.59
-57.57
-51.12
-40.65
-27.41
-13.25
0.00
10.97
18.97
24.02
26.58
27.30
26.75
25.40
23.58
21.57
19.60
17.88
16.60
15.91
15.88
16.49
17.65
19.17
20.84
22.42
23.71
24.45
24.43
23.48
21.51
18.63
15.10
11.34
7.74
4.51
1.62
-1.21
-4.28
-7.78
-11.61
-15.46
-18.94
-21.79
-24.08
-26.20
-28.72
-32.22
-36.94
-42.59
-48.30
-52.69
-54.28
-51.92
-45.26
-34.87
-22.15
-8.86
3.32
13.24
20.39
24.81
26.83
26.88
25.42
22.85
19.62
16.12
12.79
9.95
7.88
6.75
6.61
7.40
8.86
10.68
12.52
14.10
15.27
15.96
16.06
15.38
13.66
10.72
6.60
1.68
-3.39
-7.96
-11.57
-14.20
-16.25
-18.36
-21.22
-25.33
-30.82
-37.38
-44.18
-49.92
-53.07
-52.31
-46.94
-37.28
-24.67
-11.08
1.53
11.74
19.00
23.50
25.81
26.55
26.14
24.82
22.74
20.13
17.26
14.55
12.37
11.06
10.77
11.43
12.77
14.32
15.65
16.42
16.54
16.12
15.35
14.32
12.95
11.01
8.27
4.62
0.18
-4.68
-9.53
-13.99
-17.87
-21.24
-24.41
-27.76
-31.69
-36.47
-42.16
-48.45
-54.58
-59.38
-61.42
-59.49
-53.00
-42.28
-28.62
-13.81
0.22
12.06
20.94
26.77
29.91
30.93
30.48
29.17
27.55
26.03
24.87
24.15
23.77
23.58
23.46
23.38
23.42
23.72
24.41
25.46
26.69
27.73
28.12
27.47
25.64
22.73
19.13
15.29
11.55
8.00
4.51
0.82
-3.29
-7.82
-12.61
-17.32
-21.68
-25.49
-28.80
-31.86
-35.07
-38.97
-43.92
-49.98
-56.59
-62.58
-66.32
-66.13
-60.97
-50.77
-36.66
-20.58
-4.77
8.94
19.49
26.65
30.87
32.83
33.22
32.55
31.23
29.63
28.15
27.11
26.70
26.90
27.47
28.13
28.66
29.09
29.55
30.28
31.34
32.63
33.82
34.44
34.06
32.43
29.53
25.58
20.98
16.25
11.81
7.86
4.35
0.99
-2.58
-6.58
-10.98
-15.46
-19.61
-23.18
-26.14
-28.80
-31.69
-35.36
-40.21
-46.34
-53.46
-60.75
-66.92
-70.39
-69.71
-63.98
-53.33
-38.97
-22.89
-7.24
6.26
16.71
24.04
28.68
31.19
32.06
31.68
30.42
28.73
27.09
25.94
25.48
25.69
26.33
27.14
27.94
28.70
29.50
30.48
31.68
33.03
34.25
34.91
34.52
32.75
29.57
25.32
20.62
16.18
12.46
9.51
6.97
4.31
1.07
-2.91
-7.42
-12.05
-16.37
-20.12
-23.32
-26.15
-29.03
-32.45
-36.87
-42.53
-49.20
-56.00
-61.43
-63.74
-61.49
-54.07
-42.07
-27.12
-11.39
3.10
14.97
23.69
29.42
32.66
33.96
33.75
32.38
30.22
27.64
25.06
22.81
21.12
20.10
19.74
20.03
20.87
22.14
23.61
24.98
25.90
26.11
25.45
23.96
21.78
19.14
16.22
13.10
9.76
6.13
2.15
-2.15
-6.59
-10.92
-14.90
-18.38
-21.41
-24.25
-27.32
-31.09
-35.91
-41.69
-47.79
-53.01
-55.83
-54.94
-49.68
-40.31
-27.99
-14.44
-1.35
9.94
18.73
24.81
28.29
29.45
28.64
26.29
22.93
19.14
15.48
12.40
10.19
8.94
8.59
8.97
9.88
11.09
12.47
13.95
15.45
16.86
17.89
18.12
17.15
14.69
10.81
5.89
0.54
-4.59
-9.07
-12.82
-16.09
-19.42
-23.39
-28.45
-34.69
-41.73
-48.58
-53.82
-55.88
-53.57
-46.54
-35.50
-22.08
-8.30
4.05
13.86
20.86
25.37
27.89
28.84
28.44
26.82
24.21
21.02
17.80
15.09
13.31
12.60
12.87
13.87
15.26
16.74
18.10
19.23
20.07
20.50
20.34
19.35
17.31
14.13
9.94
5.05
-0.16
-5.32
-10.24
-14.82
-19.15
-23.38
-27.80
-32.70
-38.39
-44.92
-51.96
-58.59
-63.36
-64.72
-61.43
-53.17
-40.72
-25.81
-10.58
3.06
13.90
21.63
26.61
29.51
30.95
31.38
31.04
30.17
29.05
27.98
27.20
26.80
26.73
26.81
26.93
27.08
27.37
27.95
28.84
29.90
30.77
30.98
30.10
27.95
24.66
20.66
16.54
12.77
9.61
6.91
4.27
1.21
-2.62
-7.18
-12.15
-16.99
-21.21
-24.60
-27.33
-29.92
-33.05
-37.35
-43.13
-50.15
-57.49
-63.66
-66.90
-65.75
-59.49
-48.49
-34.17
-18.56
-3.76
8.65
17.88
23.95
27.37
28.86
29.14
28.79
28.25
27.83
27.66
27.75
28.01
28.32
28.61
28.87
29.16
29.56
30.14
30.91
31.81
32.70
33.36
33.51
32.86
31.19
28.48
24.91
20.88
16.85
13.19
10.09
7.48
5.08
2.52
-0.53
-4.22
-8.48
-13.02
-17.46
-21.44
-24.80
-27.57
-30.05
-32.71
-36.07
-40.54
-46.24
-52.80
-59.28
-64.23
-66.01
-63.33
-55.73
-43.78
-29.09
-13.74
0.29
11.66
19.88
25.21
28.27
29.76
30.20
29.92
29.12
28.04
26.95
26.13
25.83
26.13
26.96
28.12
29.37
30.49
31.39
32.03
32.47
32.71
32.69
32.25
31.15
29.19
26.31
22.62
18.46
14.27
10.50
7.42
5.03
3.04
1.05
-1.39
-4.50
-8.27
-12.35
-16.26
-19.59
-22.15
-24.13
-26.03
-28.47
-31.95
-36.73
-42.67
-49.27
-55.57
-60.33
-62.18
-60.01
-53.35
-42.67
-29.31
-15.17
-2.13
8.46
16.02
20.74
23.24
24.19
24.13
23.41
22.26
20.86
19.47
18.37
17.79
17.89
18.65
19.94
21.58
23.41
25.27
27.05
28.60
29.66
29.93
29.11
27.10
24.00
20.21
16.24
12.57
9.47
6.91
4.65
2.31
-0.40
-3.59
-7.10
-10.66
-13.97
-16.82
-19.24
-21.46
-23.88
-26.94
-31.00
-36.13
-41.93
-47.45
-51.32
-52.12
-48.79
-41.19
-30.11
-17.20
-4.31
6.95
15.69
21.74
25.44
27.29
27.65
26.76
24.79
21.98
18.73
15.53
12.83
10.96
10.08
10.15
11.01
12.40
14.03
15.60
16.88
17.71
18.00
17.68
16.71
14.98
12.47
9.17
5.22
0.86
-3.59
-7.80
-11.58
-14.84
-17.69
-20.35
-23.13
-26.35
-30.29
-35.08
-40.57
-46.12
-50.69
-52.96
-51.77
-46.53
-37.49
-25.77
-13.00
-0.83
9.47
17.21
22.27
24.95
25.74
25.19
23.81
21.95
19.80
17.44
15.00
12.64
10.72
9.58
9.51
10.53
12.39
14.62
16.71
18.21
18.84
18.50
17.27
15.31
12.84
10.04
7.01
3.80
0.36
-3.33
-7.29
-11.44
-15.60
-19.51
-22.91
-25.67
-27.91
-30.01
-32.53
-36.04
-40.78
-46.45
-52.13
-56.37
-57.63
-54.80
-47.59
-36.68
-23.56
-10.08
2.10
11.88
18.89
23.34
25.74
26.67
26.56
25.77
24.57
23.26
22.10
21.36
21.17
21.49
22.14
22.93
23.70
24.42
25.16
26.01
26.93
27.67
27.88
27.20
25.44
22.63
19.05
15.12
11.29
7.85
4.92
2.32
-0.29
-3.38
-7.21
-11.77
-16.66
-21.29
-25.11
-27.93
-29.97
-31.86
-34.34
-38.04
-43.22
-49.61
-56.44
-62.42
-65.98
-65.63
-60.47
-50.53
-36.92
-21.57
-6.64
6.11
15.74
22.21
26.04
27.96
28.58
28.36
27.59
26.57
25.57
24.85
24.54
24.65
25.14
25.89
26.82
27.89
29.09
30.37
31.67
32.82
33.62
33.79
33.06
31.26
28.37
24.59
20.32
16.01
12.05
8.68
5.85
3.27
0.60
-2.48
-6.08
-10.04
-14.06
-17.77
-20.94
-23.55
-25.78
-27.95
-30.46
-33.75
-38.14
-43.80
-50.45
-57.27
-62.83
-65.47
-63.72
-56.94
-45.65
-31.38
-16.24
-2.20
9.42
18.16
24.23
28.11
30.26
31.01
30.62
29.44
27.92
26.55
25.67
25.38
25.57
26.02
26.60
27.29
28.17
29.32
30.68
32.08
33.20
33.71
33.32
31.86
29.35
25.96
22.04
18.03
14.30
11.07
8.32
5.83
3.26
0.32
-3.12
-6.98
-10.98
-14.78
-18.12
-20.90
-23.34
-25.84
-28.94
-33.10
-38.48
-44.74
-50.97
-55.82
-57.80
-55.76
-49.24
-38.73
-25.57
-11.53
1.62
12.60
20.81
26.24
29.26
30.34
29.97
28.52
26.41
24.01
21.73
19.90
18.72
18.26
18.47
19.19
20.26
21.50
22.77
23.87
24.61
24.82
24.33
23.10
21.19
18.72
15.81
12.54
8.91
4.93
0.68
-3.65
-7.77
-11.44
-14.55
-17.16
-19.56
-22.11
-25.21
-29.18
-34.08
-39.58
-44.86
-48.71
-49.77
-47.02
-40.16
-29.78
-17.31
-4.53
6.88
15.84
21.97
25.54
27.12
27.32
26.60
25.16
23.13
20.64
17.97
15.51
13.71
12.88
13.07
14.13
15.71
17.41
18.91
20.03
20.66
20.76
20.24
18.95
16.74
13.51
9.33
4.44
-0.75
-5.75
-10.16
-13.80
-16.77
-19.37
-22.02
-25.12
-28.98
-33.76
-39.33
-45.25
-50.63
-54.29
-54.95
-51.67
-44.24
-33.32
-20.33
-7.06
4.84
14.27
20.84
24.77
26.61
27.00
26.46
25.39
24.12
22.94
22.11
21.77
21.91
22.37
22.90
23.35
23.66
23.98
24.45
25.14
25.92
26.47
26.43
25.47
23.49
20.59
17.07
13.29
9.54
5.95
2.49
-0.96
-4.52
-8.18
-11.84
-15.36
-18.59
-21.48
-24.12
-26.69
-29.47
-32.77
-36.86
-41.87
-47.53
-53.12
-57.39
-58.88
-56.39
-49.45
-38.59
-25.27
-11.42
1.14
11.17
18.25
22.62
24.94
25.90
26.09
25.88
25.48
24.99
24.49
24.03
23.65
23.36
23.18
23.12
23.23
23.57
24.18
25.05
26.08
27.09
27.83
28.06
27.59
26.31
24.21
21.40
18.05
14.46
10.94
7.78
5.08
2.76
0.54
-1.93
-4.89
-8.41
-12.28
-16.13
-19.62
-22.54
-24.93
-27.10
-29.50
-32.62
-36.82
-42.15
-48.28
-54.39
-59.27
-61.52
-59.95
-53.99
-44.00
-31.22
-17.47
-4.58
6.11
14.04
19.34
22.50
24.09
24.57
24.27
23.49
22.53
21.75
21.41
21.65
22.45
23.64
25.02
26.38
27.55
28.45
29.11
29.57
29.90
30.07
29.95
29.34
28.04
25.96
23.13
19.76
16.11
12.51
9.21
6.36
3.96
1.87
-0.17
-2.42
-5.06
-8.13
-11.53
-15.05
-18.49
-21.69
-24.61
-27.37
-30.25
-33.63
-37.91
-43.20
-49.13
-54.80
-58.81
-59.75
-56.60
-49.15
-38.17
-25.17
-11.91
0.03
9.67
16.62
21.04
23.32
24.00
23.59
22.56
21.35
20.30
19.62
19.40
19.63
20.23
21.11
22.18
23.39
24.68
26.00
27.28
28.42
29.23
29.48
28.89
27.30
24.68
21.24
17.36
13.49
9.99
7.02
4.51
2.20
-0.20
-2.93
-6.04
-9.36
-12.59
-15.40
-17.58
-19.18
-20.49
-22.05
-24.50
-28.31
-33.57
-39.76
-45.82
-50.25
-51.61
-48.97
-42.25
-32.27
-20.50
-8.59
2.05
10.57
16.68
20.54
22.53
23.08
22.57
21.28
19.46
17.32
15.13
13.19
11.87
11.46
12.09
13.60
15.63
17.71
19.37
20.41
20.76
20.50
19.71
18.42
16.60
14.17
11.13
7.56
3.59
-0.59
-4.76
-8.69
-12.19
-15.13
-17.55
-19.64
-21.75
-24.31
-27.68
-31.97
-36.84
-41.49
-44.75
-45.43
-42.65
-36.29
-26.97
-16.02
-4.98
4.77
12.40
17.67
20.77
22.11
22.10
21.09
19.36
17.21
14.99
13.05
11.65
10.92
10.82
11.24
11.99
12.94
13.94
14.87
15.60
16.01
15.95
15.30
13.92
11.70
8.62
4.78
0.45
-3.94
-8.01
-11.50
-14.44
-17.13
-20.05
-23.66
-28.30
-33.99
-40.41
-46.77
-51.93
-54.55
-53.50
-48.23
-39.06
-27.15
-14.23
-2.04
8.14
15.73
20.76
23.68
25.01
25.21
24.60
23.51
22.22
21.03
20.11
19.55
19.33
19.38
19.67
20.20
20.95
21.86
22.77
23.46
23.71
23.36
22.37
20.79
18.73
16.30
13.55
10.46
7.01
3.15
-1.07
-5.50
-9.92
-14.05
-17.69
-20.77
-23.39
-25.87
-28.62
-32.10
-36.64
-42.23
-48.40
-54.13
-58.02
-58.65
-55.04
-47.07
-35.60
-22.25
-8.94
2.72
11.79
18.09
22.01
24.16
25.13
25.33
25.04
24.50
23.96
23.62
23.64
24.02
24.67
25.48
26.35
27.24
28.18
29.17
30.16
31.02
31.53
31.44
30.51
28.62
25.83
22.37
18.57
14.83
11.43
8.49
5.95
3.59
1.16
-1.55
-4.65
-8.08
-11.66
-15.10
-18.21
-20.90
-23.30
-25.68
-28.39
-31.80
-36.15
-41.54
-47.78
-54.24
-59.82
-63.12
-62.76
-57.91
-48.67
-36.13
-22.10
-8.51
3.15
12.12
18.38
22.37
24.68
25.82
26.17
26.00
25.57
25.12
24.81
24.78
25.03
25.53
26.21
26.98
27.78
28.55
29.23
29.76
30.04
30.01
29.57
28.65
27.13
24.98
22.19
18.88
15.29
11.74
8.50
5.67
3.15
0.64
-2.16
-5.42
-9.04
-12.72
-16.08
-18.86
-21.07
-22.94
-24.92
-27.42
-30.82
-35.24
-40.50
-46.00
-50.75
-53.48
-52.98
-48.53
-40.19
-28.91
-16.24
-3.91
6.70
14.83
20.35
23.58
25.02
25.15
24.41
23.19
21.84
20.65
19.80
19.36
19.30
19.55
20.10
20.99
22.24
23.82
25.50
26.93
27.69
27.47
26.13
23.82
20.86
17.59
14.25
10.89
7.43
3.79
-0.02
-3.89
-7.61
-11.00
-13.92
-16.38
-18.47
-20.46
-22.66
-25.49
-29.28
-34.04
-39.30
-44.04
-46.93
-46.71
-42.66
-34.94
-24.51
-12.89
-1.66
7.94
15.23
20.09
22.77
23.66
23.20
21.74
19.65
17.29
15.07
13.33
12.34
12.21
12.85
14.02
15.40
16.69
17.70
18.37
18.73
18.75
18.36
17.36
15.49
12.62
8.83
4.45
-0.07
-4.24
-7.79
-10.70
-13.20
-15.62
-18.32
-21.60
-25.68
-30.66
-36.34
-42.07
-46.74
-49.03
-47.82
-42.61
-33.82
-22.68
-10.76
0.45
9.94
17.26
22.39
25.53
26.96
26.98
25.99
24.42
22.73
21.23
20.14
19.49
19.27
19.47
20.10
21.12
22.43
23.77
24.83
25.32
25.08
24.16
22.68
20.83
18.71
16.29
13.45
10.09
6.21
1.92
-2.56
-6.97
-11.07
-14.74
-17.97
-20.88
-23.71
-26.78
-30.45
-34.97
-40.37
-46.24
-51.70
-55.42
-56.04
-52.60
-44.93
-33.82
-20.86
-7.90
3.44
12.19
18.10
21.55
23.19
23.70
23.64
23.38
23.09
22.89
22.82
22.94
23.30
23.91
24.71
25.55
26.33
26.95
27.46
27.88
28.20
28.30
27.90
26.75
24.71
21.87
18.49
14.96
11.67
8.87
6.55
4.47
2.22
-0.61
-4.22
-8.44
-12.82
-16.78
-19.89
-22.09
-23.65
-25.11
-27.07
-29.94
-33.97
-39.09
-44.89
-50.55
-54.84
-56.37
-54.02
-47.36
-36.95
-24.23
-11.11
0.64
9.85
16.23
20.14
22.31
23.44
24.00
24.24
24.25
24.16
24.07
24.16
24.50
25.02
25.58
26.00
26.18
26.16
26.11
26.20
26.48
26.89
27.14
26.88
25.83
23.84
20.98
17.53
13.91
10.56
7.78
5.62
3.89
2.18
0.07
-2.72
-6.16
-9.97
-13.73
-17.07
-19.82
-22.07
-24.14
-26.53
-29.69
-33.98
-39.38
-45.40
-51.07
-55.05
-56.00
-53.03
-45.99
-35.61
-23.31
-10.76
0.58
9.75
16.36
20.52
22.58
23.03
22.34
20.99
19.38
17.82
16.51
15.53
14.83
14.41
14.27
14.48
15.15
16.27
17.72
19.22
20.40
20.94
20.64
19.48
17.61
15.26
12.65
9.93
7.11
4.14
0.93
-2.49
-6.03
-9.51
-12.74
-15.58
-18.04
-20.29
-22.66
-25.55
-29.32
-34.03
-39.32
-44.30
-47.78
-48.52
-45.66
-39.07
-29.47
-18.19
-6.84
3.21
11.09
16.56
19.86
21.50
21.97
21.62
20.61
19.04
17.07
14.96
13.07
11.74
11.16
11.32
12.04
13.03
14.07
15.01
15.76
16.27
16.41
15.99
14.81
12.70
9.61
5.63
1.00
-3.89
-8.60
-12.70
-15.98
-18.46
-20.49
-22.64
-25.50
-29.51
-34.67
-40.44
-45.75
-49.21
-49.54
-45.94
-38.40
-27.78
-15.55
-3.36
7.37
15.75
21.47
24.74
26.00
25.77
24.55
22.74
20.66
18.58
16.74
15.31
14.46
14.26
14.76
15.84
17.31
18.92
20.37
21.42
21.89
21.65
20.66
18.93
16.56
13.66
10.33
6.64
2.63
-1.59
-5.92
-10.17
-14.14
-17.74
-20.96
-23.97
-27.05
-30.58
-34.83
-39.94
-45.63
-51.17
-55.34
-56.80
-54.43
-47.87
-37.69
-25.29
-12.47
-0.83
8.62
15.59
20.33
23.31
24.98
25.69
25.73
25.41
25.04
24.88
25.05
25.48
25.97
26.32
26.43
26.36
26.26
26.28
26.48
26.79
27.00
26.82
25.95
24.19
21.52
18.14
14.38
10.70
7.43
4.73
2.47
0.32
-2.12
-5.11
-8.65
-12.49
-16.22
-19.47
-22.09
-24.21
-26.21
-28.61
-31.94
-36.51
-42.30
-48.78
-54.89
-59.17
-60.13
-56.77
-48.92
-37.41
-23.88
-10.19
2.05
11.87
19.01
23.66
26.25
27.29
27.23
26.53
25.60
24.75
24.18
23.95
24.07
24.52
25.33
26.44
27.76
29.05
30.05
30.53
30.45
29.92
29.13
28.21
27.14
25.73
23.76
21.09
17.83
14.31
11.01
8.25
6.13
4.44
2.76
0.70
-1.97
-5.22
-8.79
-12.37
-15.68
-18.61
-21.21
-23.70
-26.40
-29.66
-33.83
-39.00
-44.94
-50.97
-55.94
-58.51
-57.46
-52.17
-42.85
-30.60
-17.09
-4.08
7.01
15.45
21.17
24.52
26.06
26.33
25.76
24.72
23.49
22.31
21.38
20.80
20.63
20.86
21.43
22.25
23.24
24.31
25.42
26.53
27.58
28.46
28.91
28.61
27.31
24.92
21.56
17.63
13.61
9.97
6.96
4.59
2.62
0.70
-1.48
-4.09
-7.12
-10.38
-13.65
-16.74
-19.56
-22.13
-24.56
-27.09
-30.00
-33.57
-37.99
-43.11
-48.28
-52.40
-54.08
-52.16
-46.11
-36.35
-24.18
-11.35
0.42
9.99
16.91
21.38
23.87
24.89
24.82
23.91
22.37
20.50
18.64
17.15
16.25
16.00
16.29
16.93
17.78
18.78
19.95
21.29
22.70
23.90
24.49
24.08
22.48
19.81
16.47
13.02
9.92
7.39
5.35
3.51
1.52
-0.84
-3.61
-6.67
-9.83
-12.94
-15.88
-18.65
-21.29
-23.97
-26.94
-30.48
-34.72
-39.40
-43.79
-46.76
-47.09
-43.88
-36.98
-27.05
-15.48
-3.88
6.35
14.29
19.70
22.79
24.03
23.94
22.90
21.20
19.06
16.70
14.40
12.46
11.19
10.70
10.96
11.74
12.73
13.61
14.22
14.49
14.49
14.29
13.88
13.15
11.92
10.00
7.27
3.80
-0.18
-4.36
-8.38
-11.99
-15.14
-17.97
-20.76
-23.88
-27.60
-32.01
-36.90
-41.72
-45.54
-47.26
-45.91
-40.97
-32.67
-21.99
-10.41
0.48
9.47
15.92
19.84
21.65
21.93
21.17
19.70
17.71
15.36
12.88
10.58
8.77
7.74
7.58
8.24
9.54
11.22
13.02
14.70
16.04
16.88
17.09
16.59
15.34
13.31
10.48
6.86
2.57
-2.13
-6.88
-11.29
-15.12
-18.33
-21.18
-24.08
-27.51
-31.78
-36.94
-42.69
-48.35
-52.91
-55.18
-54.13
-49.26
-40.78
-29.64
-17.34
-5.45
4.79
12.69
18.15
21.50
23.24
23.88
23.79
23.29
22.58
21.81
21.10
20.55
20.27
20.32
20.75
21.47
22.32
23.08
23.55
23.63
23.33
22.64
21.56
19.97
17.76
14.91
11.57
8.01
4.50
1.12
-2.20
-5.64
-9.30
-13.11
-16.80
-20.07
-22.81
-25.15
-27.49
-30.38
-34.28
-39.30
-45.08
-50.66
-54.71
-55.83
-53.02
-46.07
-35.70
-23.35
-10.83
0.28
8.98
15.02
18.71
20.69
21.60
21.95
22.04
22.02
21.99
22.04
22.31
22.88
23.81
25.04
26.44
27.88
29.27
30.56
31.68
32.57
33.05
32.93
31.98
30.09
27.30
23.81
19.94
16.06
12.49
9.38
6.70
4.21
1.61
-1.36
-4.81
-8.59
-12.38
-15.82
-18.70
-21.02
-23.07
-25.32
-28.30
-32.43
-37.82
-44.10
-50.40
-55.44
-57.79
-56.30
-50.56
-41.02
-28.99
-16.23
-4.46
5.15
12.12
16.69
19.42
20.96
21.79
22.18
22.22
22.00
21.63
21.30
21.21
21.49
22.18
23.20
24.41
25.65
26.78
27.70
28.23
28.16
27.30
25.58
23.10
20.11
16.91
13.73
10.63
7.50
4.25
0.87
-2.50
-5.64
-8.37
-10.65
-12.61
-14.48
-16.58
-19.22
-22.69
-27.11
-32.24
-37.36
-41.32
-42.82
-40.88
-35.22
-26.44
-15.82
-4.96
4.71
12.31
17.57
20.68
22.09
22.27
21.59
20.27
18.50
16.52
14.69
13.42
13.04
13.63
14.97
16.60
18.03
18.94
19.29
19.27
19.11
18.92
18.53
17.61
15.79
12.83
8.82
4.12
-0.70
-5.10
-8.74
-11.63
-14.10
-16.64
-19.76
-23.80
-28.77
-34.23
-39.31
-42.87
-43.74
-41.13
-34.90
-25.72
-14.91
-4.00
5.67
13.28
18.65
22.04
23.95
24.86
25.12
24.94
24.50
23.94
23.42
23.04
22.89
22.95
23.18
23.51
23.90
24.34
24.79
25.14
25.18
24.68
23.41
21.36
18.64
15.53
12.33
9.17
6.09
3.00
-0.23
-3.60
-7.03
-10.38
-13.50
-16.36
-18.98
-21.49
-24.10
-27.02
-30.49
-34.63
-39.26
-43.76
-47.06
-47.97
-45.49
-39.30
-29.98
-18.84
-7.51
2.58
10.53
16.13
19.61
21.46
22.15
22.08
21.62
21.13
20.92
21.18
21.92
22.97
24.07
25.00
25.64
26.01
26.23
26.38
26.52
26.62
26.60
26.34
25.72
24.63
22.99
20.81
18.17
15.24
12.24
9.35
6.74
4.47
2.54
0.86
-0.76
-2.54
-4.70
-7.35
-10.45
-13.79
-17.05
-19.97
-22.44
-24.56
-26.63
-29.06
-32.27
-36.46
-41.45
-46.55
-50.64
-52.37
-50.62
-44.97
-35.85
-24.50
-12.59
-1.65
7.22
13.61
17.66
19.81
20.61
20.55
20.00
19.25
18.54
18.05
17.91
18.14
18.74
19.61
20.65
21.77
22.89
23.93
24.79
25.34
25.48
25.16
24.41
23.29
21.85
20.06
17.89
15.33
12.48
9.59
6.92
4.68
2.93
1.50
0.12
-1.50
-3.55
-6.03
-8.79
-11.60
-14.22
-16.54
-18.57
-20.50
-22.54
-24.99
-28.03
-31.78
-36.13
-40.71
-44.75
-47.23
-47.10
-43.62
-36.77
-27.29
-16.58
-6.17
2.69
9.35
13.78
16.35
17.58
17.90
17.61
16.92
15.99
14.99
14.11
13.48
13.19
13.27
13.65
14.23
14.87
15.55
16.24
16.96
17.67
18.16
18.13
17.28
15.44
12.78
9.68
6.62
3.99
1.89
0.19
-1.42
-3.23
-5.38
-7.83
-10.36
-12.72
-14.74
-16.42
-17.91
-19.53
-21.63
-24.48
-28.16
-32.42
-36.61
-39.81
-41.02
-39.44
-34.80
-27.51
-18.56
-9.22
-0.68
6.25
11.29
14.54
16.36
17.08
16.97
16.19
14.91
13.33
11.68
10.24
9.24
8.85
9.08
9.79
10.76
11.74
12.54
13.06
13.27
13.20
12.77
11.91
10.48
8.41
5.71
2.52
-0.96
-4.47
-7.78
-10.69
-13.13
-15.13
-16.93
-18.84
-21.17
-24.16
-27.88
-32.14
-36.51
-40.24
-42.40
-42.06
-38.64
-32.11
-23.20
-13.18
-3.52
4.58
10.51
14.27
16.25
16.96
16.84
16.20
15.32
14.42
13.67
13.14
12.79
12.53
12.34
12.31
12.63
13.41
14.62
16.02
17.24
17.89
17.74
16.75
15.08
12.97
10.64
8.25
5.85
3.41
0.81
-2.03
-5.20
-8.70
-12.41
-16.10
-19.47
-22.30
-24.56
-26.51
-28.64
-31.54
-35.55
-40.48
-45.57
-49.59
-51.21
-49.42
-43.91
-35.15
-24.33
-12.95
-2.43
6.26
12.70
16.93
19.34
20.37
20.40
19.75
18.78
17.82
17.13
16.90
17.08
17.53
18.04
18.51
18.96
19.49
20.19
21.02
21.84
22.40
22.39
21.57
19.86
17.31
14.22
10.96
7.91
5.25
2.95
0.69
-1.88
-5.00
-8.65
-12.50
-16.10
-19.10
-21.43
-23.35
-25.40
-28.18
-32.07
-37.10
-42.83
-48.35
-52.49
-54.05
-52.19
-46.68
-38.00
-27.29
-16.01
-5.55
3.09
9.46
13.69
16.20
17.50
18.03
18.11
17.89
17.48
17.01
16.56
16.32
16.40
16.90
17.88
19.27
20.93
22.68
24.31
25.61
26.40
26.54
25.97
24.69
22.79
20.33
17.38
13.96
10.10
5.88
1.47
-2.86
-6.81
-10.27
-13.27
-16.09
-19.11
-22.75
-27.23
-32.50
-38.15
-43.34
-47.04
-48.15
-45.95
-40.28
-31.65
-21.16
-10.12
0.20
8.90
15.56
20.10
22.75
23.81
23.55
22.18
19.91
16.99
13.82
10.85
8.56
7.26
7.05
7.77
9.14
10.87
12.72
14.53
16.13
17.27
17.63
16.87
14.80
11.43
7.09
2.30
-2.38
-6.55
-10.10
-13.25
-16.44
-20.16
-24.78
-30.32
-36.41
-42.22
-46.64
-48.50
-46.92
-41.60
-32.98
-22.16
-10.58
0.36
9.65
16.80
21.74
24.65
25.81
25.49
24.01
21.78
19.28
16.96
15.20
14.16
13.83
14.06
14.67
15.48
16.38
17.28
18.03
18.40
18.08
16.76
14.24
10.57
6.02
1.03
-4.01
-8.86
-13.53
-18.27
-23.44
-29.32
-35.99
-43.17
-50.15
-55.78
-58.75
-57.88
-52.60
-43.22
-30.92
-17.50
-4.75
5.93
13.87
19.15
22.23
23.76
24.31
24.20
23.61
22.56
21.12
19.40
17.66
16.21
15.32
15.18
15.77
16.92
18.38
19.80
20.82
21.10
20.37
18.46
15.46
11.60
7.30
2.91
-1.34
-5.54
-10.04
-15.31
-21.76
-29.41
-37.68
-45.38
-50.91
-52.71
-49.79
-42.10
-30.63
-17.16
-3.66
8.17
17.30
23.47
27.02
28.61
28.95
28.57
27.86
26.97
25.94
24.77
23.47
22.10
20.82
19.81
19.24
19.17
19.45
19.76
19.65
18.75
16.86
14.08
10.69
7.01
3.26
-0.53
-4.47
-8.79
-13.68
-19.33
-25.84
-33.01
-40.17
-46.11
-49.24
-48.09
-41.93
-31.19
-17.48
-3.02
10.06
20.39
27.62
32.18
34.80
36.12
36.45
35.93
34.70
33.06
31.50
30.45
30.12
30.45
31.12
31.74
32.09
32.12
31.98
31.84
31.79
31.62
30.96
29.33
26.39
22.09
16.71
10.82
5.04
-0.13
-4.49
-8.20
-11.66
-15.39
-19.89
-25.42
-31.94
-38.99
-45.60
-50.41
-52.01
-49.36
-42.25
-31.49
-18.64
-5.60
6.02
15.29
21.98
26.36
28.90
30.00
29.99
29.15
27.81
26.34
25.11
24.39
24.30
24.76
25.55
26.40
27.07
27.47
27.62
27.65
27.64
27.54
27.14
26.11
24.14
21.08
17.06
12.44
7.71
3.34
-0.43
-3.59
-6.45
-9.48
-13.17
-17.81
-23.41
-29.49
-35.19
-39.33
-40.73
-38.61
-32.81
-23.98
-13.36
-2.46
7.37
15.26
20.93
24.47
26.20
26.45
25.47
23.54
21.02
18.35
15.96
14.21
13.27
13.09
13.46
14.08
14.72
15.23
15.64
16.03
16.46
16.86
16.93
16.28
14.56
11.64
7.71
3.25
-1.20
-5.21
-8.60
-11.55
-14.47
-17.84
-22.01
-26.96
-32.24
-36.94
-39.91
-40.07
-36.86
-30.41
-21.59
-11.76
-2.31
5.68
11.69
15.73
18.16
19.43
19.90
19.80
19.24
18.30
17.12
15.88
14.82
14.18
14.08
14.55
15.43
16.45
17.32
17.80
17.79
17.34
16.51
15.40
14.00
12.23
9.95
7.10
3.74
0.11
-3.47
-6.66
-9.29
-11.35
-13.03
-14.66
-16.58
-19.04
-22.20
-26.09
-30.54
-35.11
-39.10
-41.55
-41.50
-38.31
-31.94
-23.07
-12.97
-3.08
5.37
11.70
15.81
18.02
18.86
18.83
18.35
17.67
16.98
16.41
15.99
15.74
15.59
15.49
15.41
15.41
15.58
15.99
16.65
17.41
18.05
18.32
17.97
16.89
15.11
12.80
10.22
7.64
5.26
3.15
1.21
-0.78
-3.08
-5.85
-9.07
-12.55
-15.97
-19.03
-21.59
-23.74
-25.77
-28.08
-30.99
-34.58
-38.55
-42.20
-44.56
-44.60
-41.67
-35.64
-27.15
-17.32
-7.52
1.08
7.76
12.38
15.20
16.65
17.18
17.11
16.67
16.00
15.26
14.58
14.08
13.82
13.80
13.92
14.03
14.02
13.84
13.57
13.41
13.54
13.99
14.61
15.10
15.06
14.26
12.64
10.37
7.80
5.24
2.90
0.83
-1.08
-2.98
-5.00
-7.16
-9.41
-11.64
-13.75
-15.71
-17.53
-19.27
-21.04
-22.99
-25.31
-28.17
-31.60
-35.37
-38.85
-41.16
-41.37
-38.84
-33.48
-25.82
-16.87
-7.84
0.20
6.54
10.91
13.41
14.41
14.40
13.83
13.07
12.30
11.60
10.95
10.35
9.87
9.64
9.72
10.10
10.70
11.40
12.12
12.85
13.56
14.08
14.18
13.55
12.05
9.80
7.19
4.66
2.53
0.78
-0.88
-2.81
-5.25
-8.15
-11.18
-13.92
-16.09
-17.63
-18.75
-19.85
-21.36
-23.56
-26.44
-29.61
-32.38
-33.88
-33.33
-30.32
-24.95
-17.89
-10.13
-2.71
3.56
8.28
11.41
13.20
13.92
13.77
12.87
11.33
9.32
7.17
5.29
4.10
3.83
4.41
5.62
7.05
8.40
9.49
10.29
10.82
11.07
10.94
10.24
8.77
6.46
3.38
-0.19
-3.90
-7.38
-10.41
-12.92
-15.05
-17.03
-19.15
-21.64
-24.65
-28.14
-31.86
-35.24
-37.50
-37.79
-35.52
-30.58
-23.49
-15.25
-7.05
0.15
5.80
9.85
12.50
14.06
14.78
14.76
14.09
12.91
11.43
9.91
8.61
7.68
7.18
7.04
7.16
7.43
7.81
8.29
8.83
9.35
9.66
9.54
8.78
7.27
5.03
2.19
-1.03
-4.40
-7.67
-10.64
-13.22
-15.46
-17.60
-20.05
-23.20
-27.29
-32.18
-37.28
-41.68
-44.32
-44.30
-41.23
-35.24
-27.08
-17.78
-8.50
-0.17
6.59
11.54
14.76
16.51
17.15
17.02
16.41
15.57
14.65
13.81
13.08
12.50
12.06
11.77
11.67
11.84
12.33
13.13
14.11
15.04
15.61
15.60
14.89
13.53
11.72
9.69
7.59
5.44
3.16
0.59
-2.33
-5.55
-8.92
-12.20
-15.22
-17.93
-20.40
-22.86
-25.57
-28.81
-32.70
-37.12
-41.60
-45.32
-47.28
-46.56
-42.70
-35.84
-26.74
-16.61
-6.68
2.06
9.02
14.03
17.20
18.80
19.20
18.78
17.98
17.22
16.79
16.81
17.22
17.81
18.36
18.72
18.84
18.81
18.78
18.84
19.08
19.43
19.68
19.57
18.82
17.32
15.13
12.54
9.86
7.34
5.01
2.74
0.33
-2.39
-5.42
-8.59
-11.69
-14.56
-17.11
-19.45
-21.79
-24.41
-27.62
-31.61
-36.28
-41.18
-45.44
-47.93
-47.57
-43.75
-36.56
-26.91
-16.23
-6.06
2.45
8.76
12.93
15.39
16.63
17.02
16.80
16.16
15.29
14.44
13.87
13.71
13.99
14.63
15.53
16.65
17.94
19.38
20.85
22.16
23.05
23.29
22.79
21.53
19.63
17.20
14.35
11.17
7.76
4.24
0.79
-2.44
-5.36
-7.98
-10.43
-12.90
-15.62
-18.84
-22.80
-27.50
-32.66
-37.58
-41.26
-42.62
-40.87
-35.86
-28.07
-18.57
-8.65
0.58
8.35
14.33
18.52
21.07
22.18
22.09
21.03
19.32
17.29
15.31
13.72
12.78
12.58
13.05
13.96
15.05
16.11
17.03
17.82
18.48
18.97
19.11
18.61
17.23
14.80
11.40
7.31
2.98
-1.19
-4.87
-8.01
-10.78
-13.52
-16.64
-20.49
-25.15
-30.37
-35.45
-39.37
-41.01
-39.52
-34.60
-26.72
-16.98
-6.78
2.61
10.33
16.12
20.13
22.69
24.09
24.50
23.98
22.59
20.50
18.06
15.72
13.92
12.98
12.98
13.77
15.00
16.25
17.25
17.90
18.26
18.41
18.27
17.59
16.03
13.36
9.63
5.15
0.47
-3.92
-7.69
-10.78
-13.38
-15.89
-18.77
-22.50
-27.33
-33.17
-39.40
-44.91
-48.30
-48.37
-44.48
-36.90
-26.70
-15.45
-4.64
4.68
12.08
17.59
21.49
24.02
25.37
25.71
25.32
24.61
23.97
23.67
23.74
23.99
24.18
24.22
24.22
24.43
25.11
26.26
27.64
28.77
29.15
28.46
26.64
23.90
20.64
17.26
14.06
11.13
8.36
5.53
2.43
-1.04
-4.81
-8.63
-12.20
-15.35
-18.06
-20.54
-23.18
-26.42
-30.59
-35.72
-41.36
-46.60
-50.19
-50.89
-47.82
-40.87
-30.75
-18.81
-6.68
4.19
12.84
18.95
22.73
24.72
25.53
25.67
25.54
25.34
25.18
25.13
25.20
25.41
25.75
26.21
26.79
27.49
28.29
29.19
30.11
30.90
31.34
31.21
30.30
28.52
25.96
22.87
19.56
16.36
13.51
11.07
8.92
6.78
4.33
1.32
-2.29
-6.29
-10.27
-13.81
-16.61
-18.66
-20.27
-21.95
-24.27
-27.64
-32.21
-37.72
-43.52
-48.50
-51.40
-51.08
-46.95
-39.23
-28.90
-17.46
-6.41
3.11
10.54
15.85
19.32
21.33
22.27
22.46
22.20
21.76
21.39
21.25
21.45
21.98
22.75
23.66
24.58
25.42
26.19
26.95
27.72
28.42
28.85
28.71
27.70
25.72
22.85
19.40
15.78
12.36
9.30
6.54
3.85
0.98
-2.21
-5.64
-9.06
-12.20
-14.88
-17.07
-18.89
-20.64
-22.63
-25.14
-28.35
-32.17
-36.17
-39.54
-41.30
-40.56
-36.84
-30.30
-21.70
-12.19
-2.95
5.07
11.35
15.74
18.35
19.45
19.37
18.46
17.06
15.46
13.89
12.53
11.51
10.96
11.01
11.67
12.84
14.29
15.69
16.77
17.37
17.46
17.13
16.45
15.42
13.96
12.02
9.60
6.84
3.95
1.14
-1.47
-3.84
-6.09
-8.36
-10.79
-13.54
-16.69
-20.31
-24.37
-28.71
-32.94
-36.35
-38.11
-37.45
-33.97
-27.81
-19.73
-10.86
-2.38
4.83
10.35
14.13
16.40
17.44
17.46
16.62
15.08
13.07
10.89
8.89
7.38
6.59
6.57
7.22
8.31
9.55
10.73
11.73
12.53
13.11
13.41
13.23
12.31
10.47
7.72
4.29
0.58
-3.03
-6.26
-9.07
-11.59
-14.08
-16.81
-20.00
-23.78
-28.12
-32.75
-37.08
-40.30
-41.45
-39.84
-35.22
-28.02
-19.18
-9.94
-1.39
5.72
11.10
14.78
16.95
17.83
17.69
16.84
15.67
14.53
13.67
13.09
12.70
12.35
12.04
11.89
12.14
12.90
14.15
15.64
17.03
17.99
18.28
17.82
16.61
14.78
12.47
9.81
6.89
3.78
0.54
-2.74
-5.92
-8.87
-11.55
-14.01
-16.44
-18.98
-21.82
-25.07
-28.79
-32.99
-37.46
-41.72
-44.95
-46.15
-44.49
-39.62
-31.90
-22.36
-12.37
-3.20
4.26
9.71
13.29
15.44
16.68
17.39
17.85
18.15
18.31
18.31
18.21
18.09
18.05
18.14
18.35
18.62
18.95
19.33
19.80
20.36
20.87
21.06
20.67
19.42
17.28
14.40
11.16
7.98
5.21
2.98
1.18
-0.50
-2.42
-4.78
-7.61
-10.72
-13.81
-16.61
-19.04
-21.18
-23.24
-25.52
-28.29
-31.67
-35.54
-39.49
-42.79
-44.54
-43.91
-40.35
-33.90
-25.18
-15.27
-5.41
3.37
10.38
15.42
18.59
20.19
20.57
20.09
19.05
17.79
16.61
15.72
15.23
15.13
15.33
15.71
16.19
16.77
17.47
18.33
19.33
20.32
21.03
21.19
20.55
19.03
16.76
14.05
11.23
8.59
6.22
4.03
1.78
-0.77
-3.77
-7.16
-10.68
-13.96
-16.68
-18.68
-20.13
-21.48
-23.29
-26.00
-29.71
-34.04
-38.21
-41.18
-41.99
-39.99
-35.08
-27.74
-18.93
-9.75
-1.26
5.86
11.26
14.96
17.09
17.86
17.52
16.31
14.53
12.51
10.56
8.99
8.00
7.75
8.29
9.55
11.32
13.26
15.00
16.26
16.91
16.97
16.50
15.58
14.15
12.17
9.63
6.64
3.48
0.46
-2.19
-4.39
-6.25
-8.04
-10.05
-12.51
-15.57
-19.24
-23.38
-27.65
-31.51
-34.21
-34.94
-33.07
-28.41
-21.35
-12.78
-3.89
4.22
10.80
15.60
18.68
20.30
20.71
20.06
18.47
16.09
13.23
10.34
7.88
6.20
5.44
5.51
6.17
7.16
8.24
9.29
10.19
10.79
10.85
10.15
8.58
6.23
3.37
0.35
-2.52
-5.11
-7.48
-9.80
-12.30
-15.28
-18.95
-23.44
-28.58
-33.83
-38.26
-40.76
-40.40
-36.77
-30.21
-21.69
-12.50
-3.82
3.56
9.36
13.66
16.68
18.60
19.54
19.58
18.90
17.75
16.44
15.26
14.38
13.87
13.72
13.89
14.33
14.93
15.57
16.06
16.25
15.98
15.20
13.92
12.11
9.79
6.91
3.47
-0.38
-4.37
-8.14
-11.42
-14.14
-16.53
-18.99
-22.00
-25.87
-30.57
-35.66
-40.39
-43.77
-44.88
-43.10
-38.27
-30.77
-21.49
-11.53
-2.01
6.23
12.70
17.29
20.15
21.61
22.01
21.68
20.94
20.07
19.30
18.81
18.66
18.79
19.10
19.46
19.81
20.17
20.58
21.07
21.54
21.78
21.54
20.61
18.92
16.61
13.94
11.25
8.78
6.56
4.47
2.23
-0.37
-3.35
-6.55
-9.66
-12.42
-14.70
-16.61
-18.43
-20.61
-23.59
-27.66
-32.81
-38.51
-43.79
-47.33
-47.93
-44.90
-38.34
-29.17
-18.80
-8.64
0.25
7.36
12.65
16.33
18.70
20.03
20.57
20.58
20.34
20.13
20.16
20.54
21.21
21.99
22.69
23.15
23.42
23.63
23.99
24.65
25.54
26.38
26.79
26.39
24.99
22.70
19.80
16.70
13.75
11.10
8.67
6.27
3.60
0.48
-3.07
-6.87
-10.57
-13.86
-16.58
-18.76
-20.65
-22.66
-25.24
-28.68
-33.09
-38.12
-42.95
-46.47
-47.49
-45.19
-39.41
-30.77
-20.46
-9.92
-0.38
7.40
13.21
17.19
19.70
21.07
21.60
21.48
20.91
20.13
19.37
18.87
18.81
19.24
20.08
21.15
22.27
23.32
24.24
24.98
25.46
25.52
24.97
23.69
21.73
19.30
16.70
14.17
11.76
9.33
6.65
3.54
-0.03
-3.82
-7.47
-10.65
-13.15
-15.01
-16.47
-17.96
-19.89
-22.60
-26.13
-30.18
-34.11
-37.01
-37.90
-36.09
-31.36
-24.13
-15.30
-6.04
2.49
9.49
14.53
17.61
18.99
19.09
18.34
17.08
15.57
13.93
12.29
10.78
9.62
8.98
9.03
9.73
10.91
12.29
13.59
14.63
15.32
15.62
15.50
14.83
13.48
11.38
8.61
5.46
2.33
-0.38
-2.47
-4.09
-5.60
-7.50
-10.15
-13.72
-18.06
-22.86
-27.61
-31.68
-34.37
-35.00
-33.12
-28.67
-22.09
-14.24
-6.12
1.37
7.64
12.42
15.70
17.60
18.29
17.97
16.90
15.37
13.64
11.91
10.33
9.00
7.99
7.36
7.15
7.32
7.83
8.57
9.40
10.17
10.62
10.51
9.60
7.85
5.37
2.47
-0.49
-3.22
-5.63
-7.82
-10.06
-12.67
-15.92
-19.97
-24.74
-29.88
-34.67
-38.19
-39.44
-37.73
-32.89
-25.42
-16.35
-6.95
1.62
8.62
13.74
17.09
18.98
19.79
19.87
19.49
18.85
18.12
17.42
16.80
16.31
15.92
15.66
15.54
15.57
15.72
15.91
16.00
15.83
15.31
14.42
13.22
11.78
10.15
8.30
6.13
3.62
0.77
-2.30
-5.45
-8.54
-11.48
-14.25
-16.89
-19.46
-22.09
-24.92
-28.13
-31.79
-35.73
-39.44
-42.09
-42.76
-40.73
-35.76
-28.22
-19.02
-9.33
-0.26
7.43
13.35
17.50
20.10
21.45
21.85
21.62
21.03
20.36
19.75
19.26
18.83
18.37
17.85
17.38
17.17
17.39
18.13
19.24
20.42
21.27
21.45
20.75
19.15
16.78
13.92
10.90
8.03
5.52
3.37
1.43
-0.56
-2.82
-5.43
-8.29
-11.13
-13.68
-15.78
-17.43
-18.89
-20.50
-22.67
-25.65
-29.42
-33.52
-37.14
-39.29
-39.11
-36.14
-30.55
-23.06
-14.70
-6.50
0.79
6.77
11.34
14.55
16.55
17.46
17.52
16.98
16.16
15.33
14.66
14.21
14.01
14.04
14.27
14.70
15.27
15.87
16.39
16.76
16.91
16.83
16.44
15.67
14.44
12.77
10.77
8.68
6.73
5.06
3.59
2.11
0.33
-1.91
-4.58
-7.42
-10.11
-12.34
-14.05
-15.36
-16.62
-18.21
-20.47
-23.53
-27.22
-31.05
-34.22
-35.85
-35.16
-31.80
-25.97
-18.41
-10.16
-2.28
4.47
9.70
13.39
15.69
16.82
16.94
16.23
14.87
13.15
11.40
9.94
9.01
8.65
8.80
9.25
9.84
10.44
11.01
11.59
12.18
12.74
13.10
13.05
12.38
10.93
8.73
5.95
2.89
-0.13
-2.87
-5.27
-7.43
-9.56
-11.86
-14.49
-17.50
-20.89
-24.49
-27.98
-30.78
-32.19
-31.54
-28.50
-23.21
-16.33
-8.83
-1.66
4.52
9.35
12.82
15.02
16.06
16.05
15.14
13.54
11.58
9.60
7.86
6.51
5.59
5.09
4.95
5.18
5.76
6.60
7.54
8.34
8.71
8.45
7.44
5.71
3.40
0.68
-2.20
-5.06
-7.77
-10.32
-12.83
-15.51
-18.61
-22.26
-26.35
-30.43
-33.73
-35.35
-34.53
-30.96
-24.88
-17.12
-8.78
-0.95
5.60
10.59
14.07
16.33
17.67
18.28
18.21
17.50
16.21
14.50
12.65
10.97
9.74
9.07
8.90
9.05
9.24
9.36
9.36
9.35
9.36
9.32
8.97
7.96
6.10
3.41
0.21
-3.08
-6.10
-8.69
-10.95
-13.15
-15.54
-18.33
-21.65
-25.53
-29.83
-34.20
-38.02
-40.38
-40.41
-37.52
-31.73
-23.72
-14.67
-5.86
1.65
7.38
11.30
13.77
15.24
16.10
16.56
16.69
16.50
16.03
15.38
14.73
14.26
14.09
14.25
14.70
15.36
16.15
16.99
17.76
18.32
18.45
18.03
16.97
15.36
13.39
11.23
9.00
6.67
4.14
1.29
-1.90
-5.36
-8.87
-12.21
-15.15
-17.62
-19.71
-21.66
-23.83
-26.53
-29.90
-33.75
-37.45
-40.09
-40.69
-38.54
-33.45
-25.92
-16.95
-7.83
0.32
6.77
11.29
14.01
15.30
15.56
15.20
14.58
14.04
13.83
14.06
14.68
15.50
16.30
16.96
17.48
17.98
18.62
19.46
20.44
21.34
21.84
21.64
20.58
18.72
16.31
13.70
11.18
8.87
6.65
4.31
1.66
-1.28
-4.31
-7.13
-9.54
-11.51
-13.25
-15.02
-17.10
-19.68
-22.87
-26.68
-30.96
-35.34
-39.06
-41.18
-40.75
-37.23
-30.77
-22.20
-12.82
-3.92
3.54
9.18
13.10
15.68
17.32
18.29
18.72
18.64
18.14
17.33
16.43
15.71
15.39
15.63
16.44
17.68
19.09
20.36
21.23
21.56
21.36
20.77
19.94
18.91
17.62
15.93
13.69
10.85
7.53
3.91
0.28
-3.13
-6.18
-8.81
-11.10
-13.22
-15.42
-17.95
-21.00
-24.56
-28.36
-31.80
-34.07
-34.32
-32.02
-27.12
-20.15
-12.09
-4.05
3.08
8.79
13.03
15.93
17.72
18.53
18.45
17.54
15.99
14.11
12.21
10.61
9.52
9.03
9.14
9.76
10.76
11.98
13.21
14.26
14.95
15.14
14.66
13.44
11.40
8.62
5.30
1.76
-1.66
-4.69
-7.22
-9.38
-11.49
-13.98
-17.17
-21.11
-25.45
-29.45
-32.11
-32.50
-30.10
-24.98
-17.83
-9.76
-1.87
4.96
10.34
14.20
16.75
18.25
18.89
18.86
18.26
17.21
15.89
14.54
13.40
12.72
12.60
12.99
13.69
14.39
14.88
15.06
15.01
14.80
14.42
13.69
12.30
9.96
6.58
2.37
-2.19
-6.56
-10.26
-13.08
-15.07
-16.55
-17.97
-19.79
-22.38
-25.85
-30.00
-34.16
-37.35
-38.49
-36.75
-31.89
-24.40
-15.38
-6.16
2.12
8.81
13.71
17.00
18.96
19.86
19.93
19.41
18.63
17.89
17.38
17.11
16.96
16.79
16.55
16.33
16.33
16.73
17.58
18.71
19.83
20.57
20.65
19.97
18.58
16.67
14.47
12.14
9.85
7.65
5.57
3.54
1.45
-0.88
-3.57
-6.61
-9.83
-12.89
-15.48
-17.52
-19.20
-21.00
-23.47
-26.95
-31.29
-35.84
-39.53
-41.20
-39.96
-35.57
-28.44
-19.63
-10.39
-1.89
5.12
10.37
13.97
16.22
17.44
17.87
17.71
17.17
16.55
16.15
16.23
16.83
17.82
18.95
19.95
20.68
21.14
21.44
21.69
21.90
22.00
21.81
21.16
19.90
18.03
15.69
13.09
10.53
8.22
6.24
4.46
2.64
0.54
-1.91
-4.57
-7.17
-9.49
-11.38
-12.97
-14.42
-15.96
-17.78
-20.09
-23.10
-26.96
-31.55
-36.33
-40.32
-42.33
-41.41
-37.21
-30.18
-21.47
-12.41
-4.19
2.53
7.59
11.17
13.61
15.16
16.02
16.34
16.27
16.03
15.82
15.80
16.04
16.50
17.09
17.74
18.43
19.18
20.00
20.85
21.62
22.14
22.24
21.74
20.56
18.67
16.19
13.36
10.52
7.95
5.81
4.06
2.48
0.80
-1.13
-3.28
-5.48
-7.58
-9.51
-11.38
-13.39
-15.76
-18.68
-22.19
-26.19
-30.35
-34.14
-36.84
-37.72
-36.28
-32.38
-26.38
-18.99
-11.10
-3.54
3.08
8.45
12.46
15.18
16.73
17.29
17.03
16.18
14.99
13.71
12.59
11.81
11.49
11.60
12.06
12.70
13.31
13.70
13.75
13.46
12.91
12.19
11.35
10.33
8.99
7.22
4.98
2.41
-0.27
-2.75
-4.86
-6.56
-7.99
-9.42
-11.12
-13.30
-16.03
-19.23
-22.68
-26.04
-28.85
-30.59
-30.71
-28.86
-24.93
-19.26
-12.53
-5.62
0.66
5.81
9.66
12.32
13.97
14.74
14.65
13.72
12.07
9.99
7.86
6.08
4.87
4.28
4.21
4.48
4.97
5.60
6.34
7.12
7.78
8.12
7.91
7.04
5.54
3.57
1.37
-0.87
-3.06
-5.25
-7.62
-10.37
-13.68
-17.61
-21.97
-26.28
-29.84
-31.80
-31.47
-28.58
-23.34
-16.50
-9.04
-1.88
4.34
9.29
12.93
15.31
16.51
16.64
15.89
14.52
12.86
11.20
9.73
8.49
7.41
6.46
5.68
5.16
5.05
5.39
6.09
6.86
7.38
7.33
6.56
5.07
3.01
0.53
-2.19
-5.06
-7.97
-10.83
-13.65
-16.54
-19.73
-23.42
-27.62
-31.92
-35.51
-37.40
-36.72
-33.13
-26.95
-19.10
-10.81
-3.20
3.01
7.56
10.63
12.60
13.83
14.59
14.97
15.01
14.68
14.05
13.26
12.48
11.93
11.66
11.67
11.82
11.96
11.98
11.90
11.74
11.55
11.22
10.58
9.39
7.53
5.04
2.14
-0.84
-3.58
-5.90
-7.77
-9.31
-10.74
-12.31
-14.28
-16.86
-20.12
-23.91
-27.79
-31.10
-33.03
-32.94
-30.48
-25.77
-19.39
-12.14
-4.92
1.55
6.82
10.73
13.36
14.96
15.80
16.12
16.10
15.80
15.25
14.49
13.61
12.73
12.02
11.64
11.69
12.19
13.04
14.08
15.09
15.82
16.09
15.79
14.91
13.53
11.77
9.74
7.50
5.09
2.54
-0.09
-2.67
-5.06
-7.13
-8.84
-10.32
-11.77
-13.54
-15.92
-19.07
-22.99
-27.38
-31.67
-35.07
-36.75
-36.05
-32.69
-26.96
-19.61
-11.69
-4.14
2.34
7.41
11.05
13.45
14.80
15.34
15.27
14.85
14.31
13.86
13.62
13.64
13.89
14.34
14.95
15.70
16.53
17.38
18.15
18.74
19.04
18.95
18.36
17.23
15.56
13.44
11.04
8.52
5.96
3.39
0.78
-1.87
-4.50
-6.94
-9.09
-10.95
-12.71
-14.67
-17.14
-20.29
-24.02
-27.94
-31.39
-33.63
-34.00
-32.15
-28.08
-22.17
-15.06
-7.52
-0.31
5.97
10.88
14.25
16.14
16.82
16.66
16.02
15.17
14.28
13.45
12.76
12.33
12.20
12.35
12.65
12.97
13.24
13.47
13.76
14.11
14.38
14.26
13.40
11.60
8.92
5.73
2.51
-0.33
-2.60
-4.42
-6.11
-8.07
-10.63
-13.92
-17.87
-22.17
-26.30
-29.51
-31.09
-30.48
-27.45
-22.29
-15.71
-8.64
-2.03
3.44
7.49
10.18
11.79
12.62
12.90
12.69
12.05
11.05
9.92
8.98
8.52
8.71
9.49
10.61
11.72
12.55
13.00
13.13
13.03
12.72
12.07
10.82
8.75
5.81
2.24
-1.51
-4.92
-7.69
-9.82
-11.61
-13.51
-15.91
-18.96
-22.56
-26.36
-29.85
-32.42
-33.41
-32.30
-28.77
-22.99
-15.57
-7.50
0.09
6.33
10.78
13.49
14.88
15.49
15.70
15.75
15.69
15.54
15.34
15.17
15.13
15.27
15.65
16.26
17.10
18.07
19.04
19.82
20.22
20.09
19.41
18.24
16.68
14.88
12.89
10.75
8.43
5.91
3.17
0.26
-2.72
-5.65
-8.38
-10.79
-12.92
-14.88
-16.92
-19.37
-22.52
-26.46
-30.95
-35.40
-38.90
-40.49
-39.45
-35.58
-29.27
-21.40
-13.09
-5.35
1.15
6.13
9.71
12.20
13.94
15.23
16.27
17.21
18.11
19.03
19.97
20.92
21.81
22.58
23.14
23.44
23.52
23.46
23.40
23.37
23.33
23.08
22.37
20.95
18.77
16.00
13.00
10.14
7.66
5.56
3.62
1.59
-0.72
-3.32
-6.10
-8.85
-11.39
-13.59
-15.45
-17.07
-18.73
-20.78
-23.56
-27.32
-31.90
-36.75
-40.95
-43.37
-43.09
-39.73
-33.58
-25.49
-16.67
-8.26
-1.07
4.54
8.60
11.38
13.23
14.43
15.18
15.65
15.94
16.21
16.57
17.09
17.82
18.66
19.52
20.27
20.86
21.28
21.59
21.83
21.96
21.85
21.36
20.38
18.86
16.92
14.73
12.50
10.37
8.38
6.46
4.49
2.30
-0.15
-2.83
-5.57
-8.17
-10.46
-12.37
-13.98
-15.53
-17.33
-19.69
-22.84
-26.77
-31.15
-35.28
-38.22
-39.05
-37.22
-32.70
-26.09
-18.36
-10.61
-3.73
1.80
5.85
8.63
10.43
11.54
12.15
12.33
12.15
11.71
11.16
10.73
10.62
10.97
11.80
12.99
14.39
15.82
17.10
18.06
18.55
18.46
17.78
16.58
15.06
13.40
11.76
10.15
8.51
6.72
4.71
2.48
0.10
-2.34
-4.73
-7.08
-9.38
-11.74
-14.32
-17.30
-20.83
-24.87
-29.10
-32.87
-35.34
-35.67
-33.38
-28.49
-21.63
-13.78
-6.02
0.79
6.14
9.92
12.33
13.64
14.15
14.05
13.51
12.68
11.70
10.75
10.00
9.54
9.41
9.53
9.84
10.25
10.72
11.25
11.78
12.17
12.18
11.53
10.06
7.72
4.70
1.31
-2.05
-5.08
-7.63
-9.75
-11.68
-13.80
-16.50
-19.98
-24.15
-28.48
-32.12
-34.07
-33.55
-30.26
-24.59
-17.45
-10.00
-3.28
2.10
5.99
8.59
10.19
11.05
11.29
10.98
10.25
9.27
8.26
7.40
6.78
6.44
6.40
6.69
7.38
8.41
9.61
10.67
11.19
10.87
9.58
7.40
4.57
1.34
-2.02
-5.39
-8.73
-12.11
-15.66
-19.52
-23.78
-28.31
-32.69
-36.24
-38.10
-37.55
-34.24
-28.35
-20.63
-12.13
-3.92
3.18
8.76
12.78
15.46
17.08
17.89
18.04
17.65
16.83
15.75
14.65
13.75
13.21
13.08
13.29
13.69
14.13
14.51
14.83
15.04
15.04
14.63
13.55
11.58
8.65
4.92
0.70
-3.56
-7.46
-10.79
-13.53
-15.91
-18.32
-21.16
-24.71
-29.02
-33.70
-38.03
-41.03
-41.76
-39.63
-34.62
-27.28
-18.63
-9.82
-1.80
4.82
9.88
13.52
16.06
17.86
19.22
20.32
21.28
22.11
22.80
23.30
23.59
23.70
23.68
23.65
23.72
23.91
24.22
24.51
24.60
24.28
23.40
21.91
19.88
17.44
14.80
12.12
9.49
6.93
4.38
1.76
-0.96
-3.79
-6.66
-9.50
-12.29
-15.12
-18.17
-21.74
-26.04
-31.07
-36.44
-41.34
-44.67
-45.38
-42.83
-37.07
-28.87
-19.43
-10.03
-1.69
5.05
10.05
13.48
15.66
16.93
17.67
18.13
18.55
19.04
19.68
20.48
21.44
22.51
23.63
24.68
25.57
26.26
26.76
27.12
27.31
27.22
26.68
25.47
23.52
20.96
18.02
15.04
12.28
9.85
7.71
5.66
3.50
1.09
-1.55
-4.27
-6.90
-9.29
-11.41
-13.38
-15.39
-17.75
-20.74
-24.60
-29.33
-34.56
-39.52
-43.15
-44.37
-42.49
-37.42
-29.80
-20.72
-11.48
-3.11
3.71
8.77
12.20
14.35
15.62
16.41
17.00
17.54
18.04
18.46
18.76
19.03
19.41
20.03
20.93
22.05
23.19
24.17
24.83
25.07
24.83
24.06
22.69
20.71
18.23
15.43
12.58
9.92
7.57
5.46
3.37
1.08
-1.48
-4.22
-6.86
-9.15
-10.95
-12.41
-13.82
-15.59
-18.01
-21.24
-25.22
-29.58
-33.69
-36.63
-37.45
-35.46
-30.52
-23.20
-14.60
-6.03
1.47
7.35
11.55
14.28
15.83
16.40
16.16
15.34
14.22
13.15
12.40
12.11
12.26
12.75
13.51
14.45
15.48
16.50
17.39
18.06
18.46
18.52
18.18
17.32
15.85
13.73
11.04
7.98
4.81
1.75
-1.09
-3.68
-6.05
-8.28
-10.46
-12.77
-15.41
-18.60
-22.35
-26.38
-30.01
-32.39
-32.68
-30.46
-25.81
-19.36
-12.06
-4.86
1.50
6.66
10.53
13.20
14.76
15.31
14.91
13.73
12.06
10.27
8.76
7.83
7.59
8.01
8.93
10.20
11.64
13.10
14.41
15.37
15.76
15.41
14.18
12.05
9.16
5.76
2.21
-1.13
-4.04
-6.47
-8.59
-10.76
-13.38
-16.76
-20.89
-25.43
-29.61
-32.51
-33.20
-31.17
-26.49
-19.85
-12.36
-5.15
0.96
5.59
8.81
10.93
12.31
13.21
13.77
14.02
14.00
13.73
13.26
12.74
12.30
12.09
12.22
12.69
13.42
14.22
14.90
15.27
15.20
14.61
13.50
11.87
9.78
7.33
4.62
1.78
-1.07
-3.82
-6.39
-8.77
-11.01
-13.25
-15.68
-18.50
-21.86
-25.71
-29.84
-33.73
-36.71
-38.04
-37.17
-33.87
-28.32
-21.15
-13.21
-5.45
1.35
6.70
10.45
12.76
14.00
14.57
14.83
15.01
15.20
15.37
15.48
15.53
15.54
15.59
15.76
16.09
16.55
17.07
17.54
17.81
17.76
17.29
16.38
15.01
13.21
11.05
8.58
5.91
3.15
0.43
-2.11
-4.41
-6.46
-8.32
-10.07
-11.81
-13.61
-15.56
-17.85
-20.66
-24.16
-28.28
-32.56
-36.13
-37.99
-37.31
-33.82
-27.91
-20.48
-12.62
-5.28
1.03
6.13
10.11
13.08
15.13
16.39
17.00
17.21
17.24
17.25
17.28
17.34
17.37
17.40
17.43
17.52
17.71
18.01
18.40
18.74
18.85
18.49
17.47
15.78
13.52
10.95
8.34
5.83
3.42
0.98
-1.57
-4.30
-7.10
-9.82
-12.31
-14.44
-16.19
-17.70
-19.19
-20.99
-23.40
-26.55
-30.23
-33.86
-36.58
-37.47
-35.86
-31.61
-25.16
-17.36
-9.31
-1.97
4.08
8.67
11.93
14.14
15.54
16.28
16.42
16.05
15.36
14.56
13.93
13.64
13.78
14.26
14.95
15.65
16.22
16.56
16.62
16.38
15.82
14.93
13.73
12.22
10.44
8.38
6.06
3.52
0.85
-1.81
-4.31
-6.56
-8.56
-10.41
-12.32
-14.47
-16.97
-19.83
-22.98
-26.19
-29.10
-31.18
-31.81
-30.47
-26.97
-21.58
-15.00
-8.13
-1.81
3.45
7.42
10.17
11.83
12.54
12.47
11.84
10.91
9.97
9.19
8.60
8.19
7.93
7.82
7.92
8.24
8.76
9.38
9.97
10.40
10.55
10.27
9.46
8.02
5.97
3.44
0.66
-2.11
-4.67
-6.95
-9.01
-11.02
-13.23
-15.88
-19.05
-22.51
-25.69
-27.80
-28.07
-26.06
-21.83
-15.96
-9.33
-2.84
2.82
7.30
10.47
12.44
13.30
13.21
12.31
10.78
8.86
6.82
4.93
3.47
2.62
2.47
3.00
4.02
5.27
6.39
7.08
7.14
6.49
5.21
3.47
1.46
-0.67
-2.85
-5.10
-7.47
-10.08
-13.05
-16.43
-20.14
-23.90
-27.17
-29.26
-29.52
-27.54
-23.32
-17.35
-10.44
-3.52
2.65
7.62
11.26
13.70
15.17
15.90
16.04
15.67
14.92
13.92
12.85
11.85
11.03
10.46
10.16
10.15
10.46
11.06
11.81
12.44
12.63
12.07
10.62
8.33
5.47
2.40
-0.54
-3.17
-5.49
-7.67
-9.99
-12.70
-15.97
-19.81
-23.96
-27.96
-31.13
-32.74
-32.15
-29.11
-23.77
-16.82
-9.24
-2.05
3.95
8.35
11.23
12.93
13.90
14.48
14.83
14.98
14.90
14.63
14.28
13.98
13.89
14.07
14.47
14.99
15.48
15.80
15.85
15.65
15.24
14.70
14.05
13.24
12.10
10.47
8.28
5.58
2.59
-0.44
-3.30
-5.96
-8.53
-11.22
-14.24
-17.72
-21.65
-25.86
-30.03
-33.64
-36.07
-36.68
-35.00
-30.93
-24.81
-17.40
-9.64
-2.41
3.67
8.34
11.63
13.76
15.00
15.59
15.73
15.59
15.32
15.03
14.84
14.82
15.02
15.42
15.96
16.50
16.91
17.06
16.88
16.41
15.72
14.89
13.93
12.75
11.18
9.05
6.31
3.14
-0.12
-3.07
-5.47
-7.33
-8.89
-10.56
-12.67
-15.36
-18.65
-22.35
-26.18
-29.67
-32.19
-33.03
-31.63
-27.83
-21.95
-14.83
-7.50
-0.91
4.36
8.14
10.55
11.89
12.50
12.67
12.65
12.60
12.60
12.63
12.62
12.49
12.22
11.81
11.34
10.90
10.58
10.47
10.56
10.69
10.68
10.29
9.33
7.79
5.77
3.48
1.07
-1.37
-3.92
-6.75
-10.07
-14.05
-18.66
-23.65
-28.46
-32.31
-34.35
-33.92
-30.81
-25.32
-18.25
-10.65
-3.49
2.50
7.01
10.07
11.89
12.73
12.84
12.43
11.69
10.85
10.14
9.73
9.68
9.92
10.32
10.78
11.27
11.82
12.47
13.14
13.64
13.68
13.02
11.55
9.37
6.75
3.95
1.24
-1.27
-3.63
-5.98
-8.54
-11.49
-14.87
-18.48
-21.85
-24.26
-25.04
-23.72
-20.27
-15.11
-9.00
-2.84
2.62
6.88
9.78
11.45
12.14
12.20
11.86
11.26
10.47
9.49
8.32
7.01
5.66
4.41
3.39
2.68
2.28
2.14
2.07
1.82
1.19
0.07
-1.52
-3.40
-5.38
-7.34
-9.29
-11.38
-13.82
-16.79
-20.34
-24.34
-28.39
-31.93
-34.22
-34.59
-32.62
-28.31
-22.16
-15.14
-8.46
-3.22
-0.09
0.94
0.49
-0.34
-0.44
1.03
4.32
9.10
14.65
20.09
24.68
27.98
29.85
30.35
29.65
27.97
25.58
22.79
19.90
17.21
14.91
13.08
11.72
10.76
10.17
9.87
9.79
9.79
9.65
9.19
8.28
6.92
5.16
3.06
0.69
-1.90
-4.69
-7.66
-10.84
-14.29
-18.02
-21.92
-25.58
-28.32
-29.31
-27.94
-24.08
-18.16
-11.11
-3.98
2.35
7.43
11.16
13.71
15.23
15.84
15.61
14.63
13.13
11.44
9.92
8.84
8.28
8.13
8.23
8.37
8.47
8.52
8.53
8.51
8.39
8.02
7.21
5.84
3.88
1.47
-1.13
-3.64
-5.83
-7.68
-9.35
-11.19
-13.55
-16.72
-20.69
-25.13
-29.35
-32.46
-33.59
-32.16
-28.13
-21.99
-14.68
-7.25
-0.56
4.91
9.05
12.04
14.12
15.45
16.14
16.24
15.86
15.19
14.47
13.91
13.59
13.53
13.60
13.66
13.58
13.37
13.06
12.73
12.45
12.18
11.79
11.08
9.86
8.03
5.65
2.90
0.07
-2.55
-4.78
-6.64
-8.29
-10.00
-12.07
-14.70
-17.96
-21.66
-25.41
-28.58
-30.45
-30.37
-27.98
-23.36
-17.08
-10.04
-3.20
2.69
7.23
10.40
12.41
13.56
14.09
14.19
13.96
13.50
12.92
12.34
11.86
11.55
11.47
11.64
12.06
12.67
13.38
14.09
14.68
15.03
15.05
14.67
13.89
12.77
11.42
9.96
8.40
6.72
4.83
2.69
0.33
-2.16
-4.66
-7.07
-9.37
-11.59
-13.77
-16.03
-18.48
-21.29
-24.60
-28.29
-31.93
-34.75
-35.88
-34.60
-30.72
-24.62
-17.18
-9.47
-2.50
3.10
7.11
9.70
11.28
12.26
12.91
13.30
13.34
12.93
12.11
11.09
10.17
9.63
9.59
10.05
10.87
11.93
13.13
14.36
15.48
16.26
16.46
15.94
14.66
12.74
10.43
7.96
5.52
3.21
1.03
-1.05
-3.07
-5.06
-7.03
-8.98
-10.91
-12.90
-15.01
-17.37
-20.04
-22.98
-25.98
-28.58
-30.14
-30.03
-27.84
-23.59
-17.76
-11.16
-4.64
1.14
5.89
9.62
12.45
14.43
15.52
15.60
14.65
12.89
10.70
8.59
6.99
6.09
5.86
6.07
6.47
6.91
7.39
8.01
8.79
9.67
10.39
10.68
10.31
9.19
7.40
5.17
2.75
0.41
-1.68
-3.45
-4.90
-6.15
-7.42
-9.01
-11.17
-14.04
-17.52
-21.16
-24.26
-26.04
-25.89
-23.59
-19.35
-13.78
-7.65
-1.69
3.58
7.82
10.87
12.69
13.34
13.01
11.96
10.53
9.01
7.57
6.28
5.13
4.15
3.39
2.96
2.94
3.33
3.99
4.78
5.48
5.97
6.15
5.96
5.34
4.23
2.64
0.64
-1.61
-4.00
-6.51
-9.25
-12.46
-16.29
-20.65
-25.10
-28.86
-31.08
-31.08
-28.59
-23.88
-17.63
-10.73
-4.02
1.88
6.66
10.23
12.65
14.06
14.59
14.36
13.51
12.21
10.63
8.94
7.32
5.92
4.90
4.35
4.31
4.77
5.56
6.38
6.89
6.75
5.76
3.93
1.47
-1.25
-3.86
-6.16
-8.11
-9.94
-12.01
-14.69
-18.21
-22.48
-27.04
-31.13
-33.83
-34.37
-32.32
-27.78
-21.31
-13.78
-6.12
0.91
6.82
11.39
14.63
16.69
17.75
18.02
17.65
16.76
15.51
14.06
12.61
11.37
10.47
9.96
9.78
9.83
10.00
10.22
10.47
10.71
10.81
10.61
9.87
8.44
6.29
3.56
0.52
-2.57
-5.49
-8.14
-10.58
-12.98
-15.59
-18.68
-22.44
-26.78
-31.29
-35.18
-37.50
-37.40
-34.47
-28.92
-21.51
-13.30
-5.33
1.67
7.34
11.62
14.64
16.62
17.75
18.25
18.27
17.94
17.35
16.61
15.87
15.31
15.10
15.28
15.74
16.29
16.73
16.95
16.98
16.90
16.76
16.51
15.98
14.99
13.41
11.25
8.65
5.83
2.99
0.29
-2.24
-4.62
-6.96
-9.37
-11.97
-14.87
-18.20
-22.03
-26.25
-30.51
-34.18
-36.40
-36.38
-33.60
-28.09
-20.51
-11.88
-3.39
4.01
9.80
13.91
16.58
18.17
18.96
19.20
19.03
18.57
17.98
17.42
16.99
16.75
16.70
16.84
17.17
17.73
18.49
19.39
20.21
20.71
20.68
20.06
18.86
17.26
15.40
13.40
11.23
8.86
6.22
3.36
0.41
-2.45
-5.08
-7.45
-9.69
-11.97
-14.53
-17.50
-20.94
-24.73
-28.54
-31.84
-33.94
-34.15
-32.01
-27.51
-21.09
-13.58
-5.93
1.09
7.06
11.85
15.54
18.21
19.88
20.53
20.21
19.14
17.70
16.31
15.29
14.83
14.93
15.48
16.35
17.38
18.42
19.33
19.97
20.22
20.02
19.37
18.34
16.99
15.33
13.29
10.83
7.93
4.70
1.35
-1.86
-4.75
-7.27
-9.54
-11.79
-14.24
-17.11
-20.45
-24.14
-27.80
-30.78
-32.30
-31.65
-28.44
-22.86
-15.63
-7.79
-0.34
6.00
10.97
14.61
17.10
18.59
19.15
18.82
17.71
16.08
14.28
12.67
11.53
10.95
10.92
11.31
11.96
12.73
13.52
14.24
14.83
15.19
15.18
14.64
13.46
11.59
9.13
6.28
3.35
0.62
-1.75
-3.77
-5.59
-7.46
-9.60
-12.19
-15.29
-18.84
-22.56
-25.94
-28.29
-28.87
-27.13
-22.96
-16.81
-9.53
-2.16
4.43
9.70
13.54
16.11
17.66
18.44
18.57
18.10
17.08
15.60
13.86
12.13
10.69
9.74
9.37
9.48
9.88
10.37
10.77
11.01
11.05
10.83
10.22
9.09
7.38
5.09
2.34
-0.70
-3.80
-6.80
-9.61
-12.29
-15.07
-18.20
-21.85
-25.89
-29.85
-32.93
-34.25
-33.19
-29.59
-23.88
-16.86
-9.52
-2.71
3.02
7.39
10.40
12.19
12.99
13.05
12.62
11.94
11.19
10.55
10.08
9.85
9.86
10.12
10.62
11.31
12.10
12.83
13.35
13.51
13.26
12.55
11.40
9.79
7.71
5.19
2.31
-0.73
-3.72
-6.49
-8.99
-11.38
-13.92
-16.88
-20.41
-24.35
-28.26
-31.45
-33.13
-32.70
-29.89
-24.93
-18.50
-11.50
-4.88
0.71
4.99
8.02
10.12
11.68
12.94
13.98
14.70
14.99
14.78
14.12
13.23
12.32
11.58
11.11
10.90
10.94
11.23
11.80
12.62
13.61
14.54
15.11
14.98
13.95
11.96
9.17
5.91
2.58
-0.52
-3.25
-5.67
-7.98
-10.44
-13.22
-16.42
-19.99
-23.83
-27.66
-31.07
-33.52
-34.46
-33.51
-30.69
-26.39
-21.31
-16.26
-11.93
-8.80
-7.07
-6.77
-7.76
-9.84
-12.68
-15.99
-19.60
-23.44
-27.57
-32.11
-36.99
-41.99
-46.68
-50.58
-53.23
-54.42
-54.17
-52.84
-51.04
-49.57
-49.28
-50.81
-54.31
-59.18
-64.16
-67.60
-68.03
-64.62
-57.44
-47.35
-35.55
-23.10
-10.56
1.92
14.34
26.61
38.41
49.31
58.90
66.95
73.35
77.98
80.68
81.26
79.69
76.17
71.32
65.99
61.03
57.03
54.12
51.92
49.83
47.22
43.70
39.29
34.34
29.40
24.95
21.30
18.56
16.62
15.22
14.03
12.66
10.80
8.28
5.12
1.51
-2.34
-6.15
-9.67
-12.52
-14.14
-13.91
-11.28
-6.05
1.52
10.73
20.64
30.37
39.16
46.37
51.36
53.36
51.70
46.07
36.92
25.63
14.12
4.24
-3.04
-7.94
-11.62
-15.37
-19.86
-24.74
-28.95
-31.49
-32.09
-31.39
-30.64
-30.90
-32.51
-34.97
-37.23
-38.34
-37.86
-36.08
-33.77
-31.80
-30.79
-30.76
-31.19
-31.06
-29.41
-25.62
-19.72
-12.39
-4.60
2.73
9.07
14.34
18.77
22.52
25.48
27.25
27.22
24.96
20.51
14.46
7.92
2.26
-1.31
-2.01
0.26
4.91
10.85
16.77
21.53
24.33
24.93
23.54
20.74
17.26
13.83
11.08
9.42
9.06
9.95
11.79
14.11
16.37
18.07
18.82
18.46
16.95
14.55
11.71
9.14
7.68
8.09
10.80
15.78
22.49
30.05
37.49
44.07
49.44
53.58
56.72
59.09
60.79
61.80
62.04
61.56
60.69
59.90
59.55
59.68
59.75
58.79
55.84
50.34
42.38
32.76
22.60
13.04
4.87
-1.52
-6.10
-9.13
-11.02
-12.23
-13.18
-14.13
-15.19
-16.29
-17.35
-18.33
-19.31
-20.35
-21.56
-22.98
-24.68
-26.75
-29.25
-32.04
-34.74
-36.70
-37.23
-35.83
-32.39
-27.28
-21.15
-14.82
-8.98
-4.06
-0.24
2.48
4.19
5.00
4.91
3.88
1.92
-0.88
-4.21
-7.65
-10.73
-13.19
-14.98
-16.33
-17.59
-19.08
-20.92
-23.05
-25.27
-27.37
-29.29
-31.05
-32.84
-34.78
-36.97
-39.35
-41.80
-44.22
-46.54
-48.80
-51.10
-53.54
-56.16
-59.02
-62.14
-65.58
-69.34
-73.34
-77.29
-80.73
-83.09
-83.95
-83.19
-81.06
-78.14
-75.19
-72.88
-71.70
-71.83
-73.16
-75.42
-78.20
-81.09
-83.75
-85.98
-87.74
-89.07
-89.98
-90.31
-89.71
-87.67
-83.70
-77.43
-68.64
-57.31
-43.60
-28.00
-11.64
3.73
16.22
24.88
30.61
36.58
47.49
67.79
99.84
142.80
192.84
244.41
291.93
330.84
357.99
371.45
370.35
354.94
326.94
289.71
247.87
206.28
168.75
137.09
111.19
89.92
72.42
58.86
50.32
47.48
49.50
53.56
55.78
52.91
43.82
29.98
14.37
-0.24
-12.63
-23.40
-33.95
-45.26
-57.18
-68.58
-78.22
-85.44
-90.51
-94.25
-97.45
-100.47
-103.08
-104.74
-104.96
-103.62
-101.00
-97.59
-93.86
-89.94
-85.63
-80.49
-74.21
-66.79
-58.63
-50.47
-43.08
-37.04
-32.55
-29.43
-27.27
-25.60
-24.08
-22.54
-20.99
-19.49
-18.09
-16.79
-15.58
-14.44
-13.41
-12.57
-11.95
-11.55
-11.35
-11.29
-11.37
-11.66
-12.20
-13.04
-14.14
-15.42
-16.81
-18.25
-19.80
-21.56
-23.58
-25.82
-28.08
-29.98
-31.07
-30.89
-29.18
-25.91
-21.39
-16.21
-11.06
-6.56
-3.09
-0.73
0.70
1.53
2.06
2.47
2.82
3.07
3.16
3.13
3.04
2.99
3.06
3.30
3.74
4.36
5.12
5.90
6.48
6.61
6.03
4.58
2.32
-0.53
-3.66
-6.78
-9.80
-12.77
-15.91
-19.49
-23.78
-28.77
-34.17
-39.28
-43.13
-44.76
-43.54
-39.43
-33.06
-25.43
-17.61
-10.42
-4.25
0.84
4.89
7.94
9.97
10.97
11.08
10.61
9.92
9.27
8.76
8.31
7.86
7.45
7.27
7.58
8.54
10.13
12.16
14.37
16.52
18.49
20.20
21.59
22.54
22.95
22.78
22.12
21.13
19.88
18.24
15.88
12.35
7.33
0.76
-6.94
-14.93
-22.04
-27.09
-29.11
-27.68
-23.02
-15.96
-7.73
0.39
7.35
12.50
15.69
17.20
17.56
17.42
17.33
17.63
18.33
19.20
19.88
20.01
19.42
18.15
16.46
14.64
12.97
11.54
10.30
9.10
7.81
6.35
4.76
3.14
1.61
0.23
-0.88
-1.61
-1.84
-1.46
-0.52
0.80
2.12
3.02
3.16
2.36
0.63
-1.85
-4.85
-8.09
-11.26
-14.02
-16.00
-16.83
-16.29
-14.34
-11.18
-7.22
-2.96
1.14
4.77
7.83
10.38
12.54
14.52
16.54
18.92
21.97
25.92
30.77
36.19
41.55
46.09
49.09
49.92
48.20
43.66
36.26
26.18
13.95
0.39
-13.51
-26.69
-38.32
-47.76
-54.61
-58.64
-59.78
-58.16
-54.14
-48.33
-41.52
-34.54
-28.11
-22.74
-18.65
-15.73
-13.63
-11.91
-10.12
-7.92
-5.15
-1.75
2.25
6.80
11.82
17.21
22.79
28.23
33.15
37.12
39.78
40.95
40.76
39.60
38.08
36.82
36.19
36.29
36.78
37.10
36.60
34.70
31.11
25.87
19.48
12.79
6.75
2.16
-0.61
-1.68
-1.61
-1.07
-0.61
-0.53
-0.81
-1.33
-1.97
-2.70
-3.53
-4.47
-5.47
-6.46
-7.33
-8.00
-8.44
-8.62
-8.57
-8.28
-7.72
-6.87
-5.78
-4.53
-3.35
-2.52
-2.27
-2.74
-3.90
-5.49
-7.18
-8.63
-9.64
-10.26
-10.73
-11.36
-12.43
-14.06
-16.20
-18.59
-20.92
-22.77
-23.79
-23.70
-22.39
-19.93
-16.61
-12.88
-9.21
-5.97
-3.37
-1.38
0.15
1.40
2.50
3.48
4.25
4.69
4.78
4.57
4.27
4.08
4.11
4.37
4.75
5.12
5.36
5.41
5.23
4.81
4.11
3.13
1.90
0.50
-1.01
-2.58
-4.16
-5.69
-7.11
-8.36
-9.43
-10.34
-11.20
-12.09
-13.06
-14.15
-15.37
-16.66
-17.96
-19.09
-19.75
-19.66
-18.58
-16.46
-13.47
-9.94
-6.24
-2.74
0.32
2.85
4.81
6.28
7.26
7.79
7.88
7.59
7.06
6.50
6.09
5.95
6.11
6.49
7.03
7.67
8.37
9.06
9.65
10.03
10.12
9.95
9.64
9.37
9.24
9.26
9.34
9.32
9.06
8.47
7.49
6.17
4.57
2.80
0.94
-0.95
-2.91
-5.04
-7.42
-10.05
-12.79
-15.37
-17.41
-18.50
-18.38
-16.98
-14.48
-11.27
-7.81
-4.58
-1.85
0.29
1.86
2.99
3.77
4.20
4.31
4.12
3.73
3.29
2.99
2.95
3.22
3.73
4.28
4.71
4.86
4.71
4.33
3.83
3.30
2.76
2.15
1.42
0.52
-0.46
-1.45
-2.32
-3.04
-3.65
-4.30
-5.19
-6.51
-8.37
-10.76
-13.44
-15.98
-17.88
-18.69
-18.17
-16.44
-13.86
-10.92
-8.04
-5.47
-3.29
-1.47
-0.01
1.01
1.49
1.41
0.93
0.29
-0.22
-0.45
-0.39
-0.21
-0.05
0.02
0.05
0.16
0.42
0.74
0.95
0.84
0.33
-0.50
-1.48
-2.35
-2.99
-3.44
-3.86
-4.54
-5.72
-7.52
-9.86
-12.52
-15.10
-17.17
-18.34
-18.35
-17.14
-14.86
-11.83
-8.44
-5.09
-2.06
0.48
2.45
3.86
4.77
5.25
5.44
5.45
5.40
5.35
5.29
5.19
5.01
4.76
4.51
4.32
4.23
4.21
4.19
4.05
3.64
2.89
1.76
0.33
-1.24
-2.76
-4.04
-4.99
-5.67
-6.29
-7.11
-8.38
-10.20
-12.51
-15.02
-17.31
-18.91
-19.31
-18.26
-15.72
-12.02
-7.74
-3.51
0.14
2.95
4.98
6.42
7.52
8.44
9.20
9.75
9.98
9.87
9.50
9.01
8.59
8.39
8.48
8.80
9.23
9.58
9.71
9.57
9.16
8.53
7.72
6.70
5.42
3.85
2.06
0.15
-1.71
-3.46
-5.06
-6.57
-8.02
-9.47
-10.89
-12.28
-13.72
-15.33
-17.23
-19.45
-21.85
-24.03
-25.47
-25.64
-24.25
-21.27
-17.05
-12.15
-7.18
-2.64
1.15
4.11
6.31
7.86
8.93
9.64
10.08
10.33
10.44
10.42
10.29
10.07
9.81
9.61
9.55
9.68
9.99
10.44
10.89
11.22
11.34
11.17
10.72
10.03
9.14
8.10
6.94
5.65
4.20
2.57
0.75
-1.22
-3.21
-5.13
-6.87
-8.40
-9.78
-11.09
-12.45
-13.97
-15.79
-17.95
-20.44
-22.99
-25.10
-26.15
-25.57
-23.06
-18.84
-13.51
-7.93
-2.90
1.14
4.12
6.27
7.92
9.31
10.45
11.22
11.50
11.26
10.66
9.98
9.47
9.28
9.43
9.79
10.23
10.67
11.12
11.60
12.07
12.42
12.45
12.01
10.98
9.40
7.39
5.13
2.80
0.57
-1.47
-3.30
-4.95
-6.53
-8.18
-10.03
-12.17
-14.66
-17.42
-20.26
-22.81
-24.65
-25.37
-24.65
-22.37
-18.68
-13.93
-8.58
-3.19
1.73
5.76
8.65
10.35
11.01
10.90
10.32
9.51
8.64
7.85
7.23
6.87
6.81
7.04
7.50
8.10
8.76
9.42
10.04
10.57
10.86
10.76
10.10
8.77
6.84
4.50
2.03
-0.29
-2.28
-3.93
-5.37
-6.90
-8.78
-11.25
-14.36
-17.85
-21.20
-23.70
-24.66
-23.65
-20.70
-16.27
-11.04
-5.78
-0.98
3.11
6.49
9.23
11.36
12.81
13.50
13.41
12.67
11.57
10.44
9.58
9.11
9.01
9.17
9.46
9.83
10.27
10.74
11.12
11.22
10.80
9.72
8.06
6.03
3.96
2.10
0.53
-0.88
-2.43
-4.49
-7.28
-10.83
-14.86
-18.84
-22.08
-23.93
-23.94
-21.95
-18.22
-13.29
-7.86
-2.61
1.94
5.53
8.18
10.02
11.20
11.80
11.81
11.21
10.08
8.69
7.42
6.69
6.72
7.51
8.78
10.18
11.36
12.19
12.69
12.99
13.19
13.22
12.89
11.92
10.17
7.68
4.70
1.62
-1.24
-3.76
-6.00
-8.19
-10.61
-13.50
-17.02
-21.27
-26.07
-30.96
-35.09
-37.41
-36.97
-33.36
-26.93
-18.68
-9.96
-1.93
4.73
9.91
13.82
16.76
18.85
20.07
20.42
19.99
19.09
18.11
17.37
17.05
17.08
17.30
17.54
17.69
17.75
17.76
17.74
17.67
17.47
17.05
16.34
15.31
13.96
12.25
10.12
7.57
4.59
1.32
-2.04
-5.24
-8.10
-10.60
-12.88
-15.22
-17.96
-21.29
-25.23
-29.51
-33.57
-36.70
-38.14
-37.27
-33.85
-28.07
-20.58
-12.33
-4.30
2.70
8.27
12.36
15.21
17.13
18.38
19.08
19.32
19.20
18.83
18.37
17.97
17.74
17.71
17.95
18.51
19.39
20.54
21.74
22.68
23.04
22.61
21.47
19.81
17.95
16.02
14.01
11.74
9.10
6.07
2.86
-0.28
-3.18
-5.85
-8.49
-11.38
-14.76
-18.75
-23.30
-28.21
-33.07
-37.30
-40.12
-40.76
-38.69
-33.81
-26.65
-18.19
-9.62
-1.97
4.17
8.75
12.07
14.57
16.55
18.13
19.20
19.65
19.51
18.97
18.33
17.85
17.63
17.64
17.73
17.78
17.74
17.66
17.60
17.62
17.64
17.48
16.89
15.58
13.37
10.29
6.60
2.72
-0.87
-3.90
-6.33
-8.34
-10.27
-12.39
-14.93
-18.04
-21.78
-26.07
-30.50
-34.33
-36.56
-36.28
-32.98
-26.90
-18.87
-10.14
-1.85
5.18
10.60
14.41
16.74
17.80
17.82
17.05
15.85
14.59
13.47
12.62
11.96
11.42
10.95
10.60
10.47
10.63
11.03
11.52
11.85
11.75
11.01
9.58
7.53
5.03
2.34
-0.35
-2.87
-5.22
-7.50
-9.97
-12.89
-16.47
-20.69
-25.17
-29.17
-31.74
-32.00
-29.52
-24.47
-17.62
-10.10
-3.02
2.91
7.45
10.74
13.08
14.68
15.62
15.81
15.23
13.95
12.18
10.12
7.95
5.78
3.78
2.22
1.55
2.12
4.03
6.90
9.90
12.13
12.87
11.92
9.57
6.43
3.12
0.03
-2.76
-5.44
-8.34
-11.82
-16.12
-21.30
-27.04
-32.67
-37.19
-39.56
-39.01
-35.24
-28.62
-20.00
-10.51
-1.26
6.90
13.47
18.33
21.61
23.53
24.33
24.23
23.42
22.12
20.59
19.09
17.82
16.88
16.22
15.67
15.11
14.51
13.93
13.54
13.46
13.65
13.88
13.80
13.03
11.31
8.66
5.34
1.78
-1.61
-4.63
-7.34
-10.07
-13.28
-17.42
-22.69
-28.89
-35.35
-40.99
-44.60
-45.10
-41.92
-35.24
-25.93
-15.31
-4.73
4.77
12.62
18.70
23.15
26.17
27.95
28.60
28.28
27.22
25.74
24.16
22.74
21.61
20.75
20.02
19.30
18.53
17.81
17.30
17.19
17.48
17.96
18.13
17.48
15.62
12.51
8.45
4.00
-0.27
-3.96
-7.04
-9.76
-12.54
-15.86
-20.03
-25.16
-31.03
-36.97
-41.96
-44.81
-44.48
-40.43
-32.87
-22.74
-11.42
-0.33
9.44
17.32
23.22
27.34
29.97
31.34
31.63
30.97
29.57
27.71
25.69
23.80
22.22
21.06
20.33
20.00
19.99
20.24
20.65
21.11
21.52
21.76
21.69
21.16
20.02
18.12
15.40
11.95
7.97
3.79
-0.36
-4.29
-8.00
-11.63
-15.39
-19.52
-24.20
-29.47
-35.13
-40.71
-45.33
-47.97
-47.67
-43.87
-36.70
-26.99
-16.09
-5.44
3.69
10.58
14.99
17.17
17.58
16.81
15.35
13.59
11.74
9.89
8.06
6.25
4.45
2.77
1.34
0.39
0.09
0.58
1.82
3.63
5.58
7.22
8.12
8.07
7.07
5.34
3.16
0.76
-1.72
-4.35
-7.28
-10.75
-14.92
-19.69
-24.58
-28.76
-31.16
-30.86
-27.39
-20.97
-12.49
-3.22
5.60
13.09
18.85
22.86
25.27
26.20
25.76
24.02
21.21
17.70
14.00
10.54
7.65
5.41
3.68
2.28
0.98
-0.35
-1.73
-3.11
-4.40
-5.57
-6.68
-7.88
-9.36
-11.26
-13.65
-16.52
-19.89
-23.76
-28.02
-32.32
-35.93
-37.86
-37.11
-33.11
-26.11
-17.09
-7.49
1.30
8.38
13.50
16.89
19.00
20.15
20.51
20.12
19.07
17.55
15.80
14.15
12.80
11.86
11.29
10.98
10.75
10.39
9.73
8.66
7.20
5.47
3.58
1.60
-0.55
-3.04
-6.09
-9.91
-14.63
-20.26
-26.65
-33.34
-39.47
-43.91
-45.46
-43.29
-37.26
-28.07
-17.11
-6.00
3.88
11.79
17.55
21.45
23.93
25.34
25.93
25.85
25.22
24.18
22.82
21.20
19.42
17.56
15.80
14.35
13.42
13.06
13.11
13.23
12.98
12.02
10.16
7.46
4.13
0.49
-3.20
-6.83
-10.49
-14.47
-19.14
-24.72
-31.08
-37.54
-42.93
-45.89
-45.35
-40.88
-32.90
-22.53
-11.19
-0.20
9.47
17.34
23.23
27.19
29.38
30.08
29.63
28.51
27.12
25.73
24.44
23.26
22.10
20.95
19.94
19.21
18.90
19.00
19.35
19.61
19.41
18.49
16.70
14.14
10.99
7.51
3.90
0.28
-3.37
-7.18
-11.39
-16.24
-21.88
-28.16
-34.51
-39.89
-42.97
-42.58
-38.07
-29.68
-18.52
-6.19
5.65
15.80
23.70
29.34
32.99
34.92
35.26
34.13
31.72
28.37
24.60
20.95
17.80
15.36
13.61
12.44
11.70
11.28
11.13
11.16
11.19
10.96
10.17
8.57
6.11
2.98
-0.49
-3.90
-6.97
-9.64
-12.06
-14.50
-17.35
-20.91
-25.35
-30.57
-36.08
-40.93
-43.86
-43.65
-39.55
-31.64
-20.94
-9.07
2.27
11.81
18.97
23.82
26.79
28.33
28.71
28.09
26.54
24.22
21.39
18.38
15.54
13.19
11.60
10.86
10.94
11.63
12.56
13.32
13.59
13.25
12.34
11.07
9.61
8.03
6.36
4.52
2.47
0.11
-2.72
-6.20
-10.48
-15.38
-20.28
-24.14
-25.71
-24.10
-19.10
-11.39
-2.35
6.52
14.02
19.56
23.20
25.31
26.33
26.52
25.91
24.45
22.13
19.14
15.81
12.58
9.87
7.92
6.78
6.29
6.19
6.21
6.15
5.94
5.51
4.75
3.55
1.75
-0.69
-3.70
-7.11
-10.77
-14.72
-19.08
-23.93
-29.03
-33.62
-36.57
-36.74
-33.43
-26.77
-17.71
-7.69
1.82
9.82
15.87
20.04
22.59
23.76
23.61
22.19
19.66
16.35
12.75
9.37
6.64
4.77
3.78
3.48
3.62
3.93
4.14
4.06
3.58
2.64
1.25
-0.56
-2.78
-5.39
-8.38
-11.76
-15.57
-19.87
-24.67
-29.82
-34.88
-39.06
-41.35
-40.81
-36.91
-29.78
-20.26
-9.66
0.57
9.31
15.93
20.38
22.98
24.16
24.34
23.79
22.66
21.07
19.15
17.07
15.01
13.12
11.46
10.09
9.02
8.29
7.89
7.73
7.56
7.06
5.93
3.99
1.31
-1.85
-5.17
-8.40
-11.50
-14.62
-18.06
-22.16
-27.04
-32.51
-37.94
-42.31
-44.41
-43.29
-38.55
-30.56
-20.42
-9.61
0.52
9.02
15.49
19.99
22.80
24.20
24.46
23.76
22.36
20.56
18.67
16.97
15.57
14.48
13.66
13.03
12.58
12.36
12.36
12.49
12.55
12.25
11.31
9.54
6.95
3.71
0.17
-3.33
-6.51
-9.25
-11.62
-13.89
-16.42
-19.57
-23.54
-28.13
-32.70
-36.22
-37.56
-35.88
-30.96
-23.34
-14.13
-4.60
4.19
11.62
17.44
21.66
24.27
25.30
24.85
23.22
20.90
18.48
16.42
14.92
13.91
13.21
12.59
11.95
11.31
10.74
10.39
10.36
10.68
11.23
11.74
11.84
11.19
9.59
7.11
4.08
0.95
-1.88
-4.26
-6.28
-8.24
-10.57
-13.61
-17.53
-22.24
-27.30
-31.97
-35.25
-36.24
-34.31
-29.42
-22.17
-13.59
-4.92
2.85
9.11
13.74
16.85
18.64
19.31
18.94
17.68
15.76
13.48
11.15
9.03
7.27
5.92
5.00
4.52
4.45
4.70
5.15
5.54
5.65
5.28
4.35
2.87
0.96
-1.22
-3.53
-5.83
-8.06
-10.27
-12.62
-15.39
-18.81
-22.95
-27.46
-31.56
-34.17
-34.26
-31.26
-25.34
-17.42
-8.81
-0.74
5.97
11.04
14.59
16.88
18.06
18.20
17.33
15.59
13.24
10.59
7.98
5.69
3.94
2.86
2.52
2.81
3.43
4.03
4.22
3.79
2.73
1.22
-0.54
-2.37
-4.24
-6.24
-8.50
-11.18
-14.42
-18.25
-22.55
-26.94
-30.77
-33.19
-33.36
-30.75
-25.35
-17.74
-8.97
-0.25
7.38
13.22
17.08
19.15
19.85
19.65
18.95
17.97
16.75
15.25
13.45
11.41
9.37
7.62
6.41
5.84
5.81
6.10
6.40
6.46
6.07
5.14
3.65
1.71
-0.55
-3.00
-5.57
-8.32
-11.43
-15.13
-19.56
-24.64
-30.00
-34.97
-38.66
-40.12
-38.67
-34.10
-26.84
-17.88
-8.50
0.12
7.19
12.45
16.06
18.37
19.68
20.19
20.01
19.25
18.13
16.89
15.75
14.79
13.95
13.06
12.00
10.77
9.52
8.52
8.01
8.04
8.37
8.54
8.04
6.50
3.90
0.55
-3.02
-6.30
-9.02
-11.23
-13.31
-15.84
-19.28
-23.82
-29.28
-34.98
-39.94
-43.01
-43.23
-40.09
-33.71
-24.87
-14.79
-4.80
4.00
11.00
16.07
19.44
21.42
22.30
22.24
21.37
19.91
18.22
16.71
15.73
15.36
15.42
15.55
15.41
14.87
14.08
13.32
12.86
12.76
12.85
12.79
12.25
11.03
9.13
6.67
3.86
0.85
-2.23
-5.26
-8.14
-10.84
-13.45
-16.15
-19.28
-23.12
-27.68
-32.59
-37.00
-39.84
-40.09
-37.22
-31.32
-23.18
-13.90
-4.66
3.68
10.65
16.13
20.16
22.83
24.23
24.46
23.71
22.29
20.56
18.92
17.59
16.65
16.06
15.65
15.29
14.88
14.43
13.95
13.52
13.15
12.79
12.32
11.58
10.38
8.63
6.33
3.59
0.64
-2.26
-4.91
-7.21
-9.20
-11.08
-13.16
-15.75
-19.11
-23.31
-28.03
-32.66
-36.25
-37.81
-36.61
-32.42
-25.61
-17.09
-8.00
0.61
7.97
13.70
17.73
20.18
21.26
21.19
20.28
18.82
17.14
15.46
13.95
12.67
11.62
10.78
10.12
9.64
9.37
9.32
9.54
9.99
10.53
10.90
10.80
9.91
8.07
5.34
2.02
-1.46
-4.69
-7.43
-9.77
-12.01
-14.61
-17.93
-22.01
-26.50
-30.67
-33.65
-34.56
-32.84
-28.39
-21.59
-13.28
-4.47
3.79
10.72
15.90
19.22
20.88
21.18
20.41
18.87
16.76
14.33
11.83
9.51
7.54
6.03
4.96
4.27
3.86
3.64
3.51
3.39
3.17
2.76
2.07
1.03
-0.37
-2.12
-4.16
-6.45
-8.97
-11.81
-15.08
-18.89
-23.15
-27.47
-31.15
-33.30
-33.14
-30.28
-24.91
-17.71
-9.71
-1.94
4.85
10.21
14.03
16.40
17.47
17.42
16.43
14.71
12.50
10.07
7.66
5.43
3.46
1.75
0.23
-1.16
-2.48
-3.80
-5.20
-6.84
-8.90
-11.48
-14.62
-18.18
-21.92
-25.53
-28.79
-31.61
-34.15
-36.72
-39.85
-44.09
-49.76
-56.64
-63.77
-69.42
-71.56
-68.45
-59.40
-45.10
-27.49
-9.22
7.19
19.99
28.43
32.67
33.40
31.51
27.92
23.59
19.53
16.66
15.62
16.48
18.73
21.41
23.55
24.45
24.01
22.64
20.99
19.69
19.12
19.40
20.40
21.84
23.35
24.60
25.36
25.64
25.68
25.87
26.56
27.85
29.54
31.04
31.49
29.88
25.26
17.04
5.25
-9.16
-24.43
-38.32
-48.71
-54.23
-54.68
-50.96
-44.70
-37.66
-31.16
-25.84
-21.65
-18.13
-14.76
-11.15
-7.26
-3.28
0.45
3.63
6.08
7.84
9.09
10.09
11.02
12.06
13.27
14.69
16.29
17.97
19.56
20.79
21.39
21.12
19.88
17.76
14.99
11.88
8.66
5.47
2.29
-1.02
-4.64
-8.70
-13.30
-18.44
-24.02
-29.91
-35.88
-41.62
-46.62
-50.27
-51.87
-50.85
-46.91
-40.16
-31.21
-20.96
-10.42
-0.43
8.47
16.05
22.31
27.26
30.89
33.16
34.03
33.66
32.38
30.69
29.15
28.19
28.04
28.71
30.00
31.68
33.54
35.39
37.10
38.39
38.94
38.38
36.48
33.27
29.06
24.36
19.65
15.31
11.46
8.01
4.74
1.35
-2.41
-6.78
-11.79
-17.22
-22.53
-26.86
-29.24
-28.88
-25.49
-19.38
-11.45
-2.92
5.08
11.74
16.69
20.00
21.92
22.76
22.74
22.02
20.67
18.82
16.62
14.32
12.19
10.47
9.28
8.60
8.24
7.97
7.57
6.96
6.14
5.15
4.00
2.56
0.72
-1.64
-4.47
-7.63
-11.00
-14.56
-18.43
-22.72
-27.37
-31.94
-35.67
-37.60
-36.96
-33.51
-27.67
-20.41
-12.94
-6.34
-1.22
2.34
4.66
6.18
7.26
8.02
8.36
8.11
7.20
5.77
4.16
2.78
1.94
1.72
1.97
2.35
2.54
2.33
1.67
0.66
-0.60
-2.03
-3.61
-5.33
-7.21
-9.32
-11.78
-14.80
-18.53
-22.92
-27.59
-31.79
-34.55
-34.95
-32.40
-26.91
-19.07
-9.89
-0.55
7.92
14.85
19.99
23.46
25.55
26.62
26.98
26.77
26.10
25.01
23.60
22.06
20.62
19.48
18.76
18.46
18.40
18.34
18.03
17.28
16.00
14.23
12.00
9.41
6.57
3.56
0.49
-2.63
-5.91
-9.62
-14.01
-19.12
-24.53
-29.39
-32.54
-32.95
-30.10
-24.20
-16.12
-7.08
1.74
9.48
15.73
20.41
23.63
25.56
26.33
26.06
24.97
23.32
21.51
19.90
18.72
18.06
17.77
17.61
17.37
16.97
16.46
16.00
15.72
15.58
15.32
14.61
13.16
10.83
7.74
4.19
0.55
-2.90
-6.06
-9.00
-11.89
-15.03
-18.64
-22.87
-27.57
-32.26
-36.05
-37.87
-36.85
-32.60
-25.50
-16.53
-7.00
1.82
9.13
14.60
18.40
20.87
22.42
23.33
23.77
23.81
23.49
22.88
22.12
21.37
20.76
20.36
20.16
20.05
19.98
19.88
19.73
19.50
19.14
18.55
17.68
16.47
14.91
13.00
10.76
8.22
5.46
2.62
-0.16
-2.77
-5.24
-7.67
-10.24
-13.12
-16.48
-20.41
-24.91
-29.73
-34.35
-37.97
-39.62
-38.52
-34.37
-27.50
-18.88
-9.73
-1.21
5.91
11.37
15.28
17.91
19.56
20.38
20.54
20.16
19.49
18.75
18.12
17.68
17.38
17.21
17.13
17.21
17.52
17.99
18.48
18.78
18.69
18.10
17.02
15.51
13.64
11.44
8.88
5.98
2.76
-0.67
-4.16
-7.57
-10.76
-13.68
-16.33
-18.81
-21.33
-24.10
-27.28
-30.82
-34.36
-37.23
-38.61
-37.79
-34.43
-28.68
-21.24
-13.02
-4.98
2.13
7.82
11.90
14.44
15.66
15.90
15.52
14.84
14.04
13.21
12.36
11.50
10.70
10.06
9.67
9.56
9.72
10.10
10.65
11.33
11.99
12.38
12.19
11.14
9.14
6.35
3.15
-0.04
-2.89
-5.33
-7.48
-9.62
-12.07
-15.04
-18.54
-22.33
-25.94
-28.64
-29.68
-28.47
-24.82
-19.03
-11.88
-4.40
2.45
8.04
12.08
14.65
15.97
16.31
15.90
14.93
13.57
11.96
10.27
8.65
7.20
6.00
5.09
4.52
4.30
4.47
4.95
5.61
6.19
6.37
5.89
4.56
2.44
-0.27
-3.20
-6.04
-8.58
-10.80
-12.83
-14.92
-17.27
-20.00
-22.96
-25.80
-27.90
-28.59
-27.30
-23.84
-18.44
-11.80
-4.82
1.64
7.03
11.17
14.20
16.33
17.76
18.54
18.71
18.36
17.67
16.94
16.40
16.20
16.34
16.73
17.29
18.00
18.92
20.11
21.57
23.19
24.82
26.28
27.44
28.25
28.76
29.01
28.99
28.61
27.74
26.30
24.29
21.78
18.89
15.67
12.17
8.43
4.50
0.47
-3.54
-7.35
-10.70
-13.29
-14.85
-15.26
-14.76
-13.93
-13.47
-13.84
-15.01
-16.46
-17.41
-17.30
-15.99
-13.80
-11.25
-8.74
-6.43
-4.27
-2.21
-0.37
1.06
1.86
2.08
1.95
1.92
2.35
3.32
4.61
5.73
6.09
5.28
3.24
0.30
-2.97
-5.91
-8.06
-9.20
-9.46
-9.19
-8.92
-9.19
-10.52
-13.27
-17.62
-23.52
-30.77
-39.07
-48.12
-57.55
-66.84
-75.21
-81.70
-85.28
-85.26
-81.52
-74.52
-65.22
-54.74
-44.08
-33.97
-24.89
-17.15
-11.00
-6.54
-3.75
-2.31
-1.69
-1.22
-0.27
1.55
4.35
7.86
11.71
15.46
18.86
21.80
24.35
26.58
28.49
30.02
31.14
31.92
32.57
33.37
34.45
35.76
37.00
37.76
37.65
36.39
33.84
29.97
24.91
19.03
12.93
7.43
3.32
1.05
0.62
1.55
3.16
4.80
6.11
6.99
7.51
7.75
7.68
7.15
5.98
4.04
1.36
-1.88
-5.28
-8.40
-10.80
-12.20
-12.61
-12.31
-11.80
-11.61
-12.13
-13.41
-15.21
-16.97
-18.18
-18.57
-18.25
-17.78
-17.95
-19.52
-22.95
-28.19
-34.48
-40.38
-43.94
-43.41
-37.91
-28.06
-16.05
-4.96
2.24
3.79
-0.34
-8.64
-18.68
-27.96
-34.38
-36.55
-33.82
-26.30
-14.81
-0.87
13.59
26.61
36.61
42.66
44.46
42.29
36.86
29.19
20.44
11.75
4.02
-2.29
-7.17
-11.00
-14.30
-17.58
-21.07
-24.76
-28.39
-31.62
-34.25
-36.29
-38.01
-39.81
-42.00
-44.64
-47.45
-49.93
-51.61
-52.17
-51.49
-49.50
-45.95
-40.42
-32.47
-22.02
-9.66
3.39
15.53
25.39
32.23
36.13
37.72
37.83
37.06
35.67
33.71
31.24
28.53
26.00
24.14
23.33
23.75
25.40
28.13
31.69
35.71
39.75
43.35
46.07
47.62
47.92
47.07
45.34
43.07
40.56
38.05
35.63
33.22
30.56
27.31
23.14
17.93
11.85
5.31
-1.18
-7.32
-13.09
-18.80
-24.81
-31.26
-37.83
-43.69
-47.86
-49.49
-48.21
-44.23
-38.23
-31.08
-23.63
-16.49
-10.13
-4.82
-0.76
1.97
3.44
3.84
3.54
2.89
2.24
1.82
1.78
2.24
3.37
5.35
8.37
12.53
17.70
23.50
29.27
34.24
37.65
39.03
38.29
35.70
31.80
27.22
22.55
18.21
14.51
11.54
9.27
7.43
5.63
3.39
0.37
-3.57
-8.27
-13.44
-18.76
-24.02
-29.19
-34.31
-39.38
-44.16
-48.19
-50.76
-51.16
-48.84
-43.68
-36.08
-26.94
-17.42
-8.60
-1.24
4.45
8.71
11.97
14.57
16.62
17.97
18.46
18.08
17.06
15.85
14.89
14.42
14.40
14.61
14.86
15.09
15.42
16.10
17.25
18.78
20.35
21.52
21.83
21.04
19.20
16.58
13.59
10.59
7.72
4.91
1.93
-1.41
-5.15
-9.10
-12.90
-16.20
-18.76
-20.61
-21.97
-23.20
-24.66
-26.63
-29.25
-32.46
-36.00
-39.38
-41.87
-42.64
-40.94
-36.36
-29.05
-19.73
-9.56
0.24
8.66
15.27
20.09
23.48
25.82
27.36
28.18
28.33
27.94
27.23
26.46
25.79
25.18
24.49
23.65
22.71
21.92
21.54
21.68
22.17
22.60
22.51
21.55
19.66
17.02
13.98
10.88
8.04
5.61
3.64
2.06
0.63
-0.94
-2.94
-5.50
-8.50
-11.59
-14.35
-16.47
-17.89
-18.86
-19.85
-21.47
-24.37
-29.05
-35.60
-43.39
-50.93
-56.08
-56.70
-51.35
-39.98
-23.96
-5.67
12.38
28.19
40.60
49.10
53.54
53.90
50.34
43.48
34.49
24.88
16.13
9.21
4.34
1.10
-1.19
-3.05
-4.64
-5.80
-6.23
-5.79
-4.60
-2.97
-1.28
0.14
1.11
1.60
1.68
1.43
0.97
0.34
-0.41
-1.32
-2.40
-3.64
-5.02
-6.44
-7.79
-8.92
-9.71
-10.15
-10.33
-10.49
-10.95
-12.03
-13.92
-16.65
-20.01
-23.59
-26.83
-29.07
-29.68
-28.18
-24.38
-18.48
-11.07
-2.97
4.91
11.89
17.58
21.86
24.85
26.81
27.96
28.48
28.52
28.17
27.52
26.62
25.54
24.36
23.17
22.11
21.30
20.87
20.83
21.02
21.21
21.14
20.62
19.60
18.15
16.40
14.44
12.34
10.13
7.86
5.62
3.48
1.49
-0.37
-2.16
-3.89
-5.58
-7.22
-8.85
-10.60
-12.66
-15.24
-18.41
-22.10
-26.02
-29.71
-32.55
-33.92
-33.39
-30.79
-26.37
-20.71
-14.58
-8.70
-3.56
0.63
3.88
6.28
7.92
8.81
8.98
8.52
7.61
6.47
5.33
4.34
3.55
3.02
2.74
2.75
3.06
3.61
4.29
4.92
5.33
5.42
5.16
4.59
3.77
2.77
1.58
0.20
-1.40
-3.20
-5.10
-6.96
-8.68
-10.21
-11.64
-13.11
-14.78
-16.64
-18.50
-19.97
-20.55
-19.81
-17.55
-13.85
-9.08
-3.75
1.62
6.56
10.74
13.94
16.10
17.21
17.41
16.92
15.98
14.85
13.71
12.74
12.04
11.68
11.68
12.00
12.49
12.95
13.16
12.97
12.35
11.38
10.21
8.99
7.77
6.57
5.30
3.91
2.37
0.72
-0.94
-2.50
-3.89
-5.11
-6.23
-7.40
-8.76
-10.41
-12.31
-14.25
-15.87
-16.75
-16.50
-14.89
-11.98
-8.09
-3.74
0.48
4.05
6.63
8.14
8.66
8.36
7.46
6.12
4.44
2.56
0.61
-1.20
-2.66
-3.60
-3.94
-3.71
-3.03
-2.15
-1.27
-0.60
-0.26
-0.19
-0.27
-0.35
-0.32
-0.20
-0.10
-0.20
-0.62
-1.39
-2.44
-3.68
-5.04
-6.53
-8.16
-9.96
-11.95
-14.13
-16.52
-19.10
-21.72
-24.09
-25.76
-26.22
-25.14
-22.47
-18.49
-13.69
-8.67
-3.91
0.29
3.78
6.55
8.63
10.03
10.81
11.07
10.95
10.64
10.30
10.03
9.82
9.59
9.29
8.94
8.63
8.53
8.71
9.17
9.78
10.35
10.65
10.45
9.48
7.54
4.57
0.77
-3.34
-7.03
-9.61
-10.60
-9.99
-8.12
-5.56
-2.93
-0.71
0.67
0.80
-0.74
-4.25
-9.73
-16.64
-23.92
-30.17
-34.11
-34.99
-32.76
-28.08
-21.90
-15.20
-8.69
-2.76
2.41
6.71
10.04
12.31
13.51
13.80
13.43
12.68
11.77
10.75
9.60
8.30
6.89
5.59
4.66
4.30
4.50
5.04
5.51
5.59
5.09
4.05
2.62
0.95
-0.89
-2.94
-5.28
-7.90
-10.67
-13.32
-15.59
-17.31
-18.50
-19.38
-20.29
-21.53
-23.28
-25.50
-27.99
-30.43
-32.43
-33.56
-33.40
-31.67
-28.29
-23.58
-18.21
-13.03
-8.74
-5.56
-3.16
-0.83
2.17
6.16
10.99
16.09
20.80
24.70
27.69
29.86
31.32
32.04
31.83
30.52
28.12
24.90
21.32
17.84
14.72
12.00
9.48
6.98
4.39
1.79
-0.64
-2.72
-4.39
-5.75
-7.01
-8.43
-10.19
-12.34
-14.79
-17.35
-19.78
-21.87
-23.52
-24.83
-26.01
-27.41
-29.35
-31.90
-34.79
-37.37
-38.74
-38.10
-34.99
-29.53
-22.35
-14.38
-6.50
0.66
6.80
11.81
15.71
18.47
20.10
20.68
20.38
19.47
18.18
16.67
15.04
13.37
11.85
10.70
10.16
10.33
11.14
12.33
13.61
14.71
15.55
16.15
16.58
16.86
16.90
16.55
15.64
14.15
12.12
9.72
7.13
4.46
1.78
-0.95
-3.77
-6.76
-10.02
-13.64
-17.66
-21.98
-26.31
-30.10
-32.68
-33.37
-31.70
-27.63
-21.50
-14.02
-6.06
1.59
8.38
13.99
18.29
21.32
23.12
23.81
23.57
22.64
21.33
19.90
18.58
17.45
16.55
15.89
15.48
15.39
15.62
16.13
16.78
17.38
17.75
17.74
17.24
16.19
14.53
12.27
9.47
6.35
3.17
0.17
-2.53
-4.97
-7.37
-10.00
-13.14
-16.94
-21.37
-26.15
-30.72
-34.30
-36.02
-35.24
-31.71
-25.76
-18.13
-9.85
-1.87
5.12
10.72
14.85
17.55
18.98
19.29
18.68
17.35
15.52
13.38
11.18
9.15
7.55
6.59
6.37
6.85
7.86
9.12
10.31
11.21
11.64
11.51
10.79
9.44
7.48
4.99
2.13
-0.86
-3.74
-6.40
-8.87
-11.38
-14.28
-17.96
-22.60
-28.02
-33.56
-38.15
-40.59
-39.93
-35.87
-28.83
-19.89
-10.29
-1.16
6.82
13.38
18.50
22.24
24.65
25.76
25.70
24.68
23.02
21.05
19.04
17.17
15.56
14.29
13.41
12.95
12.92
13.24
13.84
14.57
15.27
15.73
15.69
14.91
13.19
10.50
6.97
2.93
-1.19
-5.09
-8.61
-11.83
-15.03
-18.55
-22.70
-27.64
-33.28
-39.20
-44.63
-48.59
-50.05
-48.23
-42.92
-34.56
-24.16
-13.09
-2.58
6.49
13.77
19.30
23.32
26.08
27.72
28.29
27.91
26.79
25.27
23.68
22.34
21.41
20.94
20.87
21.11
21.47
21.80
21.91
21.70
21.15
20.33
19.36
18.28
17.06
15.52
13.48
10.83
7.59
3.95
0.13
-3.64
-7.30
-10.87
-14.55
-18.56
-23.14
-28.38
-34.15
-40.01
-45.19
-48.69
-49.57
-47.20
-41.54
-33.19
-23.21
-12.81
-3.02
5.55
12.62
18.15
22.21
24.92
26.41
26.87
26.54
25.63
24.32
22.77
21.22
19.95
19.27
19.39
20.35
21.95
23.82
25.52
26.66
26.98
26.39
24.94
22.84
20.36
17.73
15.07
12.29
9.26
5.84
2.08
-1.83
-5.63
-9.12
-12.28
-15.29
-18.42
-22.01
-26.35
-31.58
-37.61
-43.96
-49.76
-53.82
-54.93
-52.25
-45.62
-35.69
-23.69
-11.12
0.69
10.85
18.95
25.00
29.19
31.76
32.94
32.97
32.09
30.62
28.87
27.14
25.68
24.67
24.25
24.48
25.29
26.53
27.90
29.07
29.77
29.84
29.24
28.09
26.49
24.55
22.30
19.81
17.08
14.15
11.04
7.67
3.98
-0.10
-4.51
-9.07
-13.52
-17.68
-21.52
-25.31
-29.50
-34.52
-40.50
-47.03
-53.07
-57.22
-58.07
-54.72
-47.09
-35.94
-22.68
-8.96
3.80
14.63
23.09
29.16
33.02
34.98
35.36
34.52
32.90
30.94
29.03
27.50
26.48
26.05
26.17
26.75
27.65
28.73
29.84
30.86
31.65
32.01
31.75
30.72
28.87
26.33
23.34
20.21
17.13
14.12
11.04
7.70
3.94
-0.20
-4.56
-8.86
-12.80
-16.15
-18.85
-21.08
-23.18
-25.68
-28.99
-33.20
-37.89
-42.08
-44.48
-43.89
-39.59
-31.65
-20.95
-8.90
2.88
13.01
20.66
25.62
28.16
28.85
28.25
26.81
24.77
22.27
19.42
16.43
13.59
11.29
9.87
9.53
10.23
11.78
13.84
16.04
18.11
19.85
21.18
22.04
22.35
22.01
20.88
18.86
15.93
12.18
7.78
2.96
-2.04
-6.98
-11.62
-15.85
-19.70
-23.46
-27.52
-32.27
-37.73
-43.42
-48.35
-51.24
-51.02
-47.14
-39.84
-30.00
-18.85
-7.64
2.63
11.32
18.08
22.77
25.41
26.12
25.15
22.83
19.60
15.90
12.19
8.90
6.31
4.59
3.75
3.73
4.38
5.51
6.92
8.36
9.57
10.21
10.03
8.85
6.71
3.76
0.28
-3.42
-7.10
-10.61
-13.96
-17.27
-20.82
-24.93
-29.88
-35.64
-41.71
-47.06
-50.32
-50.13
-45.74
-37.24
-25.68
-12.75
-0.21
10.56
18.85
24.65
28.30
30.29
30.97
30.52
29.08
26.76
23.87
20.81
18.05
15.99
14.83
14.50
14.71
15.12
15.40
15.40
15.09
14.56
13.85
12.91
11.62
9.79
7.31
4.17
0.53
-3.35
-7.18
-10.72
-13.95
-16.95
-19.95
-23.16
-26.77
-30.91
-35.63
-40.91
-46.46
-51.63
-55.36
-56.43
-53.80
-47.11
-36.84
-24.25
-10.97
1.50
12.18
20.61
26.84
31.08
33.63
34.78
34.81
34.08
32.93
31.63
30.34
29.12
27.93
26.84
26.00
25.69
26.12
27.35
29.15
31.07
32.47
32.74
31.46
28.42
23.73
17.77
11.13
4.59
-1.12
-5.45
-8.19
-9.52
-9.95
-10.13
-10.68
-12.06
-14.55
-18.30
-23.37
-29.73
-37.17
-45.17
-52.80
-58.77
-61.70
-60.50
-54.74
-44.94
-32.46
-19.11
-6.62
3.76
11.57
16.89
20.17
21.90
22.43
22.04
20.99
19.54
17.98
16.51
15.28
14.38
13.90
13.93
14.51
15.53
16.72
17.72
18.20
18.02
17.24
16.07
14.72
13.34
11.96
10.51
8.88
6.88
4.24
0.68
-3.92
-9.41
-15.26
-20.64
-24.75
-27.13
-27.93
-27.86
-27.99
-29.26
-32.16
-36.44
-41.10
-44.77
-46.07
-44.12
-38.76
-30.58
-20.68
-10.36
-0.79
7.20
13.17
17.05
19.00
19.38
18.66
17.30
15.76
14.36
13.30
12.65
12.42
12.60
13.18
14.12
15.35
16.74
18.11
19.25
19.94
20.07
19.56
18.46
16.89
15.02
12.96
10.80
8.54
6.13
3.53
0.68
-2.44
-5.81
-9.33
-12.92
-16.48
-19.97
-23.48
-27.18
-31.27
-35.71
-40.13
-43.72
-45.40
-44.15
-39.40
-31.30
-20.77
-9.17
2.07
11.82
19.48
24.98
28.55
30.50
31.06
30.40
28.68
26.18
23.28
20.48
18.19
16.68
15.95
15.83
16.03
16.33
16.67
17.09
17.67
18.37
18.98
19.10
18.32
16.34
13.11
8.87
4.08
-0.72
-5.01
-8.44
-10.93
-12.71
-14.27
-16.28
-19.34
-23.85
-29.67
-36.04
-41.63
-44.83
-44.24
-39.11
-29.71
-17.21
-3.38
10.02
21.64
30.80
37.34
41.36
42.96
42.17
39.13
34.23
28.18
21.91
16.30
11.93
8.93
7.09
6.02
5.35
4.90
4.60
4.45
4.35
4.04
3.21
1.53
-1.15
-4.79
-9.12
-13.73
-18.21
-22.32
-26.02
-29.53
-33.19
-37.37
-42.26
-47.75
-53.30
-57.97
-60.58
-59.98
-55.51
-47.21
-35.99
-23.35
-10.99
-0.30
7.97
13.79
17.58
19.94
21.33
22.01
22.07
21.56
20.56
19.19
17.59
15.91
14.25
12.75
11.51
10.66
10.27
10.40
10.97
11.85
12.79
13.44
13.40
12.33
10.00
6.41
1.78
-3.57
-9.24
-14.86
-20.15
-24.91
-29.01
-32.48
-35.48
-38.34
-41.50
-45.32
-49.84
-54.61
-58.64
-60.58
-59.15
-53.55
-43.82
-30.92
-16.38
-1.98
10.81
21.05
28.41
33.03
35.32
35.82
35.12
33.74
32.14
30.65
29.37
28.30
27.36
26.53
25.87
25.55
25.68
26.26
27.12
27.99
28.58
28.64
28.05
26.80
24.95
22.63
19.97
17.06
13.93
10.47
6.60
2.26
-2.43
-7.20
-11.72
-15.72
-19.14
-22.17
-25.15
-28.53
-32.65
-37.55
-42.89
-47.84
-51.18
-51.63
-48.24
-40.80
-29.99
-17.23
-4.24
7.48
17.01
24.03
28.69
31.34
32.35
32.11
30.96
29.35
27.66
26.23
25.14
24.38
23.83
23.43
23.25
23.44
24.12
25.24
26.60
27.76
28.30
27.93
26.57
24.42
21.78
18.99
16.28
13.66
11.00
8.11
4.80
1.01
-3.18
-7.55
-11.83
-15.81
-19.45
-22.92
-26.60
-30.95
-36.18
-42.05
-47.71
-51.84
-53.03
-50.28
-43.40
-33.12
-20.87
-8.33
3.04
12.31
19.17
23.74
26.40
27.56
27.54
26.58
24.90
22.73
20.33
18.01
16.08
14.77
14.18
14.25
14.79
15.54
16.23
16.71
16.89
16.73
16.18
15.18
13.63
11.46
8.65
5.25
1.43
-2.59
-6.57
-10.33
-13.75
-16.83
-19.63
-22.33
-25.16
-28.42
-32.41
-37.24
-42.71
-48.12
-52.38
-54.27
-52.79
-47.61
-39.25
-28.91
-18.11
-8.20
-0.01
6.25
10.74
13.79
15.61
16.30
15.89
14.47
12.31
9.82
7.47
5.63
4.49
4.06
4.28
5.08
6.42
8.29
10.60
13.16
15.72
18.00
19.80
21.05
21.75
21.95
21.71
21.05
19.94
18.33
16.11
13.24
9.62
5.24
0.08
-5.89
-12.70
-20.36
-28.64
-36.93
-44.13
-48.80
-49.57
-45.61
-37.00
-24.76
-10.62
3.55
16.13
26.11
33.14
37.37
39.20
39.09
37.42
34.51
30.68
26.28
21.74
17.52
13.96
11.21
9.19
7.69
6.50
5.60
5.10
5.15
5.69
6.35
6.48
5.35
2.44
-2.28
-8.34
-14.92
-21.17
-26.49
-30.64
-33.80
-36.39
-38.96
-42.05
-46.07
-51.19
-57.20
-63.49
-69.05
-72.74
-73.65
-71.46
-66.56
-60.07
-53.49
-48.26
-45.34
-44.93
-46.43
-48.59
-49.90
-48.99
-44.98
-37.65
-27.38
-14.95
-1.31
12.48
25.36
36.28
44.38
49.21
50.86
50.06
48.06
46.26
45.81
47.30
50.57
54.79
58.67
60.86
60.33
56.69
50.27
42.03
33.17
24.84
17.79
12.31
8.20
4.92
1.85
-1.38
-4.56
-6.75
-6.56
-2.56
6.02
18.84
34.44
50.67
65.37
77.02
85.08
89.90
92.36
93.43
93.86
94.01
93.91
93.36
92.12
90.17
87.81
85.60
84.25
84.32
86.09
89.48
94.00
98.75
102.62
104.36
102.90
97.61
88.58
76.70
63.42
50.39
38.97
29.85
22.95
17.68
13.23
8.90
4.22
-0.96
-6.51
-12.15
-17.35
-21.50
-23.94
-24.14
-21.94
-17.70
-12.26
-6.70
-2.08
0.96
2.26
2.16
1.29
0.29
-0.42
-0.72
-0.91
-1.60
-3.55
-7.42
-13.42
-21.17
-29.84
-38.32
-45.61
-51.02
-54.21
-55.10
-53.84
-50.71
-46.19
-41.12
-36.69
-34.31
-35.34
-40.64
-50.28
-63.48
-78.77
-94.34
-108.42
-119.61
-126.91
-129.71
-127.51
-119.92
-106.77
-88.56
-66.65
-43.19
-20.70
-1.24
14.04
25.13
32.70
37.57
40.11
40.21
37.61
32.49
25.80
19.24
14.62
13.26
15.31
19.72
24.67
28.16
28.83
26.33
21.27
14.81
8.07
1.62
-4.65
-11.41
-19.60
-30.02
-42.99
-58.29
-75.01
-91.59
-105.98
-115.99
-119.79
-116.55
-106.72
-92.13
-75.42
-59.32
-45.90
-36.06
-29.67
-25.89
-23.75
-22.55
-21.96
-21.83
-21.97
-21.96
-21.25
-19.40
-16.39
-12.68
-9.11
-6.52
-5.37
-5.47
-6.09
-6.27
-5.32
-3.06
0.04
3.14
5.34
6.03
4.98
2.36
-1.27
-5.19
-8.48
-10.28
-9.88
-6.94
-1.67
5.20
12.50
18.96
23.65
26.23
27.08
27.17
27.60
29.16
32.08
35.97
40.07
43.67
46.30
47.89
48.57
48.55
47.97
46.98
45.62
43.97
41.99
39.55
36.45
32.45
27.46
21.46
14.50
6.47
-2.94
-14.05
-26.96
-41.17
-55.49
-68.34
-78.22
-84.08
-85.52
-82.58
-75.58
-65.05
-51.88
-37.41
-23.43
-11.72
-3.57
0.63
1.43
-0.07
-2.73
-5.68
-8.54
-11.16
-13.54
-15.66
-17.54
-19.28
-21.00
-22.92
-25.26
-28.42
-32.98
-39.50
-48.21
-58.60
-69.46
-79.26
-86.84
-91.88
-94.86
-96.57
-97.48
-97.35
-95.39
-90.68
-82.58
-70.99
-56.13
-38.50
-18.71
2.29
23.26
42.77
59.57
72.97
82.84
89.49
93.30
94.59
93.71
91.22
87.93
84.74
82.28
80.76
79.90
79.14
77.86
75.58
72.07
67.34
61.56
55.04
48.10
41.04
34.06
27.25
20.61
14.02
7.33
0.32
-7.15
-15.01
-22.84
-29.86
-35.05
-37.49
-36.64
-32.62
-26.20
-18.53
-10.84
-4.04
1.39
5.43
8.27
10.11
11.00
10.90
9.80
7.86
5.48
3.15
1.29
0.09
-0.50
-0.72
-0.84
-1.04
-1.40
-1.98
-2.83
-4.06
-5.76
-7.95
-10.64
-13.81
-17.48
-21.81
-26.96
-32.99
-39.68
-46.39
-52.10
-55.57
-55.71
-51.97
-44.54
-34.36
-22.90
-11.72
-2.06
5.35
10.29
12.93
13.64
12.81
10.86
8.27
5.63
3.48
2.29
2.23
3.19
4.82
6.71
8.53
10.15
11.55
12.74
13.61
13.94
13.48
12.07
9.76
6.80
3.50
0.10
-3.34
-6.96
-11.06
-15.95
-21.83
-28.63
-35.88
-42.62
-47.63
-49.69
-48.01
-42.59
-34.27
-24.48
-14.76
-6.31
0.29
5.01
8.16
10.11
11.12
11.28
10.69
9.53
8.06
6.62
5.52
4.86
4.56
4.44
4.34
4.21
4.13
4.29
4.79
5.57
6.35
6.72
6.32
4.87
2.28
-1.43
-6.15
-11.72
-17.98
-24.80
-32.13
-40.07
-48.78
-58.35
-68.63
-78.97
-88.22
-94.94
-97.81
-95.99
-89.48
-79.09
-66.21
-52.41
-39.02
-26.87
-16.29
-7.29
0.28
6.55
11.61
15.59
18.73
21.39
23.96
26.75
29.88
33.23
36.59
39.74
42.52
44.95
47.14
49.15
50.97
52.38
53.06
52.60
50.73
47.40
42.84
37.46
31.74
26.03
20.49
15.07
9.57
3.65
-3.05
-10.75
-19.42
-28.54
-37.12
-43.81
-47.25
-46.44
-41.17
-32.02
-20.26
-7.46
4.91
15.80
24.68
31.42
36.26
39.48
41.37
42.21
42.19
41.53
40.47
39.26
38.24
37.70
37.90
38.93
40.68
42.79
44.73
45.99
46.18
45.15
42.96
39.81
35.93
31.54
26.85
22.07
17.32
12.63
7.76
2.28
-4.22
-11.86
-20.10
-27.75
-33.15
-34.63
-31.21
-22.86
-10.67
3.57
17.87
30.58
40.76
48.11
52.83
55.35
56.11
55.54
54.01
51.87
49.54
47.37
45.67
44.65
44.26
44.29
44.34
44.02
43.03
41.36
39.24
37.05
35.06
33.26
31.35
28.79
25.13
20.19
14.17
7.60
1.07
-5.01
-10.55
-15.79
-21.10
-26.79
-33.05
-39.89
-47.19
-54.66
-61.63
-67.06
-69.59
-67.91
-61.29
-49.98
-35.26
-19.11
-3.64
9.63
19.92
27.28
32.20
35.31
37.20
38.27
38.85
39.17
39.37
39.53
39.66
39.83
40.15
40.84
42.06
43.77
45.64
47.07
47.31
45.73
42.02
36.32
29.18
21.48
14.15
7.97
3.37
0.34
-1.54
-2.90
-4.33
-6.23
-8.74
-11.79
-15.24
-19.03
-23.34
-28.49
-34.85
-42.58
-51.39
-60.35
-67.97
-72.57
-72.74
-67.86
-58.31
-45.34
-30.68
-15.96
-2.41
9.28
18.78
25.95
30.74
33.25
33.82
33.09
31.85
30.82
30.43
30.74
31.48
32.25
32.72
32.72
32.24
31.37
30.26
29.08
28.03
27.31
27.09
27.41
28.19
29.18
30.03
30.36
29.77
27.88
24.33
18.93
11.74
3.18
-6.01
-14.98
-22.99
-29.61
-34.90
-39.31
-43.59
-48.43
-54.26
-60.94
-67.61
-72.77
-74.69
-71.95
-64.04
-51.60
-36.29
-20.26
-5.43
6.95
16.47
23.35
28.04
30.95
32.34
32.42
31.52
30.09
28.67
27.68
27.33
27.59
28.30
29.31
30.50
31.84
33.29
34.70
35.82
36.34
36.00
34.68
32.43
29.47
26.13
22.72
19.47
16.45
13.55
10.54
7.14
3.16
-1.47
-6.56
-11.78
-16.71
-21.02
-24.63
-27.79
-31.07
-35.16
-40.59
-47.40
-54.94
-61.85
-66.37
-66.88
-62.43
-53.06
-39.84
-24.55
-9.13
4.77
16.10
24.45
29.95
32.96
33.99
33.56
32.17
30.24
28.15
26.16
24.48
23.24
22.53
22.41
22.85
23.78
25.05
26.47
27.79
28.74
29.01
28.34
26.57
23.71
19.98
15.77
11.52
7.57
4.01
0.66
-2.83
-6.77
-11.25
-16.06
-20.80
-25.02
-28.50
-31.28
-33.77
-36.58
-40.36
-45.49
-51.92
-58.91
-65.12
-68.83
-68.47
-63.13
-52.95
-39.14
-23.61
-8.40
4.86
15.30
22.75
27.56
30.24
31.23
30.90
29.52
27.43
25.03
22.77
21.01
20.01
19.79
20.26
21.23
22.49
23.91
25.36
26.76
27.88
28.44
28.13
26.72
24.16
20.71
16.79
12.93
9.47
6.52
3.82
0.94
-2.52
-6.80
-11.79
-17.09
-22.12
-26.41
-29.70
-32.14
-34.23
-36.73
-40.42
-45.71
-52.42
-59.57
-65.55
-68.54
-67.09
-60.65
-49.76
-35.90
-20.98
-6.73
5.60
15.40
22.56
27.19
29.56
30.02
29.06
27.30
25.34
23.65
22.42
21.66
21.22
21.01
21.10
21.61
22.70
24.32
26.24
28.05
29.27
29.55
28.71
26.74
23.83
20.28
16.41
12.54
8.91
5.64
2.67
-0.19
-3.18
-6.46
-10.06
-13.87
-17.65
-21.19
-24.40
-27.35
-30.37
-33.91
-38.41
-43.98
-50.24
-56.15
-60.22
-60.93
-57.22
-48.96
-36.96
-22.85
-8.49
4.53
15.18
23.12
28.46
31.57
32.89
32.81
31.73
30.04
28.14
26.43
25.21
24.71
25.02
26.12
27.94
30.37
33.23
36.26
39.02
40.92
41.32
39.76
36.21
31.18
25.56
20.29
16.05
12.92
10.47
7.94
4.64
0.25
-5.14
-11.08
-17.03
-22.49
-27.18
-31.07
-34.31
-37.25
-40.37
-44.15
-48.92
-54.55
-60.32
-64.94
-66.86
-64.86
-58.46
-48.27
-35.75
-22.75
-10.94
-1.34
5.76
10.61
13.71
15.49
16.21
16.01
14.99
13.31
11.27
9.23
7.55
6.54
6.36
7.02
8.32
9.93
11.47
12.55
12.93
12.48
11.22
9.27
6.80
3.96
0.87
-2.46
-6.03
-9.85
-13.88
-17.95
-21.83
-25.35
-28.42
-31.11
-33.66
-36.39
-39.67
-43.71
-48.47
-53.55
-58.14
-61.08
-61.19
-57.60
-50.05
-39.09
-25.93
-12.14
0.82
11.82
20.29
26.06
29.34
30.44
29.80
27.90
25.25
22.38
19.80
17.86
16.78
16.59
17.19
18.34
19.82
21.40
22.88
24.09
24.81
24.78
23.70
21.27
17.38
12.18
6.10
-0.28
-6.36
-11.75
-16.40
-20.61
-24.85
-29.68
-35.46
-42.26
-49.74
-57.01
-62.76
-65.52
-64.04
-57.80
-47.23
-33.70
-19.07
-5.13
6.79
16.13
22.92
27.51
30.27
31.49
31.35
30.11
28.11
25.75
23.52
21.82
20.93
21.01
22.02
23.75
25.80
27.73
29.13
29.74
29.44
28.31
26.47
24.02
20.99
17.34
13.07
8.19
2.88
-2.61
-8.02
-13.15
-17.87
-22.25
-26.44
-30.74
-35.57
-41.33
-48.34
-56.49
-65.06
-72.66
-77.48
-77.82
-72.71
-62.30
-47.89
-31.51
-15.25
-0.73
11.23
20.46
27.22
31.88
34.72
36.00
36.05
35.31
34.29
33.43
32.95
32.90
33.17
33.70
34.49
35.64
37.16
38.91
40.56
41.64
41.74
40.62
38.30
35.01
31.08
26.86
22.55
18.25
13.89
9.36
4.52
-0.68
-6.15
-11.69
-16.98
-21.75
-25.85
-29.40
-32.78
-36.64
-41.66
-48.32
-56.48
-65.21
-72.84
-77.28
-76.77
-70.41
-58.59
-42.86
-25.45
-8.60
6.03
17.59
25.99
31.61
34.99
36.61
36.95
36.40
35.37
34.26
33.33
32.73
32.46
32.40
32.46
32.60
32.87
33.39
34.22
35.28
36.32
36.90
36.57
35.02
32.17
28.28
23.76
19.07
14.50
10.14
5.88
1.55
-2.95
-7.66
-12.54
-17.45
-22.27
-26.84
-31.08
-35.03
-38.94
-43.26
-48.52
-55.02
-62.43
-69.68
-75.01
-76.47
-72.57
-62.80
-47.90
-29.64
-10.35
7.74
22.92
34.27
41.68
45.59
46.80
46.24
44.74
42.88
40.95
38.97
36.90
34.77
32.77
31.23
30.48
30.68
31.78
33.45
35.23
36.58
37.02
36.21
34.02
30.58
26.24
21.49
16.83
12.53
8.58
4.66
0.35
-4.62
-10.24
-16.17
-21.89
-26.95
-31.22
-34.92
-38.59
-42.86
-48.23
-54.80
-62.11
-69.10
-74.23
-75.80
-72.50
-63.79
-50.27
-33.57
-15.88
0.63
14.46
24.92
32.13
36.57
38.78
39.13
37.89
35.38
32.05
28.55
25.54
23.56
22.81
23.20
24.40
25.97
27.54
28.86
29.85
30.48
30.70
30.36
29.17
26.86
23.23
18.31
12.39
5.91
-0.56
-6.55
-11.79
-16.28
-20.34
-24.50
-29.41
-35.55
-42.96
-51.04
-58.53
-63.72
-64.90
-60.93
-51.59
-37.76
-21.15
-3.88
12.08
25.36
35.32
41.95
45.59
46.70
45.69
42.99
39.11
34.68
30.40
26.90
24.59
23.57
23.60
24.29
25.16
25.86
26.24
26.27
26.01
25.46
24.51
22.92
20.34
16.49
11.27
4.92
-2.11
-9.17
-15.77
-21.63
-26.82
-31.75
-36.95
-42.96
-50.04
-58.05
-66.26
-73.43
-77.93
-78.18
-73.16
-62.79
-48.07
-30.78
-13.00
3.46
17.40
28.28
36.06
40.96
43.37
43.76
42.70
40.76
38.51
36.38
34.64
33.41
32.72
32.55
32.85
33.58
34.63
35.81
36.85
37.40
37.10
35.71
33.13
29.47
25.01
20.08
14.92
9.61
4.09
-1.67
-7.62
-13.53
-19.07
-23.96
-28.13
-31.73
-35.22
-39.28
-44.62
-51.82
-61.05
-71.81
-82.78
-92.00
-97.24
-96.63
-89.29
-75.58
-57.09
-36.20
-15.38
3.32
18.55
29.72
36.86
40.37
40.94
39.38
36.61
33.52
30.85
29.07
28.33
28.49
29.28
30.38
31.62
32.95
34.41
36.03
37.67
39.07
39.80
39.48
37.87
35.03
31.23
26.90
22.40
17.92
13.42
8.71
3.61
-2.02
-8.08
-14.28
-20.21
-25.46
-29.82
-33.41
-36.74
-40.62
-45.81
-52.67
-60.79
-68.82
-74.80
-76.64
-72.87
-63.12
-48.28
-30.29
-11.52
5.84
20.25
31.02
38.15
42.09
43.41
42.71
40.50
37.34
33.74
30.21
27.10
24.55
22.57
21.10
20.19
20.00
20.74
22.49
25.02
27.80
30.10
31.20
30.67
28.43
24.77
20.17
15.12
9.96
4.74
-0.66
-6.45
-12.70
-19.28
-25.85
-31.98
-37.32
-41.78
-45.58
-49.21
-53.30
-58.24
-63.94
-69.59
-73.74
-74.63
-70.76
-61.48
-47.25
-29.61
-10.69
7.40
23.06
35.44
44.33
49.96
52.70
52.98
51.25
48.09
44.17
40.20
36.80
34.35
33.04
32.74
33.19
34.03
34.94
35.68
36.17
36.37
36.24
35.62
34.18
31.54
27.45
21.99
15.57
8.93
2.79
-2.40
-6.59
-10.19
-13.84
-18.21
-23.77
-30.67
-38.68
-47.12
-54.91
-60.69
-63.05
-60.92
-53.99
-42.90
-29.19
-14.78
-1.52
9.34
17.30
22.44
25.13
25.75
24.62
22.10
18.71
15.08
11.84
9.38
7.78
6.82
6.21
5.81
5.64
5.83
6.37
7.03
7.35
6.81
5.04
1.97
-2.11
-6.78
-11.56
-16.13
-20.39
-24.48
-28.70
-33.47
-39.18
-45.88
-53.13
-59.85
-64.41
-65.17
-60.97
-51.65
-38.13
-22.20
-5.97
8.72
20.67
29.37
34.86
37.54
37.91
36.54
33.98
30.77
27.34
24.01
20.99
18.42
16.37
14.87
13.97
13.66
13.80
14.16
14.34
13.87
12.31
9.41
5.19
-0.01
-5.67
-11.24
-16.31
-20.71
-24.56
-28.23
-32.27
-37.22
-43.35
-50.35
-57.17
-62.13
-63.34
-59.42
-50.06
-36.29
-20.14
-4.00
10.15
21.25
29.17
34.36
37.44
38.92
39.08
38.13
36.36
34.17
32.03
30.30
29.17
28.58
28.26
27.92
27.33
26.47
25.45
24.47
23.64
22.84
21.77
19.97
17.02
12.75
7.30
1.07
-5.40
-11.57
-17.09
-21.86
-25.99
-29.80
-33.73
-38.26
-43.74
-50.24
-57.24
-63.70
-68.06
-68.75
-64.61
-55.42
-41.97
-25.94
-9.41
5.74
18.25
27.61
33.97
37.90
40.04
40.95
41.03
40.48
39.48
38.19
36.81
35.58
34.70
34.28
34.33
34.74
35.35
35.95
36.34
36.31
35.72
34.41
32.30
29.37
25.67
21.31
16.45
11.22
5.70
-0.01
-5.80
-11.50
-16.90
-21.83
-26.28
-30.36
-34.39
-38.70
-43.63
-49.38
-55.92
-62.82
-69.16
-73.58
-74.59
-71.07
-62.78
-50.59
-36.29
-21.98
-9.37
0.73
8.45
14.53
19.77
24.64
29.16
33.02
35.84
37.44
37.86
37.33
36.17
34.71
33.22
32.04
31.47
31.74
32.89
34.69
36.66
38.16
38.60
37.60
35.14
31.52
27.29
23.00
19.01
15.34
11.67
7.53
2.55
-3.29
-9.58
-15.60
-20.65
-24.39
-27.05
-29.38
-32.42
-37.09
-43.80
-52.13
-60.70
-67.40
-69.96
-66.65
-56.92
-41.66
-23.00
-3.57
14.22
28.74
39.32
46.03
49.29
49.64
47.61
43.78
38.82
33.49
28.53
24.55
21.89
20.61
20.48
21.10
22.03
22.90
23.50
23.82
23.91
23.78
23.33
22.28
20.34
17.31
13.17
8.20
2.82
-2.49
-7.35
-11.57
-15.21
-18.47
-21.67
-25.10
-29.02
-33.60
-38.81
-44.35
-49.53
-53.26
-54.28
-51.47
-44.35
-33.37
-19.87
-5.75
7.13
17.45
24.71
29.04
30.98
31.05
29.66
27.09
23.67
19.86
16.23
13.36
11.61
11.02
11.33
12.11
13.01
13.83
14.61
15.43
16.30
16.97
16.97
15.76
12.95
8.56
3.05
-2.79
-8.19
-12.65
-16.12
-19.01
-21.99
-25.76
-30.81
-37.24
-44.65
-52.10
-58.20
-61.36
-60.26
-54.18
-43.46
-29.39
-13.98
0.69
12.97
21.99
27.68
30.47
31.01
29.90
27.61
24.54
21.09
17.72
14.91
13.03
12.26
12.54
13.55
14.89
16.09
16.89
17.21
17.14
16.81
16.24
15.26
13.55
10.81
6.94
2.12
-3.19
-8.42
-13.13
-17.11
-20.50
-23.68
-27.05
-31.01
-35.74
-41.25
-47.32
-53.37
-58.45
-61.27
-60.52
-55.27
-45.44
-31.96
-16.65
-1.61
11.34
21.17
27.70
31.41
33.02
33.19
32.38
30.92
29.06
27.09
25.26
23.77
22.74
22.20
22.15
22.50
23.18
24.05
24.89
25.47
25.50
24.83
23.41
21.28
18.59
15.47
12.06
8.40
4.51
0.36
-4.02
-8.55
-13.07
-17.36
-21.23
-24.62
-27.66
-30.67
-34.11
-38.37
-43.62
-49.54
-55.25
-59.43
-60.58
-57.53
-49.84
-38.07
-23.69
-8.67
5.03
16.05
23.78
28.39
30.53
30.94
30.26
28.94
27.26
25.45
23.72
22.25
21.15
20.41
19.97
19.72
19.66
19.90
20.53
21.59
22.89
24.04
24.50
23.81
21.77
18.53
14.52
10.32
6.43
3.09
0.23
-2.43
-5.24
-8.46
-12.13
-16.07
-19.95
-23.44
-26.31
-28.55
-30.41
-32.33
-34.90
-38.58
-43.50
-49.31
-55.01
-59.14
-60.12
-56.71
-48.54
-36.27
-21.49
-6.26
7.50
18.50
26.26
30.95
33.12
33.39
32.30
30.25
27.66
24.94
22.50
20.63
19.48
19.05
19.17
19.67
20.37
21.11
21.82
22.48
23.04
23.42
23.44
22.82
21.27
18.61
14.93
10.59
6.15
2.10
-1.29
-4.14
-6.85
-9.92
-13.71
-18.31
-23.46
-28.66
-33.41
-37.33
-40.38
-42.87
-45.42
-48.85
-53.75
-60.24
-67.63
-74.46
-78.81
-78.95
-73.98
-64.20
-51.11
-37.02
-24.35
-15.00
-9.86
-8.61
-9.86
-11.55
-11.60
-8.47
-1.63
8.38
20.16
31.99
42.32
50.08
54.86
56.78
56.28
53.98
50.51
46.43
42.18
38.09
34.36
31.18
28.65
26.86
25.85
25.56
25.87
26.58
27.42
28.04
28.08
27.24
25.36
22.52
19.01
15.21
11.48
8.00
4.71
1.42
-2.12
-6.06
-10.31
-14.65
-18.78
-22.50
-25.76
-28.76
-31.88
-35.54
-40.07
-45.37
-50.79
-55.11
-56.84
-54.66
-48.00
-37.29
-23.88
-9.67
3.56
14.51
22.62
