1680160875.00
64.000000
-0.00
-0.00
-0.00
-0.00
-0.00
-0.00
-0.00
-0.00
-0.00
-0.00
0.00
0.01
0.01
-0.00
-0.03
-0.05
-0.05
0.00
0.13
0.36
0.66
1.01
1.37
1.72
2.06
2.40
2.79
3.24
3.80
4.42
5.06
5.66
6.20
6.68
7.15
7.68
8.31
9.14
10.09
11.04
11.88
12.56
13.14
13.76
14.65
15.96
17.91
20.32
22.90
25.38
27.58
29.57
31.68
34.32
37.81
42.54
48.15
54.10
59.83
64.97
69.58
74.14
79.34
85.71
93.76
103.00
112.62
121.73
129.77
136.75
143.30
150.75
157.77
166.64
177.95
191.79
206.97
220.57
228.25
225.36
208.53
176.87
132.76
80.05
23.07
-34.94
-92.44
-149.16
-205.23
-260.37
-313.74
-363.88
-409.83
-450.91
-486.50
-515.72
-537.20
-549.18
-549.89
-538.27
-514.07
-478.50
-433.66
-382.18
-326.69
-269.45
-212.18
-156.14
-102.37
-51.72
-5.17
36.39
72.32
102.33
126.57
145.55
159.97
170.54
177.89
182.41
184.39
184.05
181.69
177.63
172.29
166.09
159.36
152.35
145.21
138.01
130.79
123.60
116.50
109.56
102.85
96.43
90.33
84.56
79.15
74.09
69.39
65.07
61.14
57.59
54.42
51.63
49.19
47.14
45.45
44.14
43.19
42.58
42.28
42.20
42.26
42.30
42.17
41.68
40.65
38.92
36.39
33.01
28.79
23.78
18.15
12.10
5.87
-0.29
-6.12
-11.40
-15.96
-19.68
-22.52
-24.45
-25.53
-25.83
-25.46
-24.52
-23.11
-21.33
-19.27
-16.99
-14.53
-11.96
-9.34
-6.72
-4.12
-1.55
1.00
3.53
6.08
8.69
11.33
13.97
16.60
19.18
21.67
24.05
26.32
28.51
30.69
32.85
35.08
37.49
40.28
43.65
47.82
52.98
59.29
66.87
75.55
85.09
95.25
105.72
116.21
126.43
136.11
145.12
153.38
160.58
166.51
171.06
174.14
175.61
175.29
172.83
167.66
161.11
153.71
145.80
137.60
129.25
120.87
112.55
104.36
96.44
88.94
81.73
74.77
68.08
61.68
55.64
50.00
44.82
40.17
36.13
32.53
29.28
26.28
23.44
20.74
18.15
15.65
13.29
11.13
9.08
7.13
5.24
3.45
1.74
0.13
-1.35
-2.67
-3.78
-4.72
-5.50
-6.12
-6.60
-6.94
-7.13
-7.21
-7.19
-7.10
-6.98
-6.88
-6.82
-6.83
-6.93
-7.12
-7.38
-7.68
-7.98
-8.24
-8.40
-8.38
-8.21
-7.84
-7.34
-6.79
-6.22
-5.73
-5.33
-5.07
-4.94
-4.95
-5.08
-5.34
-5.74
-6.24
-6.82
-7.40
-7.89
-8.24
-8.44
-8.53
-8.63
-8.87
-9.34
-10.09
-11.03
-12.03
-12.96
-13.76
-14.47
-15.26
-16.37
-17.95
-20.06
-22.54
-25.13
-27.58
-29.85
-32.14
-34.94
-38.84
-44.33
-51.52
-60.14
-69.61
-79.33
-88.93
-98.55
-108.73
-120.18
-133.45
-148.60
-165.11
-182.18
-198.95
-214.94
-230.26
-245.44
-261.33
-279.04
-299.66
-324.09
-352.25
-382.51
-411.30
-433.76
-445.09
-442.22
-425.00
-396.13
-359.98
-320.88
-281.84
-244.25
-208.45
-174.67
-143.71
-116.73
-94.64
-77.47
-64.09
-52.59
-41.04
-28.19
-13.78
1.47
16.29
29.45
40.12
48.01
53.33
56.53
58.13
58.61
58.36
57.71
56.84
55.80
54.62
53.24
51.74
50.28
49.31
49.48
51.59
56.33
63.84
73.55
84.09
93.69
100.84
104.80
105.78
104.75
102.70
100.11
96.62
91.59
84.51
75.55
65.56
55.71
46.71
38.62
30.85
22.66
13.78
4.58
-4.13
-11.63
-17.74
-23.01
-28.24
-34.12
-40.76
-47.57
-53.66
-58.28
-61.30
-63.16
-64.70
-66.72
-69.68
-73.63
-78.26
-83.21
-88.10
-92.45
-95.61
-96.73
-94.95
-89.70
-81.09
-69.86
-57.29
-44.75
-33.34
-23.74
-16.12
-10.44
-6.45
-3.74
-1.82
-0.08
2.04
4.87
8.29
11.85
14.94
17.23
18.75
19.88
21.09
22.56
24.14
25.38
25.78
25.05
23.15
20.23
16.52
12.32
7.98
4.02
0.90
-1.02
-1.82
-1.99
-2.36
-3.80
-6.76
-11.03
-15.61
-19.04
-19.84
-17.11
-10.81
-1.77
8.57
18.72
27.40
33.88
37.96
39.85
40.07
39.35
38.39
37.88
38.09
39.00
40.23
41.22
41.49
40.79
39.12
36.78
34.12
31.50
29.05
26.76
24.39
21.61
18.08
13.54
7.99
1.75
-4.56
-10.18
-14.37
-16.75
-17.49
-17.37
-17.43
-18.84
-22.25
-27.60
-34.03
-39.89
-43.39
-43.03
-38.10
-28.93
-16.69
-3.02
10.45
22.52
32.65
40.80
47.24
52.23
55.80
57.84
58.15
56.77
54.03
50.65
47.39
44.88
43.34
42.57
42.09
41.48
40.68
39.84
39.23
38.84
38.37
37.24
34.93
31.29
26.48
20.95
15.13
9.34
3.67
-1.83
-7.11
-12.07
-16.64
-20.98
-25.41
-30.36
-36.08
-42.61
-49.50
-55.94
-60.84
-63.12
-62.06
-57.56
-50.24
-41.19
-31.65
-22.61
-14.67
-8.15
-3.35
-0.65
-0.51
-3.38
-9.29
-17.73
-27.54
-37.00
-44.17
-47.38
-45.57
-38.90
-28.68
-17.09
-6.35
2.02
7.67
11.36
14.52
18.55
24.30
31.90
40.87
50.40
59.64
67.97
75.01
80.41
83.75
84.27
81.19
74.08
63.35
50.41
37.34
26.22
18.29
13.67
11.75
11.87
13.99
18.88
27.69
40.99
58.31
77.97
97.69
115.35
129.31
138.51
142.09
139.32
129.77
113.84
93.09
70.04
47.57
27.89
12.12
-0.05
-9.70
-18.04
-25.80
-32.99
-39.18
-43.82
-46.72
-48.12
-48.72
-49.36
-50.82
-53.60
-57.78
-63.18
-69.25
-75.38
-80.86
-85.12
-87.90
-89.38
-90.21
-91.07
-92.24
-93.26
-92.99
-90.06
-83.61
-73.70
-61.36
-48.29
-36.13
-26.07
-18.64
-13.78
-11.10
-9.93
-9.52
-8.93
-7.25
-3.83
1.58
8.82
17.35
26.45
35.47
43.74
50.70
55.93
59.33
61.08
61.72
61.78
61.44
60.25
57.28
51.50
42.32
30.12
16.05
1.66
-11.72
-23.50
-33.83
-43.31
-52.57
-61.92
-71.27
-80.16
-87.90
-93.58
-96.13
-94.52
-87.97
-76.38
-60.54
-42.11
-23.24
-5.99
8.21
18.95
26.87
33.27
39.77
47.71
57.83
69.96
83.14
95.86
106.39
113.18
115.15
111.99
104.07
92.39
78.43
63.73
49.70
37.29
26.99
18.73
12.10
6.55
1.52
-3.30
-7.94
-12.05
-15.15
-16.62
-16.05
-13.19
-8.17
-1.48
6.07
13.51
19.83
24.01
25.27
23.11
17.54
9.24
-0.48
-9.88
-17.24
-21.28
-21.53
-18.34
-12.59
-5.33
2.54
10.33
17.55
23.72
28.40
31.35
32.68
32.92
32.89
33.44
34.96
37.41
40.24
42.76
44.41
45.09
45.07
44.83
44.92
45.73
47.46
49.94
52.47
53.81
52.24
46.05
34.19
16.93
-3.94
-25.55
-44.80
-59.25
-67.90
-71.17
-70.47
-67.55
-63.97
-60.86
-59.08
-59.36
-62.38
-68.50
-77.37
-87.61
-96.71
-101.70
-99.89
-89.99
-72.47
-49.56
-24.39
-0.03
21.41
38.91
52.47
62.53
69.53
73.89
75.90
75.96
74.62
72.56
70.37
68.46
66.94
65.69
64.42
62.85
60.81
58.24
55.23
51.96
48.57
45.12
41.57
37.76
33.56
28.93
23.95
18.83
13.81
9.06
4.59
0.24
-4.20
-8.97
-14.12
-19.62
-25.22
-30.51
-35.06
-38.43
-40.37
-40.79
-39.67
-37.12
-33.26
-28.25
-22.39
-16.22
-10.36
-5.51
-2.22
-0.70
-0.80
-2.02
-3.66
-5.03
-5.62
-5.06
-3.30
-0.50
3.06
7.00
10.96
14.62
17.71
19.95
21.12
21.04
19.60
16.87
13.05
8.47
3.65
-0.98
-5.09
-8.61
-11.73
-14.91
-18.57
-23.10
-28.50
-34.38
-39.93
-44.13
-45.97
-44.79
-40.45
-33.45
-24.78
-15.62
-7.01
0.31
6.10
10.47
13.69
16.02
17.63
18.60
19.07
19.16
19.09
19.09
19.28
19.65
20.06
20.32
20.23
19.66
18.62
17.19
15.48
13.60
11.52
9.13
6.36
3.16
-0.44
-4.24
-8.02
-11.58
-14.80
-17.73
-20.52
-23.52
-27.02
-31.18
-35.85
-40.54
-44.39
-46.47
-45.90
-42.23
-35.62
-26.69
-16.52
-6.29
2.95
10.50
16.14
20.03
22.57
24.17
25.12
25.54
25.46
24.98
24.19
23.34
22.72
22.44
22.54
22.89
23.26
23.44
23.36
22.94
22.20
21.10
19.60
17.65
15.21
12.39
9.28
6.03
2.66
-0.86
-4.65
-8.74
-13.05
-17.36
-21.37
-24.89
-27.85
-30.50
-33.22
-36.38
-40.08
-43.99
-47.29
-48.94
-47.94
-43.70
-36.37
-26.70
-15.91
-5.31
4.03
11.47
16.79
20.18
22.04
22.87
23.10
23.13
23.21
23.41
23.74
24.17
24.66
25.20
25.86
26.60
27.35
27.95
28.22
28.00
27.20
25.78
23.85
21.56
19.07
16.46
13.74
10.85
7.71
4.32
0.77
-2.77
-6.14
-9.23
-12.12
-15.01
-18.14
-21.74
-26.03
-31.11
-36.95
-43.12
-48.81
-52.79
-53.83
-51.15
-44.65
-35.05
-23.67
-12.00
-1.33
7.43
13.98
18.33
20.77
21.73
21.65
20.96
19.96
18.88
17.87
17.00
16.39
16.11
16.29
16.97
18.20
19.87
21.72
23.39
24.52
24.90
24.50
23.47
21.98
20.18
18.06
15.53
12.48
8.89
4.89
0.73
-3.34
-7.11
-10.48
-13.52
-16.47
-19.70
-23.61
-28.50
-34.34
-40.64
-46.47
-50.61
-51.90
-49.58
-43.54
-34.42
-23.38
-11.91
-1.31
7.51
14.21
18.86
21.80
23.34
23.77
23.30
22.20
20.86
19.70
19.12
19.32
20.23
21.54
22.85
23.82
24.29
24.24
23.79
22.97
21.76
20.02
17.55
14.23
10.12
5.49
0.79
-3.53
-7.25
-10.38
-13.23
-16.29
-20.01
-24.63
-30.13
-36.09
-41.76
-46.16
-48.27
-47.33
-43.05
-35.78
-26.46
-16.32
-6.62
1.74
8.22
12.75
15.48
16.70
16.73
15.88
14.51
13.03
11.94
11.58
12.13
13.53
15.41
17.28
18.67
19.36
19.46
19.25
19.11
19.18
19.36
19.24
18.36
16.36
13.15
8.93
4.05
-1.09
-6.21
-11.14
-15.92
-20.70
-25.72
-31.25
-37.44
-44.08
-50.58
-55.92
-58.89
-58.52
-54.36
-46.77
-36.79
-25.87
-15.41
-6.28
1.18
7.10
11.85
15.67
18.64
20.73
21.95
22.42
22.45
22.38
22.46
22.79
23.32
23.93
24.41
24.66
24.63
24.39
24.04
23.65
23.15
22.24
20.48
17.45
13.07
7.57
1.56
-4.36
-9.66
-14.05
-17.61
-20.47
-22.90
-25.13
-27.54
-30.43
-33.98
-38.03
-41.94
-44.69
-45.17
-42.59
-36.76
-28.32
-18.46
-8.50
0.35
7.39
12.46
15.84
18.09
19.78
21.34
23.02
24.91
26.92
29.03
31.22
33.49
35.87
38.26
40.47
42.31
43.62
44.26
44.11
43.04
40.86
37.45
32.84
27.21
20.99
14.65
8.62
3.23
-1.41
-5.35
-8.66
-11.43
-13.80
-15.81
-17.60
-19.39
-21.52
-24.36
-28.28
-33.34
-39.22
-45.19
-50.08
-52.70
-52.04
-47.61
-39.63
-29.00
-17.09
-5.23
5.42
14.22
20.97
25.77
28.94
30.72
31.34
31.05
30.08
28.74
27.36
26.21
25.40
24.96
24.77
24.71
24.66
24.61
24.53
24.43
24.30
24.14
23.99
23.86
23.77
23.54
22.95
21.64
19.35
16.03
11.72
6.76
1.49
-3.76
-8.72
-13.30
-17.57
-21.71
-26.03
-30.87
-36.28
-41.97
-47.13
-50.61
-51.29
-48.49
-42.29
-33.51
-23.49
-13.62
-4.92
2.07
7.32
11.07
13.59
15.11
15.83
15.97
15.88
15.92
16.36
17.40
19.00
20.95
23.06
25.07
26.84
28.22
29.11
29.34
28.80
27.45
25.30
22.58
19.52
16.29
13.09
10.01
7.07
4.27
1.59
-1.08
-3.91
-7.14
-11.08
-15.90
-21.73
-28.50
-35.91
-43.37
-50.03
-54.71
-56.40
-54.36
-48.48
-39.34
-28.18
-16.44
-5.42
3.99
11.49
17.20
21.46
24.61
26.82
28.18
28.82
28.88
28.62
28.36
28.31
28.57
29.12
29.79
30.41
30.76
30.66
29.98
28.67
26.73
24.17
21.11
17.54
13.54
9.21
4.60
-0.28
-5.34
-10.51
-15.64
-20.47
-24.78
-28.38
-31.31
-33.82
-36.37
-39.41
-43.19
-47.53
-51.78
-54.99
-56.08
-54.27
-49.27
-41.53
-31.94
-21.63
-11.69
-2.96
4.13
9.57
13.55
16.36
18.32
19.71
20.75
21.54
22.25
22.97
23.76
24.59
25.42
26.18
26.81
27.33
27.72
28.01
28.14
28.03
27.54
26.56
24.97
22.77
20.04
16.96
13.79
10.70
7.71
4.66
1.40
-2.23
-6.24
-10.38
-14.30
-17.63
-20.28
-22.43
-24.53
-27.14
-30.74
-35.40
-40.69
-45.76
-49.37
-50.42
-48.10
-42.29
-33.58
-23.07
-12.09
-1.82
6.90
13.78
18.90
22.51
24.99
26.61
27.62
28.21
28.53
28.64
28.59
28.32
27.87
27.33
26.87
26.67
26.77
27.07
27.26
26.92
25.69
23.35
19.95
15.77
11.11
6.34
1.77
-2.34
-5.80
-8.62
-10.86
-12.70
-14.30
-15.75
-16.98
-17.91
-18.48
-18.89
-19.50
-20.87
-23.52
-27.72
-33.34
-39.73
-45.78
-50.19
-51.75
-49.76
-44.25
-36.01
-26.28
-16.43
-7.48
0.07
6.09
10.80
14.33
16.81
18.32
19.01
19.21
19.33
19.79
20.72
22.02
23.45
24.75
25.84
26.77
27.73
28.78
29.85
30.66
30.94
30.48
29.24
27.46
25.35
23.15
20.90
18.44
15.57
12.06
7.88
3.13
-1.81
-6.58
-10.85
-14.54
-17.85
-21.11
-24.74
-28.98
-33.91
-39.10
-43.81
-47.12
-48.13
-46.23
-41.35
-34.05
-25.28
-16.29
-8.04
-1.22
4.02
7.82
10.44
12.17
13.17
13.69
13.89
14.05
14.39
15.05
16.03
17.17
18.14
18.64
18.60
18.00
16.99
15.69
14.12
12.20
9.80
6.84
3.32
-0.52
-4.39
-7.86
-10.59
-12.43
-13.42
-13.83
-14.13
-14.86
-16.48
-19.26
-23.18
-27.78
-32.35
-35.86
-37.34
-36.09
-31.92
-25.29
-17.23
-8.91
-1.31
4.95
9.74
13.24
15.79
17.62
18.85
19.49
19.56
19.20
18.59
17.94
17.33
16.66
15.78
14.49
12.74
10.69
8.62
6.85
5.56
4.74
4.18
3.58
2.60
1.10
-1.01
-3.58
-6.41
-9.19
-11.67
-13.72
-15.47
-17.19
-19.31
-22.29
-26.33
-31.27
-36.55
-41.32
-44.54
-45.31
-43.13
-38.04
-30.65
-21.94
-13.03
-4.92
1.75
6.75
10.17
12.22
13.24
13.49
13.22
12.66
12.11
11.82
11.98
12.73
13.97
15.47
16.87
17.83
18.08
17.58
16.57
15.45
14.60
14.19
14.20
14.37
14.35
13.92
12.99
11.61
9.76
7.48
4.69
1.44
-2.22
-6.26
-10.65
-15.52
-21.11
-27.48
-34.35
-41.03
-46.41
-49.30
-48.81
-44.72
-37.50
-28.33
-18.62
-9.59
-2.07
3.74
8.00
11.08
13.27
14.72
15.53
15.83
15.86
15.89
16.20
16.94
18.02
19.32
20.68
21.99
23.29
24.67
26.08
27.43
28.49
29.05
28.92
28.14
26.77
24.99
22.94
20.62
18.00
15.00
11.61
7.87
3.87
-0.26
-4.40
-8.41
-12.21
-15.80
-19.38
-23.30
-27.91
-33.30
-39.14
-44.66
-48.76
-50.41
-48.94
-44.34
-37.16
-28.42
-19.29
-10.78
-3.57
2.16
6.44
9.62
11.93
13.55
14.58
15.14
15.39
15.62
16.18
17.30
19.03
21.26
23.72
26.18
28.51
30.69
32.72
34.43
35.56
35.70
34.61
32.30
29.08
25.52
22.14
19.27
16.86
14.66
12.32
9.58
6.36
2.73
-1.18
-5.22
-9.25
-13.16
-16.93
-20.62
-24.44
-28.65
-33.45
-38.70
-43.84
-47.97
-50.08
-49.39
-45.70
-39.49
-31.79
-23.82
-16.53
-10.43
-5.54
-1.60
1.60
4.22
6.31
7.95
9.44
11.19
13.57
16.72
20.49
24.40
27.97
30.77
32.69
33.87
34.54
34.94
35.16
35.09
34.47
33.05
30.71
27.57
23.94
20.13
16.40
12.93
9.70
6.69
3.86
1.22
-1.28
-3.66
-5.96
-8.18
-10.26
-12.17
-14.00
-16.06
-18.74
-22.43
-27.18
-32.58
-37.76
-41.55
-42.91
-41.16
-36.34
-29.14
-20.68
-12.15
-4.53
1.68
6.41
9.84
12.19
13.63
14.17
13.82
12.67
10.98
9.13
7.57
6.63
6.47
7.04
8.12
9.43
10.66
11.55
11.96
11.82
11.21
10.28
9.27
8.39
7.75
7.26
6.76
5.99
4.82
3.26
1.49
-0.32
-2.03
-3.64
-5.22
-6.98
-9.16
-12.06
-15.89
-20.65
-25.97
-31.14
-35.20
-37.22
-36.64
-33.39
-27.99
-21.28
-14.22
-7.57
-1.72
3.12
7.01
9.97
12.03
13.29
13.79
13.72
13.31
12.80
12.40
12.23
12.32
12.71
13.38
14.34
15.58
16.97
18.35
19.44
20.04
19.98
19.24
17.90
16.11
14.04
11.75
9.33
6.68
3.74
0.40
-3.34
-7.35
-11.43
-15.44
-19.47
-23.68
-28.37
-33.63
-39.29
-44.70
-48.92
-51.04
-50.32
-46.60
-40.18
-31.84
-22.58
-13.39
-5.08
1.85
7.21
11.07
13.63
15.14
15.85
16.01
15.92
15.88
16.20
17.01
18.31
19.90
21.57
23.06
24.28
25.15
25.57
25.39
24.36
22.38
19.40
15.67
11.56
7.44
3.61
0.20
-2.78
-5.45
-7.87
-10.08
-12.00
-13.60
-14.86
-15.79
-16.59
-17.60
-19.22
-21.84
-25.63
-30.36
-35.37
-39.60
-41.93
-41.59
-38.34
-32.61
-25.25
-17.22
-9.41
-2.41
3.41
7.94
11.16
13.25
14.51
15.30
15.97
16.72
17.67
18.86
20.32
22.11
24.27
26.71
29.14
31.14
32.38
32.56
31.64
29.72
26.92
23.42
19.34
14.79
9.91
4.87
-0.20
-5.10
-9.63
-13.59
-16.77
-19.03
-20.37
-20.93
-21.06
-21.16
-21.65
-22.91
-25.17
-28.38
-32.19
-35.85
-38.39
-38.85
-36.66
-31.87
-25.13
-17.57
-10.27
-4.03
0.87
4.55
7.39
9.79
12.03
14.22
16.39
18.53
20.59
22.54
24.33
25.90
27.13
27.83
27.85
27.10
25.66
23.75
21.72
19.84
18.23
16.83
15.45
13.87
11.96
9.75
7.36
4.95
2.61
0.42
-1.64
-3.66
-5.77
-8.19
-11.13
-14.73
-18.97
-23.49
-27.68
-30.67
-31.62
-30.03
-25.90
-19.81
-12.76
-5.85
0.08
4.61
7.74
9.73
10.87
11.34
11.17
10.38
9.14
7.78
6.73
6.22
6.30
6.72
7.08
7.09
6.68
6.10
5.71
5.83
6.48
7.40
8.09
8.17
7.37
5.77
3.65
1.31
-1.10
-3.57
-6.26
-9.43
-13.33
-18.13
-23.81
-30.11
-36.44
-41.88
-45.42
-46.18
-43.76
-38.31
-30.56
-21.55
-12.31
-3.68
3.84
10.06
15.07
18.96
21.88
23.89
24.99
25.24
24.80
23.98
23.18
22.79
23.00
23.73
24.72
25.54
25.92
25.67
24.89
23.70
22.32
20.86
19.32
17.56
15.54
13.23
10.66
7.99
5.31
2.72
0.26
-2.09
-4.49
-7.18
-10.55
-14.97
-20.60
-27.29
-34.39
-40.96
-45.87
-48.24
-47.59
-43.96
-37.77
-29.85
-21.12
-12.58
-4.99
1.07
5.39
8.07
9.47
10.06
10.33
10.67
11.38
12.56
14.19
16.16
18.33
20.57
22.89
25.32
27.81
30.23
32.22
33.33
33.27
31.89
29.35
26.01
22.26
18.43
14.78
11.34
8.14
5.11
2.14
-0.79
-3.76
-6.67
-9.47
-12.05
-14.51
-17.12
-20.24
-24.19
-28.97
-34.14
-38.85
-42.10
-42.98
-40.94
-36.05
-28.89
-20.44
-11.69
-3.55
3.40
8.92
13.07
16.01
18.06
19.54
20.74
21.92
23.24
24.81
26.54
28.23
29.60
30.42
30.62
30.27
29.58
28.82
28.18
27.70
27.28
26.68
25.60
23.87
21.55
18.85
16.10
13.52
11.14
8.78
6.27
3.49
0.54
-2.32
-4.79
-6.78
-8.44
-10.16
-12.46
-15.86
-20.63
-26.64
-33.33
-39.67
-44.49
-46.80
-45.99
-42.21
-36.16
-28.96
-21.72
-15.21
-9.78
-5.44
-1.95
0.99
3.55
5.93
8.24
10.58
13.03
15.71
18.61
21.71
24.81
27.60
29.70
30.78
30.74
29.70
28.04
26.16
24.34
22.61
20.71
18.38
15.47
12.02
8.30
4.65
1.30
-1.64
-4.33
-6.98
-9.90
-13.41
-17.74
-22.91
-28.66
-34.44
-39.31
-42.27
-42.50
-39.59
-33.70
-25.61
-16.45
-7.43
0.46
6.58
10.75
13.20
14.36
14.68
14.54
14.18
13.66
13.09
12.58
12.30
12.36
12.77
13.41
14.04
14.50
14.75
14.88
15.07
15.37
15.64
15.59
14.89
13.31
10.86
7.72
4.08
0.23
-3.60
-7.28
-10.75
-13.99
-17.17
-20.55
-24.46
-29.09
-34.43
-40.03
-45.13
-48.75
-50.04
-48.44
-43.85
-36.70
-27.84
-18.30
-9.10
-0.91
5.91
11.37
15.59
18.78
21.11
22.66
23.55
23.91
23.96
23.91
23.96
24.15
24.47
24.83
25.08
25.20
25.18
25.06
24.77
24.27
23.35
21.82
19.55
16.56
13.02
9.21
5.38
1.59
-2.23
-6.22
-10.59
-15.36
-20.54
-26.02
-31.76
-37.70
-43.83
-50.16
-56.79
-63.92
-71.71
-80.20
-89.11
-97.72
-105.00
-109.77
-111.11
-108.65
-102.58
-93.60
-82.71
-70.87
-58.84
-47.07
-35.66
-24.31
-12.56
0.16
14.46
30.69
48.98
69.06
90.15
110.99
129.85
144.98
154.97
159.26
158.38
153.74
147.11
139.88
132.48
124.24
113.75
99.59
81.19
59.25
35.59
12.54
-8.10
-25.69
-40.89
-55.14
-69.78
-85.30
-101.20
-116.31
-129.49
-140.24
-148.87
-156.48
-164.34
-173.55
-184.75
-197.76
-211.41
-223.36
-230.40
-229.06
-216.59
-192.12
-157.32
-115.82
-72.34
-31.12
5.36
36.58
63.60
88.08
111.13
133.03
153.40
171.73
187.99
202.73
216.74
230.65
244.57
258.00
270.19
280.56
289.03
296.01
302.09
307.53
311.74
313.37
310.69
302.50
288.97
271.82
254.13
239.37
229.97
226.76
228.58
232.78
235.86
234.36
225.60
208.60
184.59
156.99
130.42
109.01
94.55
85.89
79.27
69.98
54.28
30.63
0.02
-34.59
-69.29
-100.27
-124.53
-140.59
-148.91
-151.97
-153.47
-157.25
-165.95
-180.42
-199.95
-222.99
-248.00
-273.58
-298.44
-321.07
-339.90
-353.81
-362.81
-368.55
-373.93
-382.70
-398.57
-424.32
-460.95
-506.77
-556.78
-603.12
-636.85
-650.61
-641.20
-610.62
-565.07
-512.21
-458.50
-407.46
-359.88
-315.43
-274.10
-236.91
-205.41
-180.39
-161.23
-146.16
-133.02
-120.39
-107.98
-96.55
-87.05
-79.86
-74.21
-68.50
-60.60
-48.86
-32.67
-12.72
9.33
31.40
51.64
68.99
83.17
94.39
103.05
109.28
112.83
113.19
109.75
102.33
91.32
77.76
63.22
49.49
38.23
30.64
27.40
28.53
33.62
42.12
53.50
67.30
83.33
101.31
120.90
141.46
162.17
182.04
200.17
216.07
229.77
242.04
254.21
268.06
285.02
305.58
328.60
351.11
368.98
377.94
374.85
358.64
330.87
295.16
256.45
219.82
189.40
167.51
154.22
147.50
143.84
139.51
131.72
119.12
101.94
81.37
59.01
36.52
15.68
-1.53
-13.16
-17.84
-15.50
-7.57
3.35
14.38
23.26
28.92
31.51
32.03
31.70
31.67
32.68
35.05
38.76
43.67
49.48
55.88
62.42
68.46
73.36
76.69
78.56
79.62
80.87
83.11
86.44
90.21
93.35
95.15
95.56
95.17
94.69
94.43
93.91
92.24
88.76
83.49
77.41
71.81
67.62
64.89
62.79
60.18
56.29
51.25
45.72
40.59
36.22
32.22
27.78
22.26
15.57
8.23
1.17
-4.90
-9.43
-12.06
-12.51
-10.66
-6.84
-2.05
2.13
4.20
3.24
-0.49
-5.82
-11.27
-15.70
-18.93
-21.59
-24.76
-29.45
-36.52
-46.60
-60.32
-78.37
-101.26
-128.92
-160.25
-193.01
-224.24
-251.02
-270.97
-282.53
-284.77
-277.00
-258.54
-229.15
-190.02
-144.34
-97.48
-55.36
-22.58
-0.57
12.89
22.59
33.73
49.75
71.21
95.79
119.65
138.72
149.90
151.51
143.44
126.99
104.56
79.62
55.90
36.87
24.80
20.40
22.87
30.41
40.81
52.09
62.93
72.44
80.02
85.09
87.00
85.37
80.47
73.23
65.27
58.21
52.84
48.80
44.56
38.01
27.40
12.06
-7.53
-29.91
-53.16
-75.41
-94.99
-110.44
-120.50
-124.49
-122.70
-116.66
-109.10
-103.14
-101.53
-105.56
-114.92
-127.70
-140.92
-151.28
-155.96
-153.18
-142.55
-125.16
-103.07
-78.94
-55.33
-34.23
-16.73
-2.96
7.88
17.31
27.01
38.39
52.01
67.39
83.25
98.17
111.46
123.18
133.97
144.29
153.61
160.40
162.69
158.85
148.33
131.94
111.42
88.81
65.96
44.27
24.65
7.91
-5.28
-14.30
-18.69
-18.37
-13.68
-5.40
5.34
17.33
29.44
40.90
51.36
60.87
69.48
77.16
83.56
88.15
90.67
91.47
91.53
92.14
94.33
98.24
103.02
107.25
109.62
109.54
107.21
103.20
97.90
91.29
82.98
72.76
61.03
48.95
38.07
29.68
24.24
21.44
20.51
20.89
22.61
26.16
31.92
39.38
46.70
50.96
49.36
40.31
24.54
4.87
-14.52
-29.83
-38.92
-41.99
-41.33
-40.43
-42.49
-49.61
-62.70
-81.74
-106.30
-135.43
-167.42
-199.63
-229.29
-254.42
-274.60
-291.08
-305.81
-320.11
-333.59
-344.29
-349.73
-348.43
-340.82
-329.07
-316.23
-304.73
-295.37
-286.92
-276.24
-259.31
-232.64
-195.02
-148.63
-98.79
-51.87
-12.76
17.44
41.50
64.36
90.24
120.33
152.45
182.40
206.59
223.73
234.97
242.60
248.25
251.75
251.23
244.46
230.10
208.69
182.02
152.38
121.50
90.05
58.01
25.57
-6.15
-34.76
-57.17
-70.78
-74.53
-69.40
-57.91
-43.06
-27.43
-12.43
1.46
14.12
25.24
34.34
41.01
45.38
48.35
51.12
54.72
59.34
64.38
68.75
71.58
72.87
73.41
74.62
77.75
83.25
90.49
97.89
103.52
105.70
103.51
96.90
86.68
74.07
60.44
46.92
34.21
22.63
12.13
2.42
-7.01
-16.67
-26.90
-37.70
-48.51
-58.39
-66.21
-71.04
-72.45
-70.80
-66.85
-61.63
-55.99
-50.35
-44.86
-39.44
-34.11
-28.80
-23.52
-18.11
-12.30
-5.97
0.79
7.47
13.48
18.25
21.71
24.29
26.78
29.86
33.69
37.91
41.72
44.06
44.23
41.96
37.58
31.74
25.18
18.43
11.69
4.70
-2.97
-11.73
-21.64
-32.32
-42.95
-52.56
-60.21
-65.14
-67.00
-65.77
-61.71
-55.40
-47.55
-39.07
-30.81
-23.59
-17.93
-14.05
-11.81
-10.77
-10.45
-10.41
-10.25
-9.70
-8.61
-6.93
-4.73
-2.15
0.64
3.50
6.57
10.08
14.25
19.09
24.18
28.79
32.12
33.62
33.21
31.28
28.44
25.22
21.95
18.60
14.96
10.75
5.75
-0.11
-6.61
-13.19
-18.93
-22.72
-23.62
-21.20
-15.77
-8.33
-0.33
6.81
12.14
15.26
16.35
15.90
14.49
12.63
10.67
8.76
6.94
5.28
3.88
2.91
2.45
2.45
2.70
2.95
2.99
2.80
2.58
2.62
3.11
3.99
4.88
5.38
5.22
4.49
3.49
2.65
2.06
1.44
0.17
-2.44
-6.71
-12.51
-19.29
-26.35
-33.08
-39.07
-43.92
-47.19
-48.41
-47.23
-43.78
-38.63
-32.73
-27.00
-22.09
-18.02
-14.51
-11.12
-7.60
-4.07
-0.90
1.61
3.28
4.21
4.71
5.20
5.89
6.82
7.89
8.95
9.84
10.42
10.57
10.09
8.80
6.62
3.95
1.69
1.09
3.34
8.98
17.52
27.58
37.29
44.88
49.31
50.26
47.93
42.80
35.28
25.78
14.73
2.63
-9.87
-22.05
-33.20
-42.60
-49.56
-53.48
-53.97
-51.02
-44.83
-35.88
-24.70
-11.81
2.25
16.79
30.85
43.35
53.17
59.64
62.61
62.61
60.61
57.66
54.53
51.52
48.51
45.14
41.17
36.60
31.65
26.58
21.53
16.50
11.46
6.43
1.65
-2.61
-6.04
-8.54
-10.25
-11.57
-13.00
-14.91
-17.44
-20.52
-23.82
-27.05
-29.94
-32.43
-34.59
-36.55
-38.53
-40.66
-43.07
-45.72
-48.41
-50.65
-51.66
-50.55
-46.70
-39.99
-30.99
-20.83
-10.83
-2.11
4.79
9.76
13.13
15.20
16.21
16.28
15.50
14.17
12.68
11.52
11.05
11.45
12.64
14.40
16.46
18.46
20.10
21.06
21.07
20.03
17.97
15.17
12.08
9.20
6.81
5.05
3.84
2.98
2.19
1.21
-0.15
-2.06
-4.58
-7.68
-11.19
-15.03
-19.20
-23.85
-29.24
-35.52
-42.47
-49.36
-55.05
-58.16
-57.75
-53.54
-46.13
-36.90
-27.38
-18.93
-12.27
-7.41
-3.88
-1.10
1.47
4.09
6.87
9.74
12.67
15.61
18.46
21.05
23.04
24.06
23.69
21.60
17.67
12.09
5.37
-1.68
-7.93
-12.21
-13.49
-11.28
-5.86
1.78
10.12
17.54
22.91
25.76
26.34
25.22
22.92
19.59
14.97
8.64
0.32
-9.92
-21.44
-33.39
-44.56
-53.68
-59.52
-61.04
-57.60
-49.20
-36.54
-21.02
-4.51
11.09
24.27
34.16
40.60
43.96
44.90
44.06
41.96
38.93
35.17
30.81
25.94
20.67
15.21
9.94
5.28
1.76
-0.27
-0.70
0.24
1.99
3.91
5.33
5.83
5.19
3.46
0.88
-2.26
-5.63
-8.96
-12.05
-14.84
-17.40
-20.02
-23.08
-26.95
-31.76
-37.30
-42.91
-47.54
-50.05
-49.54
-45.59
-38.48
-29.12
-18.73
-8.54
0.49
7.86
13.43
17.34
19.77
20.86
20.69
19.43
17.36
14.99
12.90
11.60
11.33
11.96
13.04
14.00
14.44
14.18
13.36
12.27
11.16
10.11
8.96
7.43
5.31
2.58
-0.58
-3.80
-6.79
-9.43
-11.88
-14.48
-17.71
-21.90
-27.22
-33.55
-40.40
-46.95
-52.14
-54.89
-54.35
-50.23
-42.85
-33.16
-22.36
-11.69
-2.07
5.96
12.15
16.42
18.78
19.38
18.42
16.39
13.86
11.43
9.58
8.53
8.24
8.54
9.14
9.90
10.74
11.63
12.54
13.35
13.83
13.68
12.68
10.65
7.68
3.98
-0.14
-4.33
-8.37
-12.17
-15.84
-19.62
-23.84
-28.73
-34.24
-39.91
-44.87
-47.97
-48.08
-44.44
-37.01
-26.60
-14.61
-2.76
7.48
15.24
20.32
23.05
24.01
23.70
22.49
20.64
18.47
16.44
15.01
14.48
14.90
15.96
17.16
18.08
18.57
18.74
18.81
19.01
19.26
19.31
18.69
16.96
13.88
9.46
4.01
-1.94
-7.75
-12.95
-17.27
-20.79
-23.83
-26.94
-30.75
-35.61
-41.55
-48.03
-53.93
-57.86
-58.53
-55.24
-48.11
-38.19
-26.97
-15.91
-6.05
2.20
8.84
14.11
18.16
21.09
22.94
23.88
24.22
24.39
24.71
25.30
26.14
27.10
28.09
29.07
30.04
30.93
31.55
31.69
31.13
29.80
27.79
25.26
22.43
19.36
16.03
12.36
8.32
3.98
-0.47
-4.78
-8.79
-12.42
-15.75
-19.09
-22.83
-27.44
-33.30
-40.49
-48.60
-56.61
-62.99
-66.17
-64.98
-59.09
-49.17
-36.74
-23.53
-11.04
-0.16
8.83
16.10
21.90
26.41
29.66
31.72
32.81
33.25
33.37
33.42
33.49
33.51
33.45
33.35
33.32
33.52
33.97
34.60
35.17
35.38
34.95
33.70
31.57
28.69
25.27
21.64
17.98
14.42
10.81
6.94
2.62
-2.21
-7.25
-12.13
-16.39
-19.79
-22.41
-24.69
-27.23
-30.72
-35.60
-41.85
-48.85
-55.43
-60.09
-61.35
-58.30
-50.87
-39.94
-27.14
-14.36
-3.18
5.44
11.37
15.10
17.40
18.98
20.33
21.60
22.83
24.03
25.27
26.72
28.48
30.56
32.78
34.88
36.59
37.74
38.29
38.29
37.83
36.92
35.49
33.44
30.79
27.68
24.34
21.00
17.75
14.56
11.28
7.79
4.03
0.14
-3.60
-7.01
-10.02
-12.83
-15.82
-19.53
-24.41
-30.68
-38.08
-45.79
-52.51
-56.78
-57.30
-53.45
-45.46
-34.34
-21.65
-8.95
2.53
12.10
19.58
25.13
28.94
31.25
32.34
32.50
32.16
31.78
31.65
31.81
31.97
31.62
30.39
28.14
25.17
22.11
19.58
17.99
17.25
16.89
16.25
14.73
12.10
8.42
4.07
-0.53
-5.01
-9.14
-12.81
-16.08
-19.06
-21.99
-25.21
-29.06
-33.75
-39.13
-44.59
-49.11
-51.48
-50.65
-46.09
-38.05
-27.43
-15.66
-4.16
5.86
13.68
19.18
22.60
24.40
25.01
24.78
24.01
23.01
22.17
21.82
22.21
23.27
24.70
26.03
26.84
26.90
26.29
25.27
24.08
22.82
21.26
19.02
15.70
11.10
5.40
-0.93
-7.20
-12.84
-17.52
-21.37
-24.82
-28.41
-32.71
-38.04
-44.47
-51.60
-58.62
-64.35
-67.37
-66.45
-60.99
-51.26
-38.44
-24.27
-10.53
1.48
11.16
18.57
24.11
28.17
30.99
32.72
33.49
33.56
33.24
32.87
32.68
32.71
32.91
33.13
33.29
33.33
33.21
32.89
32.30
31.33
29.87
27.77
24.87
20.98
15.98
9.94
3.21
-3.68
-10.08
-15.51
-19.76
-22.99
-25.60
-28.14
-31.16
-35.03
-39.77
-44.95
-49.65
-52.63
-52.69
-49.11
-41.87
-31.81
-20.25
-8.70
1.66
10.08
16.35
20.63
23.31
24.83
25.63
26.00
26.12
26.09
25.89
25.53
25.13
24.82
24.79
25.14
25.84
26.82
27.86
28.75
29.29
29.31
28.75
27.61
25.92
23.71
20.96
17.63
13.64
8.99
3.76
-1.89
-7.64
-13.18
-18.24
-22.74
-26.80
-30.79
-35.16
-40.29
-46.24
-52.62
-58.53
-62.70
-63.76
-60.83
-53.68
-43.07
-30.38
-17.28
-5.26
4.82
12.67
18.59
22.99
26.33
28.87
30.79
32.14
33.07
33.74
34.28
34.75
35.12
35.33
35.28
35.00
34.59
34.25
34.16
34.34
34.62
34.67
34.16
32.79
30.52
27.52
24.05
20.44
16.85
13.24
9.46
5.28
0.59
-4.59
-9.99
-15.23
-19.93
-23.92
-27.29
-30.37
-33.71
-37.77
-42.85
-48.75
-54.83
-60.03
-63.06
-62.78
-58.61
-50.70
-40.02
-28.10
-16.47
-6.34
1.67
7.58
11.80
14.86
17.21
19.09
20.62
21.86
22.94
23.99
25.16
26.58
28.34
30.46
32.78
35.14
37.23
38.67
39.10
38.31
36.23
33.00
28.97
24.50
20.00
15.78
12.10
9.02
6.55
4.43
2.46
0.47
-1.64
-3.78
-5.87
-7.92
-10.13
-12.85
-16.57
-21.65
-28.09
-35.42
-42.65
-48.50
-51.70
-51.30
-47.12
-39.73
-30.25
-20.02
-10.29
-1.87
4.84
9.83
13.27
15.37
16.40
16.63
16.48
16.36
16.75
17.85
19.73
22.15
24.75
27.12
29.01
30.29
30.97
31.07
30.59
29.53
27.90
25.78
23.24
20.40
17.28
13.85
10.13
6.15
2.01
-2.13
-6.17
-10.05
-13.79
-17.46
-21.09
-24.70
-28.48
-32.68
-37.55
-43.20
-49.24
-54.84
-58.71
-59.58
-56.58
-49.67
-39.73
-28.25
-16.83
-6.76
1.33
7.36
11.59
14.48
16.34
17.47
18.15
18.68
19.38
20.50
22.15
24.26
26.63
28.98
31.09
32.80
34.02
34.72
34.82
34.27
32.98
30.83
27.82
24.08
19.92
15.72
11.97
8.99
6.85
5.40
4.26
2.94
1.03
-1.63
-4.96
-8.74
-12.76
-16.85
-20.98
-25.24
-29.86
-35.11
-41.21
-48.05
-55.05
-61.25
-65.36
-66.19
-63.03
-55.93
-45.83
-34.20
-22.55
-12.08
-3.39
3.45
8.75
12.81
15.97
18.44
20.37
21.90
23.18
24.36
25.55
26.75
27.86
28.73
29.18
29.10
28.51
27.61
26.65
25.86
25.27
24.67
23.80
22.43
20.52
18.27
15.99
13.98
12.42
11.19
10.05
8.70
6.88
4.40
1.25
-2.53
-6.77
-11.25
-15.79
-20.20
-24.46
-28.78
-33.51
-38.93
-45.11
-51.70
-57.87
-62.44
-64.17
-62.20
-56.35
-47.28
-36.17
-24.46
-13.42
-3.84
3.91
9.88
14.26
17.24
19.05
19.91
20.07
19.89
19.74
19.94
20.66
21.92
23.56
25.34
26.99
28.37
29.44
30.26
30.81
31.00
30.69
29.71
28.03
25.74
23.07
20.32
17.73
15.42
13.39
11.51
9.45
6.86
3.41
-0.94
-5.95
-11.10
-15.84
-19.72
-22.73
-25.11
-27.32
-29.77
-32.77
-36.44
-40.69
-45.18
-49.19
-51.76
-51.88
-48.82
-42.52
-33.72
-23.67
-13.69
-4.82
2.51
8.28
12.70
15.99
18.23
19.52
19.98
19.92
19.59
19.20
18.77
18.27
17.62
16.82
15.91
15.02
14.23
13.59
13.05
12.60
12.12
11.58
10.96
10.23
9.40
8.42
7.19
5.61
3.52
0.86
-2.18
-5.37
-8.42
-11.08
-13.29
-15.25
-17.26
-19.72
-22.94
-27.03
-31.86
-36.90
-41.29
-43.97
-43.96
-40.66
-34.14
-25.14
-14.85
-4.63
4.43
11.70
16.99
20.33
21.88
21.85
20.55
18.43
15.98
13.76
12.17
11.31
11.11
11.39
11.91
12.47
12.91
13.10
12.95
12.46
11.70
10.87
10.13
9.61
9.17
8.58
7.48
5.57
2.76
-0.93
-5.16
-9.57
-13.74
-17.53
-20.89
-23.96
-27.04
-30.46
-34.55
-39.47
-45.14
-50.99
-56.07
-59.18
-59.16
-55.37
-47.89
-37.58
-25.84
-14.17
-3.79
4.63
11.02
15.70
19.14
21.78
23.85
25.42
26.38
26.57
25.99
24.81
23.39
22.11
21.31
21.16
21.58
22.38
23.30
24.11
24.57
24.49
23.64
21.91
19.32
15.92
11.88
7.40
2.65
-2.18
-6.91
-11.31
-15.21
-18.57
-21.53
-24.42
-27.62
-31.47
-36.20
-41.81
-47.95
-53.93
-58.71
-61.15
-60.27
-55.63
-47.56
-37.13
-25.78
-14.91
-5.54
2.04
7.94
12.59
16.33
19.31
21.57
23.13
24.04
24.48
24.68
24.93
25.44
26.38
27.74
29.35
30.99
32.39
33.38
33.90
33.97
33.61
32.84
31.55
29.68
27.24
24.29
20.93
17.25
13.27
8.98
4.46
-0.31
-5.22
-10.25
-15.44
-20.91
-26.82
-33.35
-40.44
-47.77
-54.57
-59.73
-62.04
-60.61
-55.19
-46.30
-35.17
-23.25
-11.91
-2.06
5.91
11.96
16.25
18.97
20.34
20.59
20.03
19.07
18.13
17.52
17.38
17.71
18.35
19.02
19.45
19.41
18.76
17.48
15.69
13.56
11.20
8.72
6.12
3.26
0.02
-3.86
-8.50
-13.96
-20.17
-26.96
-34.10
-41.34
-48.53
-55.70
-63.12
-71.16
-80.23
-90.54
-101.91
-113.76
-124.98
-134.29
-140.63
-143.49
-143.15
-140.63
-137.33
-134.68
-133.73
-135.07
-138.78
-144.58
-151.91
-160.10
-168.26
-175.31
-179.89
-180.63
-176.17
-165.38
-147.59
-122.57
-90.74
-53.05
-11.00
33.46
78.05
120.43
158.40
190.08
214.27
230.39
238.56
239.56
234.61
225.14
212.68
198.63
184.06
169.63
155.55
141.63
127.56
113.00
98.01
83.13
69.33
57.78
49.46
44.82
43.59
45.00
47.95
51.37
54.48
56.78
58.08
58.31
57.43
55.45
52.49
48.81
44.76
40.79
37.25
34.38
32.26
30.77
29.70
28.77
27.70
26.33
24.69
22.95
21.36
20.11
19.19
18.41
17.41
15.90
13.71
10.92
7.76
4.50
1.37
-1.61
-4.57
-7.81
-11.66
-16.45
-22.33
-29.23
-36.64
-43.71
-49.30
-52.29
-51.83
-47.70
-40.34
-30.80
-20.49
-10.71
-2.36
4.21
9.16
12.94
15.99
18.64
20.94
22.76
23.99
24.73
25.21
25.73
26.51
27.53
28.57
29.32
29.47
28.95
27.83
26.25
24.37
22.20
19.69
16.78
13.42
9.63
5.61
1.58
-2.22
-5.60
-8.48
-10.98
-13.30
-15.75
-18.68
-22.39
-27.14
-32.97
-39.63
-46.46
-52.43
-56.41
-57.33
-54.65
-48.50
-39.67
-29.46
-19.23
-10.01
-2.34
3.81
8.88
13.35
17.51
21.31
24.50
26.77
28.00
28.35
28.18
27.96
27.98
28.35
28.94
29.49
29.73
29.55
28.94
27.99
26.82
25.45
23.82
21.87
19.44
16.50
13.08
9.28
5.33
1.45
-2.19
-5.51
-8.56
-11.41
-14.24
-17.23
-20.63
-24.67
-29.43
-34.72
-39.85
-43.74
-45.25
-43.52
-38.47
-30.84
-21.99
-13.29
-5.75
0.18
4.59
7.69
9.70
10.69
10.78
10.25
9.58
9.34
9.99
11.67
14.19
17.06
19.76
21.95
23.51
24.56
25.36
26.09
26.69
26.90
26.34
24.67
21.75
17.79
13.15
8.28
3.53
-0.88
-4.91
-8.67
-12.37
-16.28
-20.70
-25.80
-31.45
-37.10
-41.87
-44.72
-44.75
-41.51
-35.21
-26.67
-17.08
-7.72
0.40
6.73
11.17
14.00
15.62
16.45
16.76
16.72
16.45
16.09
15.80
15.80
16.16
16.83
17.62
18.24
18.50
18.37
17.89
17.22
16.44
15.54
14.39
12.87
10.93
8.59
5.95
3.10
0.05
-3.20
-6.62
-10.19
-13.74
-17.14
-20.31
-23.34
-26.57
-30.41
-35.13
-40.67
-46.48
-51.58
-54.83
-55.26
-52.34
-46.28
-37.87
-28.30
-18.86
-10.57
-3.98
0.85
4.29
6.82
8.88
10.75
12.53
14.25
16.00
17.91
20.18
22.80
25.72
28.65
31.27
33.39
34.91
35.84
36.23
36.00
35.07
33.35
30.82
27.60
23.87
19.83
15.72
11.67
7.74
3.96
0.32
-3.25
-6.79
-10.32
-13.76
-17.03
-20.02
-22.72
-25.29
-28.01
-31.23
-35.17
-39.77
-44.52
-48.53
-50.64
-49.87
-45.82
-38.80
-29.83
-20.23
-11.27
-3.77
2.01
6.22
9.29
11.61
13.47
14.98
16.19
17.14
17.92
18.66
19.45
20.32
21.17
21.95
22.62
23.24
23.98
24.93
26.07
27.12
27.71
27.46
26.22
24.11
21.45
18.61
15.87
13.41
11.23
9.23
7.28
5.23
2.92
0.26
-2.71
-5.86
-8.92
-11.70
-14.18
-16.56
-19.25
-22.69
-27.25
-32.97
-39.56
-46.25
-51.99
-55.66
-56.39
-53.80
-48.13
-40.19
-31.10
-21.99
-13.71
-6.72
-1.07
3.38
6.84
9.59
11.85
13.82
15.66
17.44
19.16
20.81
22.33
23.67
24.77
25.70
26.51
27.30
28.12
28.92
29.52
29.68
29.20
27.94
25.97
23.50
20.75
17.87
14.93
11.92
8.84
5.77
2.78
-0.13
-3.02
-6.02
-9.30
-12.95
-16.93
-21.20
-25.77
-30.69
-35.97
-41.31
-46.10
-49.37
-50.18
-47.87
-42.39
-34.33
-24.84
-15.14
-6.22
1.36
7.48
12.25
15.87
18.43
20.01
20.64
20.55
20.00
19.34
18.83
18.63
18.73
18.99
19.18
19.07
18.52
17.52
16.23
14.89
13.62
12.44
11.18
9.56
7.37
4.57
1.33
-2.13
-5.51
-8.71
-11.76
-14.82
-18.04
-21.53
-25.37
-29.62
-34.24
-38.97
-43.29
-46.38
-47.37
-45.58
-40.89
-33.80
-25.39
-16.88
-9.22
-2.96
1.90
5.59
8.37
10.39
11.66
12.20
12.21
11.95
11.82
12.10
12.88
14.04
15.25
16.18
16.61
16.51
15.97
15.27
14.63
14.19
13.85
13.36
12.38
10.66
8.13
4.95
1.41
-2.14
-5.41
-8.27
-10.81
-13.19
-15.73
-18.78
-22.63
-27.34
-32.68
-38.06
-42.55
-45.16
-45.03
-41.78
-35.64
-27.46
-18.37
-9.53
-1.81
4.40
9.12
12.59
15.06
16.68
17.56
17.80
17.58
17.18
16.79
16.56
16.53
16.66
16.96
17.46
18.18
19.12
20.18
21.27
22.24
22.93
23.16
22.80
21.66
19.61
16.59
12.70
8.16
3.28
-1.64
-6.31
-10.61
-14.59
-18.48
-22.63
-27.38
-32.85
-39.00
-45.43
-51.43
-56.12
-58.57
-58.01
-54.07
-46.85
-37.02
-25.69
-14.19
-3.69
4.91
11.31
15.62
18.30
19.88
20.88
21.67
22.53
23.64
25.06
26.75
28.62
30.54
32.45
34.33
36.18
37.95
39.42
40.26
40.15
38.91
36.52
33.33
29.73
26.15
22.86
19.89
17.04
14.06
10.78
7.10
3.06
-1.26
-5.78
-10.43
-15.14
-19.84
-24.41
-28.84
-33.24
-37.76
-42.43
-46.94
-50.54
-52.21
-51.01
-46.46
-38.83
-29.07
-18.53
-8.58
-0.19
6.25
10.81
13.88
15.88
17.10
17.72
17.85
17.67
17.37
17.21
17.38
17.93
18.83
19.93
21.12
22.34
23.60
24.85
26.03
26.89
27.15
26.59
25.15
22.92
20.14
17.15
14.19
11.44
8.88
6.42
3.95
1.29
-1.63
-4.81
-8.20
-11.66
-15.12
-18.57
-22.17
-26.09
-30.49
-35.25
-39.85
-43.49
-45.21
-44.19
-40.10
-33.24
-24.47
-15.01
-6.00
1.75
7.88
12.43
15.67
17.84
19.03
19.28
18.61
17.26
15.65
14.28
13.64
13.86
14.82
16.15
17.39
18.18
18.34
17.91
17.00
15.80
14.34
12.71
10.89
8.88
6.74
4.54
2.34
0.20
-1.89
-4.01
-6.30
-8.90
-11.90
-15.35
-19.25
-23.44
-27.67
-31.52
-34.40
-35.62
-34.61
-31.10
-25.30
-17.87
-9.87
-2.34
3.86
8.38
11.27
12.88
13.63
13.84
13.65
13.14
12.43
11.70
11.23
11.23
11.67
12.32
12.83
12.86
12.33
11.36
10.20
9.07
8.10
7.18
6.10
4.65
2.69
0.29
-2.39
-5.05
-7.45
-9.44
-11.03
-12.35
-13.69
-15.35
-17.59
-20.59
-24.34
-28.61
-32.86
-36.32
-38.08
-37.42
-34.07
-28.28
-20.83
-12.77
-5.09
1.45
6.54
10.16
12.52
13.84
14.42
14.41
14.00
13.37
12.70
12.22
12.03
12.09
12.27
12.40
12.32
12.00
11.53
10.98
10.44
9.91
9.32
8.57
7.61
6.42
5.01
3.40
1.56
-0.46
-2.67
-4.98
-7.34
-9.68
-12.00
-14.38
-16.92
-19.86
-23.29
-27.21
-31.31
-34.94
-37.30
-37.61
-35.44
-30.80
-24.25
-16.59
-8.76
-1.55
4.47
9.01
11.95
13.42
13.70
13.20
12.35
11.43
10.56
9.75
9.01
8.47
8.34
8.84
10.03
11.74
13.65
15.45
16.92
18.02
18.74
19.07
18.87
18.06
16.56
14.47
12.01
9.37
6.69
3.96
1.08
-2.00
-5.21
-8.35
-11.26
-13.93
-16.53
-19.34
-22.55
-26.17
-29.92
-33.29
-35.63
-36.32
-34.99
-31.53
-26.21
-19.60
-12.48
-5.62
0.30
4.90
8.13
10.14
11.16
11.44
11.27
10.88
10.55
10.46
10.68
11.13
11.65
12.08
12.36
12.59
12.89
13.46
14.36
15.54
16.77
17.83
18.55
18.78
18.53
17.89
17.00
15.99
14.84
13.47
11.64
9.20
6.11
2.52
-1.30
-5.04
-8.48
-11.72
-14.98
-18.62
-22.86
-27.60
-32.35
-36.33
-38.69
-38.78
-36.36
-31.61
-25.17
-17.86
-10.60
-4.10
1.09
4.74
6.92
8.00
8.41
8.57
8.66
8.76
8.82
8.90
9.13
9.75
10.87
12.39
13.97
15.23
15.92
16.08
15.93
15.76
15.61
15.40
14.90
13.97
12.58
10.80
8.66
6.23
3.49
0.60
-2.27
-4.81
-6.88
-8.59
-10.30
-12.58
-15.87
-20.16
-25.02
-29.63
-32.92
-34.01
-32.40
-28.17
-21.95
-14.74
-7.57
-1.21
3.94
7.86
10.67
12.54
13.58
13.84
13.44
12.64
11.77
11.14
10.99
11.41
12.35
13.76
15.51
17.39
19.16
20.47
21.07
20.87
19.92
18.38
16.50
14.38
12.05
9.53
6.80
3.91
0.93
-2.04
-4.99
-7.94
-10.92
-13.94
-16.99
-20.16
-23.64
-27.72
-32.60
-38.20
-43.95
-48.93
-51.96
-52.10
-48.96
-42.86
-34.71
-25.73
-16.97
-9.14
-2.50
2.94
7.35
10.84
13.47
15.37
16.66
17.55
18.27
19.04
19.97
21.11
22.37
23.55
24.44
24.94
25.00
24.68
24.13
23.50
22.87
22.25
21.53
20.52
19.08
17.07
14.42
11.12
7.25
2.96
-1.52
-6.01
-10.34
-14.54
-18.74
-23.11
-27.80
-32.77
-37.69
-41.98
-44.97
-46.01
-44.70
-41.05
-35.40
-28.51
-21.27
-14.45
-8.59
-3.79
0.11
3.44
6.44
9.20
11.64
13.57
14.91
15.68
16.13
16.50
17.00
17.65
18.41
19.12
19.74
20.29
20.85
21.44
21.96
22.23
22.00
21.15
19.63
17.51
14.96
12.12
9.07
5.84
2.51
-0.81
-3.94
-6.75
-9.31
-11.80
-14.49
-17.63
-21.36
-25.72
-30.57
-35.49
-39.83
-42.70
-43.21
-40.81
-35.51
-28.02
-19.56
-11.44
-4.58
0.60
4.25
6.76
8.49
9.60
10.14
10.13
9.71
9.32
9.49
10.62
12.87
15.94
19.21
21.96
23.76
24.46
24.29
23.64
22.79
21.81
20.44
18.33
15.18
10.99
6.04
0.83
-4.17
-8.58
-12.32
-15.53
-18.46
-21.44
-24.67
-28.31
-32.35
-36.52
-40.28
-42.93
-43.69
-42.00
-37.70
-31.16
-23.14
-14.62
-6.45
0.68
6.45
10.85
14.01
16.26
17.88
19.18
20.39
21.69
23.11
24.68
26.32
27.93
29.34
30.34
30.80
30.67
29.98
28.82
27.31
25.53
23.54
21.27
18.68
15.66
12.06
7.90
3.27
-1.57
-6.20
-10.26
-13.54
-16.08
-18.22
-20.46
-23.25
-26.85
-31.23
-36.04
-40.54
-43.74
-44.63
-42.49
-37.25
-29.44
-20.11
-10.55
-1.84
5.32
10.69
14.40
16.75
18.04
18.59
18.64
18.39
17.97
17.48
17.00
16.71
16.73
17.18
18.05
19.15
20.20
21.05
21.60
21.94
22.18
22.31
22.17
21.47
19.91
17.37
13.97
10.07
6.08
2.33
-1.17
-4.63
-8.34
-12.59
-17.48
-22.99
-28.94
-35.08
-40.97
-46.01
-49.38
-50.24
-47.99
-42.52
-34.39
-24.67
-14.64
-5.34
2.62
9.08
14.22
18.25
21.33
23.50
24.84
25.51
25.78
26.00
26.39
27.06
27.95
28.96
29.95
30.72
31.14
31.07
30.41
29.14
27.33
25.09
22.58
19.90
17.07
14.08
10.89
7.55
4.15
0.84
-2.26
-5.08
-7.59
-9.84
-12.05
-14.50
-17.54
-21.44
-26.30
-31.93
-37.77
-42.90
-46.28
-46.97
-44.44
-38.78
-30.73
-21.49
-12.36
-4.37
1.98
6.72
10.24
12.89
14.94
16.48
17.55
18.25
18.79
19.45
20.36
21.53
22.70
23.59
23.98
23.81
23.21
22.39
21.53
20.64
19.61
18.15
15.99
12.99
9.20
4.94
0.62
-3.41
-7.01
-10.28
-13.49
-16.99
-20.97
-25.52
-30.41
-35.21
-39.26
-41.74
-41.90
-39.35
-34.13
-26.94
-18.87
-11.05
-4.36
0.87
4.73
7.57
9.75
11.52
12.94
14.13
15.21
16.43
18.01
20.08
22.60
25.36
28.04
30.31
31.94
32.77
32.74
31.83
30.04
27.37
23.76
19.24
13.93
8.14
2.29
-3.26
-8.29
-12.90
-17.44
-22.32
-27.76
-33.50
-38.83
-42.67
-44.06
-42.38
-37.68
-30.57
-22.05
-13.18
-4.78
2.60
8.72
13.49
16.99
19.28
20.50
20.84
20.57
19.95
19.22
18.55
17.92
17.27
16.58
15.82
15.14
14.64
14.35
14.19
13.85
13.08
11.70
9.71
7.23
4.55
1.85
-0.79
-3.43
-6.19
-9.23
-12.76
-16.90
-21.68
-26.82
-31.78
-35.74
-37.76
-37.12
-33.56
-27.42
-19.53
-11.07
-3.06
3.75
9.03
12.84
15.36
16.83
17.40
17.26
16.59
15.63
14.65
13.90
13.51
13.41
13.40
13.30
13.01
12.46
11.71
10.72
9.41
7.69
5.47
2.83
0.02
-2.69
-5.06
-7.02
-8.68
-10.37
-12.39
-15.02
-18.33
-22.10
-25.85
-28.86
-30.34
-29.61
-26.45
-21.15
-14.48
-7.41
-0.85
4.62
8.81
11.80
13.73
14.78
15.13
14.93
14.48
14.07
13.92
14.20
14.81
15.60
16.39
17.06
17.63
18.14
18.61
18.90
18.79
17.95
16.15
13.32
9.57
5.19
0.53
-4.13
-8.67
-13.09
-17.65
-22.60
-28.13
-34.22
-40.48
-46.13
-50.16
-51.61
-49.91
-45.11
-37.88
-29.25
-20.37
-12.14
-5.05
0.78
5.43
9.05
11.75
13.53
14.44
14.59
14.28
13.91
13.82
14.30
15.40
16.97
18.74
20.36
21.55
22.24
22.45
22.30
21.84
21.04
19.79
17.96
15.60
12.88
10.09
7.47
5.06
2.64
-0.12
-3.58
-7.97
-13.40
-19.81
-26.97
-34.40
-41.32
-46.69
-49.41
-48.67
-44.26
-36.75
-27.31
-17.33
-8.04
-0.12
6.29
11.39
15.42
18.56
20.82
22.27
23.07
23.57
24.13
24.99
26.18
27.53
28.82
29.91
30.79
31.54
32.09
32.30
31.85
30.45
28.07
24.86
21.12
17.14
13.13
9.13
5.09
1.00
-3.10
-7.04
-10.69
-13.96
-16.82
-19.29
-21.53
-23.81
-26.48
-29.96
-34.42
-39.66
-44.93
-49.14
-51.12
-50.04
-45.68
-38.47
-29.36
-19.45
-9.75
-0.97
6.49
12.46
16.93
19.96
21.70
22.45
22.66
22.76
23.12
23.86
24.85
25.84
26.52
26.80
26.76
26.59
26.41
26.23
25.89
25.17
23.91
22.08
19.82
17.29
14.72
12.23
9.92
7.81
5.82
3.79
1.57
-0.99
-3.89
-6.98
-10.00
-12.66
-14.89
-16.86
-19.02
-21.88
-25.88
-31.03
-36.91
-42.67
-47.15
-49.22
-48.09
-43.51
-35.95
-26.43
-16.19
-6.41
2.02
8.71
13.68
17.13
19.46
20.96
21.89
22.48
22.95
23.40
23.94
24.47
24.87
25.00
24.80
24.40
24.01
23.87
24.09
24.56
24.91
24.71
23.63
21.59
18.80
15.66
12.57
9.76
7.26
4.88
2.42
-0.20
-2.98
-5.72
-8.24
-10.51
-12.64
-14.92
-17.75
-21.49
-26.26
-31.86
-37.78
-43.24
-47.30
-49.13
-48.15
-44.21
-37.66
-29.27
-20.08
-11.08
-3.10
3.48
8.65
12.53
15.41
17.45
18.75
19.41
19.61
19.63
19.82
20.51
21.77
23.48
25.32
26.87
27.76
27.82
27.09
25.78
24.14
22.32
20.34
18.05
15.30
12.02
8.27
4.16
-0.07
-4.28
-8.35
-12.23
-15.96
-19.61
-23.28
-27.10
-31.22
-35.64
-40.24
-44.64
-48.15
-50.00
-49.39
-45.82
-39.25
-30.29
-20.04
-9.84
-0.86
6.17
11.06
14.09
15.74
16.43
16.51
16.20
15.72
15.33
15.29
15.82
16.97
18.64
20.57
22.44
23.95
24.93
25.27
25.06
24.43
23.49
22.21
20.31
17.53
13.68
8.86
3.47
-1.87
-6.69
-10.77
-14.31
-17.79
-21.70
-26.38
-31.87
-37.93
-44.17
-50.06
-54.92
-57.94
-58.31
-55.36
-49.06
-39.99
-29.35
-18.56
-8.87
-0.94
5.15
9.68
13.02
15.37
16.79
17.35
17.23
16.84
16.61
16.88
17.70
18.85
19.96
20.76
21.13
21.11
20.80
20.27
19.42
18.11
16.13
13.34
9.79
5.66
1.22
-3.18
-7.25
-10.75
-13.62
-15.92
-17.94
-20.14
-23.03
-27.06
-32.42
-38.85
-45.57
-51.33
-54.77
-54.76
-50.83
-43.34
-33.31
-22.15
-11.23
-1.46
6.74
13.33
18.46
22.18
24.47
25.38
25.05
23.91
22.45
21.24
20.57
20.49
20.81
21.22
21.50
21.51
21.37
21.27
21.35
21.61
21.88
21.77
20.87
18.92
15.89
12.04
7.74
3.31
-1.05
-5.37
-9.76
-14.41
-19.47
-25.08
-31.29
-38.03
-45.00
-51.50
-56.47
-58.68
-57.22
-51.80
-42.92
-31.78
-19.86
-8.46
1.65
10.17
17.15
22.73
26.94
29.77
31.21
31.44
30.84
29.89
28.98
28.38
28.24
28.53
29.15
29.94
30.69
31.21
31.34
30.99
30.21
29.06
27.52
25.45
22.63
18.91
14.38
9.39
4.41
-0.15
-4.14
-7.73
-11.28
-15.08
-19.34
-24.06
-29.23
-34.86
-40.90
-47.05
-52.64
-56.55
-57.55
-54.74
-47.84
-37.43
-24.82
-11.63
0.67
11.13
19.33
25.37
29.50
32.04
33.18
33.13
32.11
30.46
28.63
27.14
26.35
26.39
27.16
28.30
29.39
30.08
30.16
29.63
28.71
27.64
26.59
25.53
24.30
22.59
20.18
16.93
12.97
8.55
4.01
-0.40
-4.56
-8.51
-12.43
-16.54
-21.10
-26.25
-32.03
-38.22
-44.26
-49.23
-52.00
-51.58
-47.41
-39.75
-29.58
-18.34
-7.47
2.05
9.83
15.90
20.44
23.50
25.08
25.22
24.18
22.50
20.92
20.08
20.27
21.42
23.13
24.82
26.11
26.75
26.74
26.21
25.32
24.09
22.40
20.05
16.84
12.75
7.98
2.90
-2.06
-6.60
-10.65
-14.37
-18.14
-22.42
-27.52
-33.47
-39.94
-46.17
-51.09
-53.60
-52.81
-48.36
-40.58
-30.48
-19.34
-8.48
1.22
9.28
15.69
20.58
24.11
26.35
27.39
27.44
26.83
26.09
25.60
25.64
26.18
26.98
27.75
28.20
28.22
27.84
27.15
26.22
24.96
23.16
20.51
16.77
12.02
6.66
1.24
-3.67
-7.78
-11.20
-14.39
-17.98
-22.48
-28.14
-34.79
-41.80
-48.18
-52.76
-54.47
-52.65
-47.31
-39.15
-29.39
-19.45
-10.43
-2.93
3.05
7.89
11.99
15.62
18.79
21.40
23.37
24.74
25.66
26.26
26.62
26.78
26.75
26.56
26.26
25.86
25.16
23.93
21.85
18.73
14.60
9.74
4.55
-0.57
-5.31
-9.62
-13.59
-17.49
-21.59
-26.12
-31.11
-36.22
-40.77
-43.78
-44.25
-41.54
-35.59
-27.06
-17.14
-7.21
1.57
8.51
13.53
16.87
19.06
20.47
21.27
21.43
20.79
19.33
17.22
14.88
12.85
11.62
11.40
12.02
13.04
13.86
13.94
13.02
11.16
8.62
5.77
2.90
0.11
-2.70
-5.71
-9.09
-12.96
-17.38
-22.35
-27.65
-32.81
-37.00
-39.11
-38.22
-33.86
-26.37
-16.82
-6.71
2.57
10.11
15.67
19.50
22.09
23.87
25.09
25.82
26.06
25.84
25.26
24.44
23.60
22.93
22.59
22.57
22.76
22.84
22.41
21.16
18.94
15.85
12.14
8.11
3.99
-0.14
-4.28
-8.50
-12.85
-17.42
-22.29
-27.50
-32.90
-38.01
-41.91
-43.54
-41.92
-36.71
-28.31
-17.93
-7.05
2.92
11.12
17.31
21.72
24.72
26.57
27.34
27.07
25.98
24.50
23.19
22.60
22.87
23.90
25.28
26.59
27.57
28.23
28.71
29.11
29.36
29.10
27.90
25.37
21.30
15.88
9.59
3.05
-3.17
-8.69
-13.43
-17.56
-21.38
-25.25
-29.39
-33.91
-38.65
-43.24
-47.03
-49.22
-49.04
-46.01
-40.13
-31.87
-22.22
-12.31
-3.21
4.35
10.04
13.94
16.30
17.46
17.75
17.49
16.98
16.60
16.71
17.47
18.85
20.54
22.10
23.08
23.27
22.75
21.85
20.94
20.28
19.82
19.33
18.41
16.74
14.20
10.89
7.12
3.20
-0.60
-4.22
-7.73
-11.35
-15.32
-19.89
-25.19
-31.16
-37.50
-43.58
-48.50
-51.24
-50.96
-47.23
-40.30
-30.99
-20.54
-10.18
-0.86
6.84
12.73
16.86
19.34
20.37
20.21
19.27
18.08
17.12
16.79
17.24
18.38
20.01
21.81
23.47
24.76
25.48
25.52
24.88
23.67
21.99
19.93
17.52
14.71
11.44
7.74
3.75
-0.34
-4.29
-7.94
-11.16
-13.97
-16.46
-18.87
-21.52
-24.76
-28.89
-33.97
-39.63
-45.06
-49.13
-50.63
-48.71
-43.21
-34.73
-24.47
-13.92
-4.29
3.68
9.85
14.47
17.89
20.39
22.07
23.02
23.35
23.33
23.25
23.35
23.71
24.23
24.68
24.93
24.89
24.56
23.98
23.17
22.12
20.79
19.15
17.21
15.02
12.65
10.18
7.65
5.05
2.28
-0.73
-4.03
-7.56
-11.23
-14.95
-18.75
-22.78
-27.23
-32.28
-38.00
-44.30
-50.79
-56.76
-61.22
-63.03
-61.25
-55.50
-46.19
-34.50
-21.99
-10.13
0.07
8.23
14.38
18.83
21.86
23.71
24.60
24.79
24.59
24.28
24.12
24.23
24.63
25.20
25.86
26.52
27.09
27.56
27.87
27.99
27.83
27.27
26.15
24.41
22.08
19.26
16.08
12.66
9.10
5.49
1.86
-1.79
-5.45
-9.18
-12.99
-16.86
-20.72
-24.49
-28.17
-31.99
-36.19
-40.94
-46.01
-50.69
-53.86
-54.37
-51.47
-45.07
-35.87
-25.09
-14.15
-4.31
3.67
9.48
13.25
15.38
16.37
16.66
16.56
16.30
15.96
15.72
15.73
16.14
16.98
18.12
19.37
20.42
21.04
21.12
20.66
19.71
18.37
16.70
14.81
12.86
10.98
9.30
7.84
6.49
5.05
3.34
1.27
-1.21
-3.96
-6.89
-9.94
-13.13
-16.56
-20.43
-24.95
-30.26
-36.23
-42.35
-47.72
-51.15
-51.54
-48.28
-41.47
-31.94
-21.10
-10.42
-1.03
6.46
12.04
15.97
18.59
20.14
20.77
20.64
20.03
19.40
19.18
19.69
20.96
22.70
24.53
26.01
26.91
27.16
26.87
26.13
24.99
23.47
21.49
19.01
15.93
12.22
8.01
3.52
-0.89
-4.89
-8.20
-10.78
-12.85
-14.77
-16.92
-19.65
-23.11
-27.37
-32.26
-37.39
-42.06
-45.28
-46.09
-43.75
-38.14
-29.87
-20.04
-10.01
-0.90
6.52
12.04
15.71
17.75
18.36
17.74
16.17
14.04
11.81
9.94
8.75
8.30
8.40
8.76
9.13
9.45
9.86
10.50
11.37
12.28
12.83
12.65
11.52
9.47
6.77
3.70
0.46
-2.86
-6.28
-9.82
-13.48
-17.28
-21.33
-25.83
-30.96
-36.65
-42.34
-47.03
-49.47
-48.62
-44.06
-36.17
-26.09
-15.25
-5.04
3.64
10.40
15.26
18.45
20.21
20.74
20.26
19.10
17.75
16.73
16.45
17.07
18.42
20.06
21.49
22.36
22.53
22.16
21.51
20.86
20.27
19.58
18.37
16.21
12.86
8.44
3.41
-1.62
-6.12
-9.95
-13.31
-16.69
-20.56
-25.28
-30.90
-37.19
-43.63
-49.46
-53.71
-55.34
-53.62
-48.28
-39.84
-29.43
-18.56
-8.64
-0.65
5.07
8.76
10.94
12.18
12.92
13.36
13.58
13.65
13.71
13.97
14.64
15.80
17.39
19.15
20.76
21.99
22.71
23.00
23.05
22.98
22.78
22.21
20.92
18.60
15.19
10.88
6.05
1.21
-3.30
-7.40
-11.20
-14.98
-19.06
-23.74
-29.12
-35.05
-40.98
-46.10
-49.41
-50.02
-47.45
-41.86
-33.94
-24.80
-15.56
-7.10
0.11
6.03
10.83
14.73
17.86
20.27
21.99
23.12
23.89
24.58
25.41
26.46
27.59
28.57
29.19
29.34
29.10
28.61
28.04
27.40
26.64
25.53
23.89
21.59
18.54
14.81
10.59
6.13
1.73
-2.31
-5.88
-9.09
-12.32
-16.08
-20.84
-26.71
-33.36
-40.03
-45.63
-49.07
-49.53
-46.63
-40.60
-32.12
-22.22
-11.98
-2.33
6.03
12.69
17.50
20.54
21.99
22.18
21.46
20.27
19.09
18.28
18.13
18.68
19.78
21.16
22.45
23.43
23.99
24.12
23.84
23.07
21.61
19.24
15.84
11.52
6.67
1.80
-2.60
-6.25
-9.16
-11.65
-14.16
-17.13
-20.84
-25.33
-30.29
-35.12
-38.96
-40.81
-39.89
-35.83
-28.93
-20.12
-10.71
-1.92
5.43
11.11
15.33
18.47
20.76
22.25
22.87
22.63
21.78
20.75
19.98
19.62
19.55
19.36
18.70
17.41
15.66
13.80
12.15
10.79
9.57
8.12
6.09
3.34
-0.05
-3.80
-7.52
-10.83
-13.52
-15.62
-17.44
-19.44
-22.09
-25.68
-30.22
-35.22
-39.85
-43.03
-43.77
-41.47
-36.11
-28.36
-19.31
-10.22
-2.07
4.66
9.97
14.17
17.67
20.69
23.30
25.35
26.71
27.39
27.51
27.37
27.18
27.05
26.87
26.43
25.51
24.08
22.26
20.25
18.30
16.53
14.89
13.29
11.52
9.40
6.80
3.74
0.31
-3.28
-6.82
-10.17
-13.30
-16.36
-19.56
-23.14
-27.25
-31.98
-37.11
-42.20
-46.49
-48.99
-48.84
-45.50
-39.05
-30.20
-20.17
-10.23
-1.46
5.60
10.93
14.85
17.80
20.12
21.96
23.31
24.20
24.73
25.08
25.46
26.00
26.70
27.45
28.12
28.65
29.00
29.13
28.91
28.19
26.75
24.53
21.66
18.44
15.22
12.27
9.63
7.13
4.54
1.67
-1.49
-4.83
-8.15
-11.28
-14.20
-17.03
-20.03
-23.52
-27.77
-32.86
-38.58
-44.31
-49.08
-51.71
-51.27
-47.33
-40.21
-30.95
-20.93
-11.52
-3.61
2.42
6.79
9.95
12.38
14.38
16.11
17.60
18.89
20.06
21.24
22.53
23.95
25.40
26.75
27.92
28.87
29.61
30.09
30.18
29.73
28.62
26.85
24.53
21.82
18.82
15.59
12.10
8.40
4.57
0.74
-3.03
-6.69
-10.20
-13.53
-16.68
-19.71
-22.83
-26.32
-30.40
-34.99
-39.54
-43.11
-44.70
-43.55
-39.53
-33.09
-25.17
-16.79
-8.81
-1.67
4.48
9.68
14.05
17.62
20.31
22.14
23.21
23.80
24.26
24.90
25.88
27.10
28.22
28.85
28.71
27.76
26.20
24.33
22.37
20.28
17.83
14.71
10.65
5.69
0.18
-5.34
-10.34
-14.45
-17.55
-19.81
-21.59
-23.37
-25.53
-28.38
-31.99
-36.07
-40.01
-42.91
-43.82
-42.02
-37.34
-30.28
-21.88
-13.29
-5.56
0.80
5.70
9.30
11.82
13.39
14.06
13.86
12.97
11.73
10.58
9.91
9.98
10.84
12.32
14.12
15.88
17.35
18.45
19.17
19.59
19.75
19.60
18.99
17.76
15.83
13.20
10.03
6.46
2.72
-1.02
-4.62
-8.06
-11.43
-14.95
-18.90
-23.53
-28.91
-34.85
-40.83
-45.97
-49.36
-50.10
-47.66
-42.09
-33.99
-24.39
-14.48
-5.28
2.60
8.91
13.81
17.59
20.46
22.55
23.82
24.28
24.02
23.30
22.42
21.66
21.20
21.05
21.10
21.24
21.42
21.61
21.83
22.04
22.10
21.79
20.87
19.20
16.75
13.61
9.98
6.06
1.95
-2.24
-6.42
-10.46
-14.22
-17.62
-20.71
-23.69
-26.90
-30.66
-35.10
-40.08
-45.09
-49.28
-51.70
-51.48
-48.19
-41.96
-33.51
-24.00
-14.67
-6.55
-0.12
4.60
8.00
10.56
12.63
14.38
15.86
17.13
18.28
19.49
20.93
22.61
24.43
26.23
27.90
29.43
30.90
32.36
33.72
34.71
35.01
34.38
32.73
30.23
27.15
23.67
20.00
16.17
12.18
8.00
3.67
-0.69
-4.96
-9.00
-12.66
-15.89
-18.77
-21.58
-24.81
-28.89
-34.07
-40.20
-46.55
-51.93
-55.00
-54.67
-50.49
-42.88
-32.92
-22.04
-11.59
-2.51
4.88
10.65
15.05
18.36
20.75
22.26
22.92
22.85
22.32
21.68
21.27
21.30
21.81
22.69
23.77
24.87
25.81
26.49
26.74
26.45
25.55
24.04
21.96
19.45
16.55
13.29
9.73
5.98
2.22
-1.29
-4.34
-6.85
-8.92
-10.73
-12.53
-14.61
-17.21
-20.54
-24.73
-29.73
-35.11
-40.10
-43.60
-44.56
-42.25
-36.69
-28.64
-19.35
-10.13
-1.96
4.76
10.10
14.30
17.59
19.99
21.45
21.96
21.69
20.97
20.20
19.69
19.51
19.60
19.80
19.84
19.58
18.91
17.83
16.44
14.98
13.70
12.88
12.61
12.84
13.44
14.10
14.58
14.70
14.41
13.69
12.49
10.77
8.46
5.56
2.19
-1.43
-4.95
-8.07
-10.58
-12.45
-13.75
-14.74
-15.68
-16.94
-18.81
-21.52
-25.14
-29.42
-33.80
-37.41
-39.27
-38.61
-35.10
-29.01
-21.19
-12.79
-4.87
1.82
7.07
11.01
13.95
16.14
17.61
18.23
17.94
16.88
15.41
14.01
13.10
12.84
13.09
13.49
13.68
13.48
13.00
12.51
12.29
12.39
12.54
12.27
11.08
8.72
5.33
1.38
-2.59
-6.08
-8.93
-11.28
-13.50
-16.12
-19.60
-24.17
-29.79
-35.99
-41.91
-46.39
-48.31
-46.89
-42.03
-34.36
-25.08
-15.53
-6.88
0.30
5.90
10.17
13.45
15.95
17.66
18.54
18.64
18.18
17.52
17.01
16.83
16.98
17.28
17.55
17.69
17.79
17.98
18.45
19.10
19.70
19.80
18.91
16.68
13.07
8.43
3.31
-1.54
-5.64
-8.82
-11.33
-13.67
-16.45
-20.15
-24.96
-30.77
-37.05
-42.97
-47.48
-49.52
-48.26
-43.47
-35.68
-26.05
-16.03
-6.92
0.52
6.10
10.13
13.03
15.19
16.77
17.87
18.53
18.95
19.33
19.86
20.70
21.82
23.10
24.28
25.14
25.51
25.44
25.03
24.42
23.66
22.65
21.10
18.71
15.38
11.16
6.44
1.72
-2.59
-6.25
-9.30
-12.04
-14.88
-18.22
-22.39
-27.45
-33.24
-39.32
-44.84
-48.85
-50.42
-48.97
-44.46
-37.53
-29.23
-20.72
-12.90
-6.21
-0.63
4.20
8.63
12.86
16.79
20.21
22.97
25.02
26.63
28.04
29.46
30.89
32.06
32.70
32.58
31.82
30.65
29.42
28.28
27.13
25.70
23.71
20.94
17.41
13.35
9.05
4.81
0.78
-2.94
-6.38
-9.64
-12.89
-16.42
-20.53
-25.41
-30.90
-36.53
-41.37
-44.29
-44.32
-40.95
-34.37
-25.41
-15.31
-5.26
3.87
11.76
18.42
24.01
28.60
32.11
34.43
35.52
35.57
34.93
34.03
33.33
33.23
34.05
35.89
38.67
41.99
45.10
47.14
47.33
45.16
40.55
33.81
25.49
16.26
6.77
-2.51
-11.16
-19.01
-26.10
-32.65
-39.02
-45.70
-52.89
-60.45
-67.68
-73.46
-76.54
-76.01
-71.63
-63.91
-54.08
-43.61
-33.85
-25.62
-19.18
-14.36
-10.79
-8.10
-6.08
-4.55
-3.39
-2.41
-1.47
-0.38
1.00
2.60
4.35
6.10
7.71
9.08
10.19
10.95
11.19
10.75
9.37
6.99
3.77
0.05
-3.63
-6.84
-9.41
-11.52
-13.58
-16.14
-19.56
-23.85
-28.66
-33.23
-36.60
-37.89
-36.47
-32.15
-25.31
-16.77
-7.50
1.39
9.15
15.34
19.82
22.78
24.49
25.14
24.94
24.07
22.74
21.32
20.22
19.74
20.04
21.01
22.30
23.53
24.50
25.17
25.72
26.33
26.99
27.55
27.69
27.06
25.50
23.13
20.11
16.71
13.10
9.18
4.83
-0.26
-6.28
-13.34
-21.38
-30.15
-39.05
-47.21
-53.52
-56.81
-56.25
-51.68
-43.69
-33.46
-22.54
-12.21
-3.22
4.23
10.47
15.89
20.70
24.96
28.48
31.10
32.80
33.74
34.15
34.33
34.44
34.50
34.45
34.22
33.75
32.97
31.91
30.57
28.93
26.96
24.58
21.73
18.39
14.60
10.55
6.42
2.32
-1.70
-5.72
-9.79
-13.83
-17.71
-21.27
-24.52
-27.71
-31.26
-35.49
-40.45
-45.69
-50.34
-53.27
-53.47
-50.39
-44.08
-35.29
-25.19
-15.04
-5.92
1.60
7.42
11.85
15.26
17.96
20.08
21.63
22.65
23.27
23.75
24.37
25.42
27.05
29.30
31.97
34.83
37.47
39.51
40.61
40.48
39.06
36.40
32.77
28.46
23.75
18.93
14.17
9.61
5.29
1.25
-2.48
-5.93
-9.15
-12.29
-15.48
-18.87
-22.50
-26.42
-30.57
-34.77
-38.62
-41.43
-42.39
-40.79
-36.41
-29.66
-21.62
-13.51
-6.44
-0.90
3.16
6.10
8.39
10.25
11.72
12.72
13.29
13.59
13.92
14.60
15.81
17.52
19.43
21.10
22.07
22.02
20.91
19.04
16.90
14.96
13.47
12.36
11.37
10.15
8.47
6.31
3.82
1.21
-1.36
-3.82
-6.30
-8.98
-12.05
-15.64
-19.84
-24.59
-29.58
-34.39
-38.34
-40.58
-40.35
-37.13
-30.99
-22.57
-13.07
-3.87
3.88
9.59
13.27
15.39
16.63
17.53
18.46
19.47
20.51
21.51
22.42
23.29
24.20
25.19
26.19
26.97
27.31
26.94
25.76
23.80
21.30
18.57
15.93
13.52
11.32
9.17
6.83
4.22
1.31
-1.77
-4.88
-7.93
-11.00
-14.22
-17.78
-21.85
-26.49
-31.77
-37.45
-43.20
-48.31
-51.84
-52.79
-50.52
-44.93
-36.64
-26.84
-16.83
-7.70
-0.08
5.96
10.68
14.40
17.35
19.69
21.49
22.80
23.74
24.33
24.63
24.67
24.50
24.10
23.60
23.02
22.37
21.58
20.60
19.42
18.09
16.70
15.30
13.86
12.28
10.48
8.42
6.21
3.97
1.75
-0.46
-2.78
-5.36
-8.36
-11.85
-15.92
-20.61
-26.06
-32.27
-39.06
-45.87
-51.74
-55.48
-56.05
-52.91
-46.30
-37.21
-27.03
-17.12
-8.38
-1.13
4.74
9.54
13.50
16.71
19.08
20.57
21.26
21.29
21.00
20.71
20.65
20.93
21.53
22.27
22.95
23.40
23.45
23.03
22.15
20.86
19.28
17.55
15.75
13.89
11.89
9.55
6.75
3.47
-0.13
-3.74
-7.07
-9.91
-12.27
-14.35
-16.53
-19.17
-22.52
-26.72
-31.54
-36.41
-40.48
-42.77
-42.46
-39.13
-32.99
-24.81
-15.75
-6.99
0.60
6.54
10.86
13.84
15.86
17.23
18.15
18.70
19.03
19.25
19.58
20.26
21.38
22.93
24.67
26.25
27.26
27.47
26.82
25.47
23.74
21.82
19.77
17.48
14.82
11.73
8.32
4.86
1.61
-1.26
-3.80
-6.28
-9.05
-12.43
-16.62
-21.62
-27.16
-32.74
-37.59
-40.93
-41.99
-40.31
-35.92
-29.29
-21.23
-12.72
-4.68
2.23
7.68
11.62
14.12
15.35
15.53
14.93
13.91
12.83
12.01
11.72
12.02
12.84
13.97
15.17
16.29
17.24
18.00
18.54
18.81
18.61
17.73
15.95
13.25
9.78
5.86
1.88
-1.84
-5.24
-8.57
-12.19
-16.53
-21.83
-27.97
-34.39
-40.15
-44.11
-45.25
-43.05
-37.56
-29.56
-20.23
-10.85
-2.52
4.13
9.01
12.33
14.51
15.92
16.79
17.25
17.34
17.15
16.75
16.28
15.86
15.54
15.32
15.09
14.78
14.31
13.62
12.64
11.26
9.35
6.86
3.89
0.70
-2.44
-5.28
-7.78
-10.14
-12.71
-15.91
-19.99
-24.98
-30.60
-36.18
-40.82
-43.48
-43.28
-39.82
-33.40
-25.06
-16.21
-8.24
-2.01
2.28
5.06
7.10
9.02
11.14
13.32
15.17
16.31
16.62
16.32
15.85
15.64
15.94
16.65
17.41
17.75
17.32
16.01
13.89
11.21
8.16
4.94
1.68
-1.46
-4.44
-7.25
-10.05
-13.16
-16.97
-21.72
-27.29
-33.02
-37.78
-40.39
-39.91
-36.04
-29.34
-20.94
-12.26
-4.48
1.77
6.49
10.05
12.91
15.33
17.28
18.64
19.31
19.31
18.81
18.16
17.61
17.37
17.45
17.70
17.95
17.92
17.40
16.32
14.78
12.88
10.77
8.47
5.80
2.61
-1.28
-5.99
-11.47
-17.63
-24.23
-30.82
-36.65
-40.78
-42.21
-40.28
-34.95
-26.94
-17.50
-8.11
0.16
6.76
11.74
15.50
18.48
20.92
22.85
24.14
24.72
24.67
24.20
23.58
23.06
22.79
22.79
23.00
23.29
23.46
23.25
22.40
20.72
18.15
14.85
11.08
7.13
3.20
-0.64
-4.51
-8.64
-13.25
-18.50
-24.40
-30.57
-36.28
-40.46
-42.05
-40.29
-35.14
-27.21
-17.68
-7.89
1.14
8.78
14.89
19.55
22.98
25.28
26.54
26.87
26.44
25.55
24.49
23.57
22.90
22.46
22.08
21.61
20.96
20.18
19.43
18.74
18.00
16.95
15.25
12.65
9.21
5.18
0.95
-3.10
-6.89
-10.50
-14.17
-18.18
-22.71
-27.73
-32.93
-37.82
-41.53
-43.29
-42.40
-38.53
-31.87
-23.12
-13.38
-3.73
4.92
12.10
17.69
21.87
24.82
26.69
27.55
27.49
26.75
25.64
24.62
23.93
23.66
23.72
23.82
23.72
23.24
22.27
20.72
18.54
15.67
12.11
7.94
3.32
-1.50
-6.26
-10.69
-14.68
-18.28
-21.68
-25.26
-29.28
-33.79
-38.42
-42.44
-44.85
-44.79
-41.77
-35.93
-27.97
-18.92
-9.87
-1.72
4.97
10.00
13.50
15.78
17.21
18.13
18.86
19.57
20.38
21.26
22.16
23.02
23.79
24.45
24.93
25.08
24.77
23.84
22.20
19.86
16.84
13.19
9.01
4.42
-0.45
-5.41
-10.28
-15.00
-19.68
-24.55
-29.87
-35.78
-42.01
-47.98
-52.68
-54.93
-53.77
-48.83
-40.51
-29.99
-18.79
-8.32
0.52
7.49
12.87
17.09
20.45
23.02
24.71
25.45
25.35
24.73
24.05
23.68
23.77
24.21
24.66
24.67
23.96
22.49
20.39
17.97
15.50
13.09
10.74
8.32
5.68
2.65
-0.69
-4.18
-7.49
-10.34
-12.66
-14.60
-16.57
-19.06
-22.48
-26.85
-31.88
-36.97
-41.34
-44.18
-44.74
-42.52
-37.41
-29.77
-20.41
-10.49
-1.12
6.86
13.08
17.66
20.91
23.20
24.78
25.72
26.03
25.80
25.25
24.62
24.24
24.20
24.48
24.86
24.99
24.60
23.57
22.02
20.16
18.31
16.59
15.05
13.50
11.73
9.56
6.96
4.02
0.84
-2.41
-5.65
-8.81
-11.82
-14.68
-17.39
-20.05
-22.94
-26.45
-30.85
-36.25
-42.26
-48.00
-52.28
-53.78
-51.59
-45.45
-35.92
-24.21
-11.89
-0.41
9.21
16.49
21.41
24.26
25.47
25.45
24.61
23.28
21.78
20.39
19.34
18.71
18.56
18.83
19.35
19.97
20.58
21.17
21.78
22.38
22.81
22.80
22.04
20.35
17.84
14.85
11.81
9.05
6.63
4.35
1.87
-1.14
-4.74
-8.65
-12.42
-15.57
-17.91
-19.57
-21.08
-23.09
-26.19
-30.60
-36.14
-42.11
-47.48
-51.05
-51.81
-49.26
-43.48
-35.14
-25.31
-15.20
-5.88
1.96
8.03
12.31
15.02
16.54
17.27
17.58
17.79
18.03
18.35
18.73
19.22
19.86
20.72
21.78
22.92
24.02
24.90
25.49
25.78
25.79
25.51
24.88
23.78
22.20
20.25
18.04
15.73
13.35
10.74
7.67
3.97
-0.34
-4.96
-9.49
-13.57
-17.08
-20.15
-23.26
-26.85
-31.21
-36.30
-41.57
-46.09
-48.72
-48.48
-44.81
-37.88
-28.54
-18.04
-7.71
1.37
8.69
14.16
17.94
20.15
20.90
20.24
18.40
15.81
13.08
10.83
9.47
9.13
9.47
10.11
10.55
10.55
10.03
9.09
7.91
6.62
5.22
3.65
1.82
-0.28
-2.60
-5.03
-7.46
-9.78
-11.89
-13.73
-15.23
-16.46
-17.66
-19.27
-21.83
-25.73
-30.95
-36.95
-42.65
-46.67
-47.76
-45.19
-38.96
-29.88
-19.18
-8.22
1.80
10.14
16.52
20.93
23.60
24.87
25.03
24.39
23.30
22.11
21.14
20.61
20.54
20.78
21.01
20.79
19.85
18.13
15.80
13.29
10.98
9.04
7.30
5.36
2.74
-0.75
-5.00
-9.50
-13.62
-16.95
-19.51
-21.60
-23.79
-26.57
-30.21
-34.81
-40.26
-46.26
-52.27
-57.43
-60.61
-60.70
-56.97
-49.43
-38.94
-26.92
-14.92
-4.15
4.79
11.86
17.34
21.51
24.54
26.41
27.13
26.78
25.78
24.65
23.96
23.99
24.79
26.07
27.32
28.18
28.35
27.77
26.59
24.96
23.02
20.87
18.50
15.81
12.75
9.22
5.18
0.68
-4.16
-9.16
-14.07
-18.67
-22.93
-26.95
-31.04
-35.61
-40.90
-46.84
-52.83
-57.86
-60.72
-60.36
-56.23
-48.59
-38.37
-26.92
-15.65
-5.62
2.63
8.96
13.60
16.84
18.98
20.26
20.93
21.28
21.58
22.06
22.88
24.09
25.64
27.38
29.07
30.50
31.49
31.88
31.65
30.82
29.37
27.25
24.37
20.59
15.95
10.62
5.00
-0.49
-5.48
-9.79
-13.49
-16.89
-20.37
-24.32
-28.97
-34.44
-40.46
-46.45
-51.56
-54.72
-54.90
-51.53
-44.58
-34.76
-23.32
-11.72
-1.21
7.44
13.98
18.61
21.65
23.42
24.19
24.19
23.80
23.49
23.70
24.77
26.79
29.49
32.34
34.77
36.24
36.60
35.92
34.43
32.43
30.09
27.34
24.01
20.00
15.33
10.34
5.47
1.21
-2.11
-4.41
-5.93
-7.17
-8.67
-11.04
-14.71
-19.86
-26.25
-33.13
-39.37
-43.62
-44.64
-41.77
-35.16
-25.75
-14.99
-4.41
4.81
11.99
17.01
20.12
21.64
21.81
20.90
19.22
17.20
15.40
14.34
14.33
15.38
17.25
19.44
21.46
22.99
23.95
24.39
24.42
24.05
23.06
21.20
18.25
14.33
9.80
5.24
1.18
-2.16
-4.86
-7.38
-10.27
-13.91
-18.44
-23.68
-29.11
-33.94
-37.30
-38.31
-36.36
-31.38
-23.89
-14.85
-5.46
3.18
10.31
15.66
19.29
21.47
22.54
22.78
22.44
21.67
20.70
19.71
18.90
18.38
18.16
18.10
17.93
17.47
16.72
15.84
15.01
14.34
13.62
12.44
10.40
7.35
3.47
-0.73
-4.78
-8.31
-11.26
-13.85
-16.38
-19.15
-22.48
-26.48
-31.15
-36.21
-41.04
-44.71
-46.19
-44.71
-40.00
-32.51
-23.25
-13.61
-4.78
2.46
7.90
11.80
14.71
17.11
19.25
21.18
22.71
23.77
24.32
24.52
24.50
24.33
23.97
23.25
22.11
20.58
18.91
17.43
16.44
16.05
16.00
15.84
15.04
13.30
10.65
7.49
4.34
1.65
-0.42
-2.15
-4.11
-6.88
-10.97
-16.54
-23.42
-31.02
-38.49
-44.72
-48.63
-49.35
-46.52
-40.44
-31.94
-22.24
-12.53
-3.72
3.66
9.46
13.85
17.12
19.55
21.42
22.90
24.11
25.16
26.12
27.10
28.23
29.58
31.09
32.64
33.93
34.66
34.67
33.91
32.53
30.75
28.77
26.58
24.10
21.17
17.63
13.56
9.12
4.66
0.52
-3.06
-6.09
-8.67
-11.09
-13.79
-17.05
-21.06
-25.79
-30.97
-36.07
-40.28
-42.66
-42.45
-39.27
-33.27
-25.34
-16.65
-8.42
-1.46
3.96
8.05
11.14
13.51
15.26
16.33
16.77
16.81
16.84
17.28
18.36
20.07
22.19
24.33
26.09
27.21
27.54
27.06
25.86
24.08
21.85
19.26
16.36
13.13
9.61
5.90
2.16
-1.36
-4.45
-7.03
-9.17
-11.11
-13.22
-15.83
-19.20
-23.41
-28.21
-33.09
-37.16
-39.50
-39.23
-35.98
-29.87
-21.66
-12.36
-3.09
5.26
12.24
17.70
21.75
24.57
26.36
27.27
27.43
26.99
26.16
25.14
24.16
23.31
22.56
21.75
20.66
19.14
17.15
14.82
12.33
9.83
7.41
5.09
2.80
0.49
-1.91
-4.45
-7.10
-9.79
-12.40
-14.83
-17.08
-19.32
-21.85
-24.90
-28.57
-32.66
-36.79
-40.39
-42.98
-44.06
-43.20
-40.09
-34.70
-27.36
-18.82
-10.08
-2.07
4.62
9.92
14.13
17.67
20.80
23.48
25.56
26.90
27.52
27.63
27.45
27.17
26.81
26.32
25.67
24.89
24.07
23.23
22.25
20.93
19.10
16.63
13.63
10.33
6.99
3.83
0.92
-1.80
-4.51
-7.39
-10.57
-13.97
-17.39
-20.64
-23.55
-26.13
-28.54
-31.05
-33.90
-37.22
-40.80
-44.11
-46.36
-46.65
-44.23
-38.81
-30.69
-20.76
-10.25
-0.37
8.01
14.43
18.96
21.94
23.82
25.00
25.70
26.01
26.01
25.72
25.28
24.88
24.64
24.62
24.80
25.10
25.47
25.89
26.28
26.41
26.05
24.89
22.81
19.89
16.45
12.88
9.40
6.04
2.72
-0.68
-4.14
-7.53
-10.73
-13.66
-16.35
-18.97
-21.77
-24.90
-28.55
-32.88
-37.91
-43.49
-49.01
-53.50
-55.77
-54.82
-50.22
-42.35
-32.28
-21.34
-10.82
-1.62
5.85
11.58
15.79
18.76
20.81
22.21
23.22
23.97
24.57
25.01
25.25
25.31
25.16
24.80
24.18
23.32
22.18
20.80
19.20
17.44
15.63
13.79
11.95
10.16
8.43
6.71
4.91
2.93
0.66
-1.95
-4.86
-7.96
-11.10
-14.07
-16.84
-19.50
-22.33
-25.72
-29.90
-34.75
-39.63
-43.46
-44.98
-43.21
-37.92
-29.73
-20.03
-10.39
-2.11
4.15
8.36
10.89
12.27
12.84
12.73
12.02
10.95
9.91
9.36
9.66
10.92
12.94
15.24
17.28
18.61
19.04
18.68
17.80
16.74
15.60
14.29
12.49
9.87
6.25
1.77
-3.11
-7.82
-11.75
-14.63
-16.48
-17.69
-18.90
-20.78
-23.83
-28.21
-33.63
-39.31
-44.19
-47.04
-46.86
-43.13
-36.06
-26.48
-15.64
-4.93
4.55
12.11
17.60
21.13
23.00
23.57
23.17
22.17
20.95
19.91
19.35
19.42
20.04
20.99
21.99
22.68
22.83
22.33
21.27
19.81
18.08
16.08
13.62
10.48
6.47
1.66
-3.61
-8.83
-13.59
-17.68
-21.19
-24.50
-28.06
-32.21
-37.07
-42.52
-48.04
-52.87
-55.97
-56.30
-53.11
-46.23
-36.27
-24.49
-12.47
-1.64
7.12
13.58
18.07
21.11
23.10
24.26
24.61
24.21
23.26
22.13
21.28
21.01
21.43
22.38
23.50
24.43
24.98
25.11
25.00
24.84
24.68
24.38
23.61
21.99
19.25
15.36
10.57
5.38
0.38
-4.09
-7.91
-11.33
-14.77
-18.70
-23.47
-29.10
-35.31
-41.47
-46.63
-49.71
-49.73
-46.22
-39.32
-29.95
-19.55
-9.59
-1.22
5.13
9.73
13.18
16.10
18.83
21.30
23.21
24.39
24.87
24.97
25.21
25.96
27.32
29.14
30.99
32.43
33.13
32.99
32.18
30.91
29.38
27.66
25.61
23.02
19.68
15.58
10.90
5.94
1.04
-3.56
-7.79
-11.75
-15.69
-19.93
-24.79
-30.58
-37.33
-44.74
-52.04
-58.02
-61.24
-60.46
-55.10
-45.49
-32.85
-18.94
-5.54
6.02
15.11
21.70
26.18
28.94
30.28
30.38
29.45
27.81
25.96
24.37
23.50
23.57
24.59
26.27
28.29
30.26
31.89
32.99
33.45
33.18
32.06
29.95
26.72
22.37
17.09
11.26
5.39
-0.05
-4.68
-8.34
-11.08
-13.08
-14.68
-16.36
-18.67
-22.09
-26.92
-33.00
-39.65
-45.77
-49.98
-51.13
-48.60
-42.58
-33.83
-23.65
-13.33
-3.87
4.13
10.55
15.48
19.12
21.62
23.13
23.75
23.73
23.40
23.15
23.29
23.86
24.61
25.15
25.07
24.18
22.67
20.97
19.50
18.43
17.53
16.27
14.11
10.81
6.53
1.73
-2.99
-7.26
-11.01
-14.52
-18.19
-22.43
-27.42
-33.15
-39.14
-44.57
-48.31
-49.22
-46.50
-40.13
-30.87
-20.10
-9.40
-0.01
7.40
12.74
16.26
18.28
19.00
18.64
17.49
16.00
14.68
14.11
14.60
16.22
18.72
21.65
24.49
26.77
28.19
28.62
28.21
27.11
25.42
23.04
19.78
15.43
10.04
3.96
-2.22
-7.90
-12.72
-16.69
-20.20
-23.86
-28.27
-33.83
-40.58
-48.03
-55.22
-60.83
-63.45
-62.09
-56.47
-47.16
-35.50
-23.14
-11.56
-1.78
5.93
11.78
16.24
19.77
22.59
24.76
26.20
26.91
27.04
26.89
26.78
26.94
27.38
27.91
28.25
28.17
27.67
26.86
25.98
25.17
24.38
23.30
21.59
18.91
15.13
10.39
5.02
-0.49
-5.73
-10.41
-14.43
-17.96
-21.26
-24.71
-28.69
-33.49
-39.15
-45.43
-51.64
-56.83
-59.82
-59.58
-55.51
-47.76
-37.25
-25.39
-13.72
-3.44
4.81
11.03
15.56
18.86
21.32
23.04
24.16
24.83
25.32
25.92
26.85
28.13
29.63
31.12
32.38
33.35
33.98
34.29
34.20
33.55
32.20
30.07
27.26
23.97
20.47
16.96
13.46
9.90
6.12
2.01
-2.31
-6.58
-10.46
-13.73
-16.35
-18.56
-20.77
-23.53
-27.36
-32.53
-38.97
-46.03
-52.64
-57.41
-58.98
-56.54
-50.06
-40.35
-28.80
-16.97
-6.12
2.91
9.81
14.67
17.85
19.76
20.89
21.67
22.35
23.02
23.66
24.11
24.35
24.50
24.79
25.48
26.64
28.14
29.67
30.86
31.39
31.09
29.94
28.07
25.68
22.95
20.11
17.24
14.36
11.36
8.09
4.45
0.47
-3.66
-7.75
-11.63
-15.27
-18.87
-22.72
-27.21
-32.58
-38.76
-45.24
-50.98
-54.65
-55.01
-51.29
-43.55
-32.78
-20.56
-8.53
2.00
10.40
16.64
21.03
23.96
25.68
26.34
26.08
25.10
23.78
22.50
21.62
21.37
21.72
22.45
23.20
23.63
23.56
22.95
21.93
20.66
19.20
17.51
15.36
12.54
8.90
4.47
-0.53
-5.71
-10.67
-15.14
-18.93
-22.09
-24.77
-27.28
-29.93
-32.92
-36.34
-39.98
-43.35
-45.69
-46.10
-43.81
-38.47
-30.32
-20.17
-9.21
1.30
10.34
17.39
22.31
25.28
26.59
26.47
25.18
23.04
20.54
18.24
16.73
16.30
16.89
18.09
19.29
20.03
20.04
19.44
18.46
17.39
16.36
15.32
14.17
12.73
10.85
8.44
5.43
1.83
-2.21
-6.44
-10.51
-14.12
-17.20
-19.92
-22.71
-26.14
-30.64
-36.29
-42.71
-48.93
-53.66
-55.63
-53.91
-48.30
-39.43
-28.54
-17.21
-6.78
1.89
8.54
13.35
16.74
19.02
20.41
21.12
21.40
21.55
21.89
22.58
23.52
24.49
25.24
25.58
25.57
25.32
24.89
24.28
23.36
21.95
19.97
17.37
14.22
10.61
6.72
2.67
-1.34
-5.10
-8.43
-11.26
-13.59
-15.57
-17.43
-19.47
-22.02
-25.36
-29.71
-35.08
-41.19
-47.35
-52.51
-55.47
-55.20
-51.23
-43.81
-33.95
-23.04
-12.50
-3.36
3.96
9.52
13.66
16.79
19.20
21.08
22.60
23.95
25.24
26.52
27.69
28.60
29.11
29.21
29.02
28.67
28.29
27.82
27.16
26.22
24.97
23.46
21.75
19.78
17.43
14.54
11.03
6.91
2.32
-2.49
-7.24
-11.74
-15.86
-19.54
-22.83
-25.87
-28.84
-32.04
-35.75
-40.14
-45.11
-50.03
-53.83
-55.19
-53.00
-46.77
-36.98
-25.00
-12.55
-1.25
7.87
14.55
19.11
22.05
23.85
24.71
24.72
23.92
22.50
20.85
19.43
18.69
18.86
19.93
21.59
23.40
24.96
26.05
26.62
26.73
26.38
25.50
23.89
21.35
17.91
13.81
9.44
5.11
1.00
-2.92
-6.71
-10.40
-13.86
-16.91
-19.33
-21.07
-22.32
-23.55
-25.43
-28.62
-33.44
-39.63
-46.26
-51.83
-54.78
-53.95
-49.06
-40.76
-30.45
-19.71
-9.86
-1.70
4.54
9.09
12.36
14.82
16.77
18.44
19.94
21.33
22.66
23.91
25.02
25.96
26.71
27.24
27.52
27.46
26.96
26.02
24.75
23.39
22.17
21.22
20.32
19.05
16.94
13.68
9.44
4.69
0.04
-4.08
-7.58
-10.71
-13.82
-17.21
-21.02
-25.24
-29.82
-34.64
-39.42
-43.61
-46.32
-46.49
-43.35
-36.74
-27.29
-16.29
-5.21
4.63
12.47
18.07
21.51
23.07
22.96
21.47
18.95
15.91
12.97
10.68
9.50
9.56
10.74
12.68
14.94
17.09
18.89
20.32
21.36
21.98
21.92
20.78
18.16
13.94
8.40
2.17
-3.92
-9.19
-13.37
-16.61
-19.39
-22.30
-25.83
-30.17
-35.11
-40.09
-44.22
-46.46
-45.90
-42.07
-35.05
-25.61
-14.93
-4.32
5.09
12.58
17.93
21.21
22.70
22.76
21.73
19.99
17.93
16.03
14.64
14.04
14.32
15.30
16.63
17.86
18.62
18.72
18.20
17.27
16.07
14.62
12.72
10.17
6.77
2.60
-1.95
-6.42
-10.48
-14.02
-17.34
-20.87
-25.09
-30.27
-36.32
-42.68
-48.36
-52.14
-52.83
-49.70
-42.73
-32.72
-21.05
-9.27
1.33
10.02
16.66
21.45
24.65
26.48
27.04
26.55
25.40
24.14
23.36
23.38
24.15
25.25
26.17
26.55
26.35
25.79
25.19
24.71
24.15
23.13
21.14
17.86
13.28
7.69
1.67
-4.17
-9.30
-13.50
-16.90
-19.99
-23.42
-27.76
-33.23
-39.46
-45.54
-50.18
-52.07
-50.37
-44.94
-36.46
-26.18
-15.55
-5.72
2.62
9.35
14.70
19.02
22.53
25.35
27.47
28.90
29.77
30.23
30.47
30.65
30.78
30.81
30.61
30.03
28.97
27.45
25.57
23.52
21.42
19.29
17.00
14.33
11.15
7.54
3.84
0.47
-2.25
-4.30
-6.06
-8.14
-11.26
-15.91
-22.22
-29.83
-37.91
-45.21
-50.30
-51.99
-49.55
-43.09
-33.52
-22.30
-11.03
-1.01
7.07
13.13
17.51
20.70
23.07
24.84
26.03
26.68
26.91
26.92
26.97
27.24
27.74
28.31
28.64
28.50
27.84
26.87
25.90
25.18
24.67
24.10
22.96
20.82
17.46
13.03
7.97
2.84
-1.83
-5.78
-9.03
-11.86
-14.69
-17.92
-21.86
-26.62
-32.07
-37.80
-43.10
-47.00
-48.47
-46.70
-41.41
-33.03
-22.73
-11.98
-2.16
5.81
11.65
15.60
18.11
19.54
20.10
19.93
19.21
18.37
17.89
18.19
19.42
21.35
23.43
25.12
26.02
26.10
25.57
24.80
24.06
23.42
22.67
21.51
19.57
16.65
12.85
8.49
4.06
0.05
-3.24
-5.84
-8.10
-10.55
-13.75
-18.00
-23.28
-29.14
-34.72
-38.92
-40.72
-39.36
-34.63
-26.95
-17.28
-6.92
2.89
11.22
17.58
21.90
24.36
25.20
24.73
23.24
21.07
18.61
16.28
14.41
13.15
12.51
12.32
12.38
12.57
12.77
12.88
12.78
12.17
10.78
8.40
5.08
1.07
-3.13
-7.03
-10.28
-12.86
-14.98
-16.98
-19.24
-22.02
-25.42
-29.34
-33.40
-36.92
-39.01
-38.79
-35.64
-29.59
-21.26
-11.81
-2.46
5.71
12.17
16.81
19.73
21.20
21.41
20.60
19.15
17.56
16.32
15.76
15.92
16.49
17.01
17.09
16.56
15.56
14.38
13.28
12.30
11.25
9.83
7.78
5.03
1.72
-1.88
-5.48
-8.84
-11.85
-14.53
-17.07
-19.80
-23.08
-27.20
-32.09
-37.24
-41.66
-44.17
-43.76
-40.01
-33.31
-24.68
-15.49
-7.00
0.04
5.40
9.32
12.17
14.25
15.70
16.57
16.90
16.85
16.69
16.68
16.97
17.57
18.27
18.81
18.97
18.66
17.98
17.14
16.27
15.41
14.37
12.90
10.73
7.88
4.58
1.20
-1.86
-4.40
-6.47
-8.36
-10.48
-13.23
-16.86
-21.48
-26.99
-33.00
-38.76
-43.27
-45.45
-44.55
-40.39
-33.48
-24.86
-15.76
-7.25
0.08
6.02
10.70
14.32
17.10
19.17
20.65
21.69
22.44
23.07
23.71
24.48
25.46
26.62
27.84
28.88
29.46
29.40
28.64
27.21
25.32
23.11
20.66
17.94
14.81
11.20
7.12
2.71
-1.74
-5.91
-9.58
-12.68
-15.36
-17.93
-20.71
-23.93
-27.71
-32.05
-36.81
-41.72
-46.29
-49.80
-51.33
-50.06
-45.53
-37.96
-28.29
-17.89
-8.13
0.04
6.41
11.29
15.21
18.63
21.64
24.07
25.66
26.33
26.23
25.64
24.92
24.28
23.79
23.39
23.04
22.71
22.39
21.99
21.39
20.42
19.01
17.18
15.10
12.97
10.86
8.75
6.56
4.13
1.40
-1.51
-4.44
-7.21
-9.71
-11.94
-14.00
-16.02
-18.18
-20.63
-23.55
-26.92
-30.45
-33.54
-35.31
-34.82
-31.38
-24.87
-15.79
-5.22
5.54
15.44
23.87
30.79
36.48
41.35
45.51
48.83
51.00
51.64
50.58
47.87
43.67
38.23
31.69
24.12
15.60
6.33
-3.38
-13.15
-22.63
-31.67
-40.36
-49.04
-58.04
-67.59
-77.73
-88.28
-99.01
-109.86
-121.00
-132.74
-145.43
-159.16
-173.58
-187.92
-201.03
-211.58
-218.38
-220.57
-217.68
-209.59
-196.26
-177.47
-152.80
-121.86
-84.73
-42.45
2.76
47.79
89.27
124.33
151.15
169.21
178.94
181.45
177.99
169.81
158.08
143.95
128.62
113.36
99.30
87.31
77.81
70.65
65.21
60.68
56.22
51.29
45.72
39.64
33.34
27.13
21.15
15.44
10.04
5.04
0.62
-3.00
-5.74
-7.82
-9.77
-12.27
-16.05
-21.56
-28.86
-37.53
-46.69
-55.26
-62.14
-66.52
-68.06
-66.94
-63.63
-58.91
-53.51
-48.17
-43.63
-40.62
-39.83
-41.74
-46.40
-53.28
-61.35
-69.09
-74.59
-75.86
-71.03
-59.03
-40.16
-16.60
7.83
28.48
41.20
43.85
37.01
23.93
9.31
-2.15
-7.01
-3.75
7.47
25.31
47.80
72.46
96.43
116.62
130.02
134.63
130.08
117.93
101.33
84.11
69.61
59.91
55.52
55.66
58.84
63.43
68.04
71.66
73.74
74.00
72.43
69.23
64.77
59.55
54.18
49.31
45.48
43.13
42.47
43.42
45.65
48.59
51.49
53.56
54.16
52.87
49.55
44.29
37.45
29.53
21.08
12.54
4.22
-3.77
-11.60
-19.53
-27.88
-36.77
-45.97
-54.80
-62.10
-66.49
-66.73
-62.12
-52.86
-40.13
-25.76
-11.85
-0.18
8.26
13.31
15.47
15.57
14.36
12.36
9.79
6.77
3.47
0.24
-2.48
-4.36
-5.24
-5.29
-4.98
-4.82
-5.22
-6.33
-8.04
-10.05
-12.06
-13.87
-15.47
-16.93
-18.43
-20.16
-22.26
-24.90
-28.27
-32.51
-37.51
-42.78
-47.38
-50.05
-49.55
-45.08
-36.63
-25.02
-11.69
1.81
14.22
24.84
33.51
40.36
45.47
48.76
50.10
49.49
47.32
44.34
41.57
39.95
40.06
41.96
45.24
49.19
53.01
56.12
58.20
59.34
59.87
60.20
60.68
61.42
62.28
62.88
62.79
61.71
59.66
57.10
54.93
54.36
56.52
62.05
70.66
80.81
89.83
94.41
91.34
78.41
55.02
22.21
-17.58
-60.92
-104.01
-143.02
-174.48
-195.78
-205.93
-205.99
-198.95
-188.62
-178.17
-169.28
-161.80
-154.74
-147.30
-139.55
-132.31
-126.47
-122.59
-121.05
-122.37
-127.11
-135.11
-144.45
-150.92
-148.87
-133.28
-101.84
-56.35
-2.25
53.08
102.34
139.97
163.20
172.12
169.37
159.17
146.15
133.99
124.62
118.00
112.84
107.72
101.82
95.11
87.91
80.28
71.57
60.54
45.67
25.67
-0.13
-31.37
-66.59
-103.27
-138.36
-168.97
-193.00
-209.54
-218.55
-220.45
-215.61
-204.32
-186.93
-164.21
-137.46
-108.21
-77.97
-47.85
-18.59
9.18
34.69
56.95
75.14
88.87
98.45
104.69
108.59
110.95
112.23
112.65
112.39
111.75
110.99
110.24
109.30
107.76
105.32
102.09
98.70
96.04
94.82
95.15
96.46
97.81
98.22
97.10
94.23
89.67
83.51
75.82
66.77
56.86
46.98
38.30
31.97
28.67
28.28
29.94
32.37
34.18
34.48
33.05
30.27
26.81
23.22
19.65
15.66
10.69
4.31
-3.33
-11.45
-18.96
-24.85
-28.64
-30.48
-30.99
-30.83
-30.50
-30.11
-29.65
-29.09
-28.64
-28.66
-29.51
-31.41
-34.30
-37.93
-41.95
-46.07
-50.10
-53.82
-56.87
-58.62
-58.19
-54.75
-47.72
-37.15
-23.73
-8.69
6.65
21.08
33.81
44.43
52.80
58.93
62.89
64.87
65.18
64.18
62.24
59.63
56.45
52.73
48.56
44.07
39.58
35.41
31.69
28.29
24.78
20.69
15.73
9.91
3.57
-2.82
-8.88
-14.49
-19.70
-24.54
-29.02
-33.23
-37.48
-42.26
-47.93
-54.33
-60.54
-65.06
-66.52
-64.36
-59.19
-52.56
-46.21
-41.35
-38.28
-36.53
-35.18
-33.35
-30.35
-25.67
-18.99
-10.22
0.36
12.09
24.09
35.48
45.58
53.94
60.40
65.01
67.96
69.62
70.41
70.54
69.93
68.14
64.67
59.15
51.78
43.30
34.93
27.92
23.16
20.92
20.87
22.34
24.65
27.36
30.27
33.39
36.74
40.22
43.61
46.59
48.76
49.69
48.92
46.06
41.03
34.21
26.46
18.86
12.40
7.56
4.26
1.93
-0.10
-2.33
-4.99
-8.04
-11.33
-14.72
-18.13
-21.50
-24.80
-28.05
-31.38
-35.01
-39.18
-44.02
-49.55
-55.53
-61.59
-67.17
-71.65
-74.34
-74.76
-72.65
-68.16
-61.80
-54.41
-46.97
-40.33
-35.03
-31.25
-28.78
-27.17
-25.91
-24.62
-23.10
-21.36
-19.55
-17.81
-16.26
-14.92
-13.74
-12.69
-11.75
-10.92
-10.28
-9.94
-9.97
-10.35
-10.93
-11.46
-11.67
-11.47
-10.89
-10.18
-9.63
-9.48
-9.85
-10.60
-11.39
-11.61
-10.50
-7.38
-1.92
5.57
14.03
22.00
28.15
31.84
33.38
33.74
33.96
34.49
35.10
35.05
33.79
31.55
29.28
28.43
30.10
34.66
41.48
49.27
56.55
61.99
64.70
64.14
59.99
52.21
41.08
27.33
12.07
-3.54
-18.65
-32.95
-46.64
-60.00
-73.14
-85.78
-97.24
-106.68
-113.31
-116.64
-116.55
-113.38
-107.89
-101.16
-94.27
-88.00
-82.59
-77.72
-72.89
-67.69
-62.07
-56.26
-50.60
-45.24
-40.20
-35.36
-30.76
-26.60
-23.22
-20.92
-19.86
-19.97
-20.97
-22.56
-24.54
-26.78
-29.26
-31.96
-34.87
-37.98
-41.34
-45.00
-49.03
-53.36
-57.77
-61.88
-65.30
-67.73
-69.11
-69.52
-69.25
-68.62
-67.92
-67.32
-66.80
-66.03
-64.38
-60.95
-54.75
-45.01
-31.25
-13.30
8.73
34.58
63.90
96.05
129.84
163.37
193.90
218.30
233.57
237.64
229.93
211.59
185.26
154.70
124.10
97.41
77.62
66.19
62.62
64.79
69.64
74.29
77.08
78.00
78.36
79.90
83.50
88.48
92.64
93.00
87.11
74.14
55.32
33.46
11.79
-7.31
-23.12
-36.27
-47.98
-59.05
-69.29
-77.91
-84.06
-87.54
-88.84
-88.73
-87.74
-85.97
-83.35
-80.06
-76.74
-74.23
-73.11
-73.27
-74.00
-74.42
-74.14
-73.43
-73.13
-74.09
-76.61
-80.16
-83.62
-85.63
-84.91
-80.40
-71.01
-55.69
-34.05
-7.23
21.08
45.04
58.33
56.75
40.40
14.10
-14.38
-37.36
-50.04
-51.58
-44.28
-31.58
-16.19
0.45
17.61
34.40
49.23
60.12
65.45
64.37
56.88
43.51
25.14
2.92
-21.70
-47.13
-71.74
-93.87
-111.93
-124.48
-130.63
-130.28
-124.62
-116.02
-107.22
-100.25
-95.32
-90.57
-82.81
-69.08
-48.21
-21.37
8.56
38.39
65.98
90.73
112.87
132.44
148.27
157.94
158.86
149.65
131.27
107.14
82.07
60.66
45.99
38.76
37.72
40.33
43.73
45.32
43.20
36.50
25.59
12.29
-0.40
-8.95
-10.59
-4.49
7.80
22.73
36.35
45.86
50.47
51.25
50.02
48.04
45.34
41.06
34.27
24.88
13.96
3.40
-4.87
-9.54
-10.08
-6.45
1.33
13.28
29.03
47.13
64.49
76.71
79.22
68.95
45.67
12.35
-25.65
-62.36
-92.85
-114.33
-126.13
-129.05
-124.32
-112.94
-95.58
-72.95
-46.19
-17.01
12.79
41.96
70.28
98.41
127.13
156.41
184.78
209.67
228.42
239.44
242.96
240.65
234.59
226.23
215.74
202.28
184.79
162.82
136.90
108.38
78.94
50.03
22.66
-2.57
-25.28
-45.23
-62.24
-76.37
-87.97
-97.74
-106.55
-115.13
-123.87
-132.66
-140.93
-147.77
-152.38
-154.26
-153.67
-151.59
-149.36
-148.10
-147.88
-147.50
-144.93
-138.32
-127.02
-112.13
-96.19
-81.98
-71.49
-65.25
-62.52
-61.96
-62.54
-63.79
-65.70
-68.31
-71.43
-74.62
-77.46
-79.82
-82.06
-84.79
-88.47
-93.05
-97.71
-101.09
-101.79
-99.01
-92.99
-84.97
-76.75
-69.98
-65.57
-63.49
-63.10
-63.75
-65.24
-67.89
-72.25
-78.71
-87.13
-97.04
-108.09
-120.30
-133.83
-148.49
-163.17
-176.03
-185.17
-189.65
-189.83
-187.15
-183.03
-178.23
-172.64
-165.86
-157.94
-149.54
-141.31
-132.89
-122.45
-107.14
-84.38
-53.31
-15.35
26.08
66.98
104.00
135.28
160.46
180.17
195.26
206.34
213.75
217.74
218.80
217.80
215.70
213.33
211.01
208.49
205.18
200.52
194.29
186.69
178.23
169.47
160.82
152.49
144.49
136.64
128.74
120.56
111.99
103.11
94.12
85.41
77.33
70.12
63.91
58.69
54.48
51.26
49.00
47.54
46.61
45.78
44.69
43.14
41.21
39.20
37.47
36.34
35.89
36.00
36.37
36.74
36.85
36.61
36.06
35.29
34.50
33.90
33.68
34.06
35.16
36.98
39.41
42.30
45.44
48.64
51.74
54.56
56.98
58.98
60.68
62.30
64.15
66.45
69.31
72.62
76.07
79.17
81.34
81.99
80.68
77.33
72.30
66.50
61.20
57.83
57.73
61.81
70.33
82.55
96.64
109.79
118.69
120.18
111.87
92.65
62.85
24.25
-20.07
-65.97
-108.82
-144.21
-168.98
-181.95
-184.16
-178.29
-167.54
-154.67
-141.29
-127.88
-114.16
-99.65
-84.17
-68.14
-52.56
-38.74
-27.98
-20.95
-17.41
-16.40
-16.54
-16.71
-16.34
-15.42
-14.13
-12.57
-10.67
-8.39
-5.87
-3.50
-1.67
-0.49
0.28
1.17
2.66
5.10
8.51
12.59
16.89
20.86
23.93
25.65
25.79
24.45
22.03
19.12
16.22
13.65
11.42
9.36
7.30
5.25
3.44
2.24
1.94
2.59
3.86
5.16
5.82
5.29
3.43
0.41
-3.32
-7.21
-10.72
-13.49
-15.34
-16.32
-16.63
-16.60
-16.63
-17.00
-17.84
-19.11
-20.63
-22.23
-23.78
-25.22
-26.47
-27.38
-27.67
-27.05
-25.32
-22.54
-19.04
-15.37
-12.09
-9.60
-8.01
-7.17
-6.82
-6.76
-7.00
-7.63
-8.78
-10.48
-12.52
-14.52
-16.03
-16.70
-16.42
-15.29
-13.63
-11.84
-10.28
-9.16
-8.53
-8.34
-8.46
-8.79
-9.22
-9.76
-10.36
-10.98
-11.50
-11.82
-11.81
-11.36
-10.47
-9.15
-7.53
-5.81
-4.26
-3.15
-2.69
-2.98
-3.95
-5.45
-7.23
-9.15
-11.14
-13.24
-15.40
-17.51
-19.27
-20.24
-20.14
-18.82
-16.50
-13.68
-11.00
-9.01
-8.05
-8.08
-8.76
-9.68
-10.49
-11.04
-11.38
-11.62
-11.89
-12.15
-12.19
-11.76
-10.66
-8.84
-6.43
-3.78
-1.31
0.53
1.50
1.52
0.82
-0.26
-1.32
-1.99
-2.11
-1.62
-0.59
0.92
2.83
5.00
7.18
8.98
9.99
9.79
8.24
5.50
2.01
-1.68
-5.09
-7.90
-9.87
-10.82
-10.51
-8.74
-5.53
-1.23
3.41
7.45
10.02
10.68
9.41
6.66
3.06
-0.72
-4.20
-7.02
-9.02
-10.07
-10.14
-9.28
-7.57
-5.25
-2.64
-0.08
2.12
3.67
4.43
4.29
3.28
1.54
-0.68
-3.09
-5.38
-7.28
-8.57
-9.11
-8.84
-7.84
-6.28
-4.52
-2.94
-1.85
-1.40
-1.46
-1.82
-2.26
-2.72
-3.27
-4.07
-5.16
-6.38
-7.44
-7.97
-7.73
-6.68
-5.00
-2.97
-0.89
1.07
2.76
4.10
5.04
5.52
5.49
4.95
3.97
2.66
1.12
-0.54
-2.14
-3.48
-4.33
-4.56
-4.22
-3.51
-2.82
-2.47
-2.61
-3.23
-4.18
-5.28
-6.41
-7.55
-8.61
-9.42
-9.75
-9.35
-8.12
-6.15
-3.78
-1.38
0.65
2.02
2.58
2.39
1.59
0.47
-0.76
-1.84
-2.67
-3.22
-3.49
-3.52
-3.26
-2.63
-1.55
0.02
2.00
4.16
6.11
7.49
8.00
7.58
6.38
4.70
2.92
1.29
-0.10
-1.37
-2.70
-4.21
-5.86
-7.47
-8.66
-9.11
-8.70
-7.52
-5.91
-4.27
-2.94
-2.12
-1.82
-1.94
-2.38
-3.06
-3.90
-4.70
-5.16
-4.92
-3.73
-1.59
1.26
4.31
7.01
8.92
9.88
9.94
9.30
8.19
6.76
5.14
3.41
1.73
0.39
-0.26
0.08
1.49
3.73
6.13
7.91
8.38
7.30
4.92
1.82
-1.34
-4.13
-6.43
-8.34
-9.93
-11.16
-11.83
-11.69
-10.61
-8.63
-5.97
-2.95
0.09
2.79
4.81
5.78
5.49
3.88
1.07
-2.54
-6.45
-10.09
-12.99
-14.76
-15.21
-14.22
-11.83
-8.25
-3.84
0.82
5.04
8.18
9.80
9.83
8.52
6.34
3.77
1.22
-1.16
-3.31
-5.17
-6.63
-7.51
-7.62
-6.89
-5.47
-3.66
-1.90
-0.66
-0.22
-0.70
-1.98
-3.82
-5.85
-7.82
-9.49
-10.67
-11.17
-10.75
-9.14
-6.14
-1.91
3.09
8.02
11.95
14.13
14.28
12.65
9.90
6.82
3.97
1.64
-0.20
-1.58
-2.41
-2.40
-1.27
0.98
3.90
6.66
8.41
8.58
7.16
4.59
1.56
-1.31
-3.67
-5.46
-6.72
-7.43
-7.48
-6.66
-4.82
-2.06
1.29
4.66
7.41
8.94
8.93
7.42
4.75
1.51
-1.72
-4.47
-6.55
-7.87
-8.46
-8.29
-7.33
-5.57
-3.06
-0.03
3.19
6.21
8.61
10.00
10.17
9.01
6.67
3.51
0.07
-3.12
-5.64
-7.27
-7.97
-7.80
-6.88
-5.31
-3.23
-0.89
1.37
3.17
4.20
4.32
3.60
2.28
0.70
-0.90
-2.39
-3.84
-5.31
-6.76
-8.00
-8.70
-8.63
-7.79
-6.50
-5.30
-4.72
-4.96
-5.82
-6.84
-7.46
-7.40
-6.70
-5.68
-4.67
-3.81
-3.04
-2.18
-1.06
0.26
1.56
2.56
3.06
3.06
2.72
2.32
2.07
2.06
2.28
2.59
2.79
2.72
2.23
1.33
0.17
-0.99
-1.85
-2.18
-1.97
-1.41
-0.84
-0.66
-1.06
-2.04
-3.36
-4.75
-5.96
-6.97
-7.87
-8.84
-9.97
-11.15
-12.18
-12.74
-12.59
-11.63
-9.94
-7.77
-5.44
-3.31
-1.64
-0.58
-0.15
-0.23
-0.62
-1.06
-1.33
-1.24
-0.64
0.54
2.26
4.35
6.50
8.34
9.49
9.66
8.91
7.43
5.59
3.71
2.02
0.61
-0.43
-0.95
-0.74
0.40
2.43
5.01
7.53
9.24
9.60
8.42
5.95
2.73
-0.66
-3.75
-6.36
-8.46
-10.07
-11.10
-11.35
-10.56
-8.65
-5.74
-2.30
1.03
3.64
5.08
5.21
4.23
2.50
0.47
-1.46
-3.07
-4.22
-4.88
-5.02
-4.56
-3.39
-1.44
1.23
4.39
7.54
10.08
11.49
11.51
10.17
7.85
5.05
2.30
-0.02
-1.65
-2.45
-2.41
-1.66
-0.46
0.84
1.88
2.40
2.33
1.69
0.58
-0.90
-2.67
-4.65
-6.68
-8.62
-10.29
-11.64
-12.60
-13.07
-12.84
-11.75
-9.69
-6.88
-3.79
-1.04
0.80
1.51
1.17
0.16
-1.12
-2.32
-3.21
-3.69
-3.64
-2.95
-1.52
0.67
3.44
6.50
9.39
11.65
12.88
12.91
11.77
9.66
6.97
4.11
1.52
-0.51
-1.80
-2.30
-2.05
-1.17
0.17
1.71
3.14
4.12
4.35
3.63
1.97
-0.43
-3.27
-6.15
-8.67
-10.44
-11.06
-10.23
-7.83
-3.98
0.87
6.02
10.68
14.14
15.95
15.99
14.58
12.23
9.57
7.07
5.00
3.39
2.19
1.44
1.24
1.80
3.16
5.07
7.08
8.59
9.08
8.39
6.63
4.18
1.47
-1.16
-3.52
-5.51
-7.14
-8.35
-9.05
-9.15
-8.62
-7.54
-6.17
-4.88
-4.04
-3.87
-4.38
-5.28
-6.10
-6.39
-5.87
-4.53
-2.58
-0.37
1.78
3.67
5.24
6.39
7.06
7.11
6.46
5.16
3.42
1.61
0.09
-0.85
-1.12
-0.75
0.03
0.99
2.01
2.97
3.86
4.69
5.47
6.08
6.38
6.28
5.71
4.73
3.54
2.36
1.31
0.41
-0.52
-1.62
-3.02
-4.68
-6.47
-8.25
-9.92
-11.39
-12.57
-13.28
-13.28
-12.41
-10.74
-8.52
-6.18
-4.11
-2.57
-1.59
-1.08
-0.88
-0.87
-0.96
-1.07
-1.19
-1.34
-1.53
-1.80
-2.18
-2.62
-3.08
-3.57
-4.13
-4.86
-5.81
-6.96
-8.29
-9.73
-11.38
-13.38
-15.95
-19.23
-23.21
-27.69
-32.43
-37.19
-41.84
-46.40
-50.92
-55.57
-60.48
-65.78
-71.58
-77.99
-85.10
-92.84
-101.05
-109.31
-117.18
-124.18
-130.08
-134.86
-138.65
-141.61
-143.62
-144.27
-142.65
-137.67
-128.27
-113.76
-93.98
-69.35
-40.75
-9.39
23.33
56.00
87.10
115.18
138.89
157.18
169.59
176.31
178.03
175.80
170.71
163.65
155.24
145.97
136.27
126.59
117.37
108.93
101.32
94.37
87.80
81.30
74.74
68.08
61.43
54.93
48.76
43.07
37.99
33.56
29.66
26.07
22.49
18.77
15.01
11.49
8.68
6.90
6.26
6.54
7.37
8.28
8.96
9.32
9.34
9.08
8.51
7.67
6.61
5.51
4.59
4.09
4.10
4.59
5.35
6.16
6.89
7.51
8.06
8.61
9.18
9.74
10.24
10.59
10.73
10.56
10.09
9.33
8.43
7.46
6.57
5.79
5.09
4.42
3.74
3.02
2.21
1.30
0.27
-0.90
-2.19
-3.51
-4.81
-6.05
-7.29
-8.64
-10.10
-11.61
-12.95
-13.86
-14.07
-13.47
-12.05
-9.94
-7.37
-4.60
-1.86
0.64
2.75
4.38
5.52
6.16
6.37
6.19
5.73
5.13
4.51
3.98
3.60
3.40
3.35
3.47
3.75
4.16
4.67
5.17
5.64
6.07
6.49
6.98
7.51
7.99
8.25
8.11
7.53
6.65
5.72
4.91
4.17
3.39
2.40
1.19
-0.12
-1.29
-2.19
-2.86
-3.49
-4.29
-5.27
-6.21
-6.74
-6.49
-5.31
-3.26
-0.67
2.05
4.52
6.44
7.69
8.24
8.21
7.73
6.91
5.82
4.56
3.21
1.88
0.71
-0.18
-0.67
-0.74
-0.49
-0.04
0.48
0.95
1.36
1.76
2.20
2.74
3.36
4.01
4.58
5.02
5.24
5.22
4.95
4.42
3.67
2.74
1.69
0.55
-0.68
-1.98
-3.29
-4.52
-5.62
-6.57
-7.47
-8.48
-9.79
-11.41
-13.16
-14.59
-15.24
-14.77
-13.10
-10.49
-7.35
-4.17
-1.36
0.83
2.30
3.07
3.25
2.97
2.45
1.91
1.56
1.55
1.89
2.55
3.43
4.41
5.37
6.19
6.82
7.21
7.40
7.52
7.63
7.79
7.97
8.07
7.90
7.29
6.23
4.81
3.28
1.92
0.92
0.36
0.09
-0.11
-0.46
-1.12
-2.02
-3.03
-4.04
-5.08
-6.29
-7.84
-9.75
-11.76
-13.44
-14.30
-14.02
-12.57
-10.24
-7.49
-4.83
-2.61
-0.98
0.09
0.70
0.99
0.99
0.66
-0.05
-1.07
-2.26
-3.32
-3.96
-4.00
-3.41
-2.38
-1.08
0.33
1.83
3.44
5.18
7.03
8.83
10.43
11.61
12.20
12.19
11.56
10.41
8.88
7.12
5.33
3.72
2.39
1.36
0.56
-0.23
-1.20
-2.44
-3.89
-5.45
-7.00
-8.49
-9.98
-11.50
-12.98
-14.11
-14.57
-14.14
-12.81
-10.81
-8.54
-6.37
-4.50
-2.96
-1.63
-0.35
0.94
2.24
3.54
4.81
6.10
7.40
8.70
9.99
11.18
12.15
12.81
13.12
13.03
12.52
11.59
10.19
8.32
6.02
3.42
0.76
-1.69
-3.68
-5.02
-5.69
-5.79
-5.49
-4.96
-4.36
-3.87
-3.55
-3.49
-3.67
-4.05
-4.59
-5.18
-5.78
-6.40
-7.15
-8.12
-9.33
-10.66
-11.80
-12.39
-12.06
-10.65
-8.26
-5.23
-2.11
0.56
2.38
3.20
3.10
2.39
1.45
0.68
0.36
0.65
1.52
2.86
4.44
6.01
7.32
8.16
8.35
7.78
6.45
4.53
2.35
0.32
-1.25
-2.17
-2.51
-2.41
-2.03
-1.42
-0.55
0.60
1.95
3.28
4.30
4.66
4.24
3.03
1.21
-0.98
-3.31
-5.59
-7.70
-9.46
-10.66
-11.02
-10.21
-8.16
-5.06
-1.47
1.88
4.28
5.31
4.91
3.27
0.80
-2.13
-5.15
-7.91
-10.03
-11.12
-10.79
-8.84
-5.40
-0.97
3.75
7.97
11.08
12.79
13.12
12.34
10.77
8.65
6.13
3.25
0.15
-2.88
-5.46
-7.16
-7.65
-6.87
-5.09
-2.83
-0.79
0.42
0.44
-0.75
-2.85
-5.36
-7.76
-9.65
-10.78
-11.08
-10.53
-9.14
-6.88
-3.78
0.10
4.53
9.09
13.21
16.30
17.95
17.99
16.63
14.27
11.44
8.60
6.08
4.07
2.70
2.06
2.23
3.14
4.51
5.92
6.94
7.22
6.63
5.25
3.22
0.83
-1.79
-4.54
-7.32
-9.97
-12.33
-14.16
-15.35
-15.83
-15.60
-14.64
-12.96
-10.61
-7.74
-4.70
-1.91
0.21
1.39
1.69
1.39
0.90
0.51
0.33
0.31
0.43
0.79
1.51
2.80
4.63
6.69
8.51
9.55
9.51
8.40
6.51
4.24
1.96
-0.23
-2.35
-4.39
-6.25
-7.60
-8.00
-7.08
-4.84
-1.54
2.11
5.32
7.39
7.90
6.84
4.41
1.09
-2.68
-6.39
-9.67
-12.12
-13.42
-13.40
-12.01
-9.33
-5.58
-1.17
3.41
7.61
10.83
12.60
12.72
11.32
8.86
5.95
3.16
0.87
-0.77
-1.71
-1.92
-1.31
0.23
2.62
5.59
8.61
11.01
12.23
11.88
9.94
6.67
2.49
-2.13
-6.83
-11.25
-15.15
-18.26
-20.32
-21.09
-20.46
-18.47
-15.40
-11.73
-7.98
-4.67
-2.12
-0.42
0.55
1.01
1.22
1.42
1.82
2.55
3.73
5.39
7.50
9.91
12.33
14.39
15.63
15.72
14.44
11.87
8.28
4.17
0.06
-3.61
-6.53
-8.49
-9.40
-9.18
-7.82
-5.46
-2.47
0.55
2.89
3.91
3.26
1.06
-2.23
-5.78
-8.82
-10.81
-11.58
-11.27
-10.18
-8.50
-6.28
-3.43
0.11
4.15
8.20
11.53
13.45
13.55
11.90
8.95
5.35
1.72
-1.48
-3.97
-5.52
-5.97
-5.22
-3.39
-0.86
1.80
4.00
5.33
5.72
5.34
4.46
3.29
1.95
0.45
-1.11
-2.69
-4.14
-5.33
-6.17
-6.57
-6.43
-5.64
-4.20
-2.21
0.04
2.18
3.82
4.73
4.94
4.68
4.24
3.88
3.71
3.66
3.58
3.29
2.79
2.15
1.63
1.41
1.59
2.08
2.68
3.15
3.33
3.21
2.95
2.81
3.06
3.84
5.14
6.77
8.40
9.75
10.63
10.96
10.87
10.51
10.08
9.64
9.18
8.60
7.81
6.77
5.48
3.91
2.13
0.27
-1.39
-2.51
-2.76
-2.01
-0.33
1.88
4.17
6.11
7.42
8.06
8.09
7.63
6.72
5.37
3.54
1.22
-1.54
-4.64
-7.87
-11.05
-13.99
-16.47
-18.28
-19.20
-18.94
-17.30
-14.26
-10.14
-5.63
-1.71
0.67
0.92
-0.95
-4.33
-8.22
-11.61
-13.79
-14.50
-13.80
-11.99
-9.41
-6.41
-3.37
-0.72
1.21
2.20
2.42
2.35
2.58
3.65
5.75
8.63
11.57
13.67
14.12
12.41
8.61
3.23
-2.81
-8.59
-13.36
-16.78
-18.88
-19.89
-20.10
-19.65
-18.61
-17.01
-14.97
-12.73
-10.50
-8.36
-6.14
-3.44
0.16
4.89
10.61
16.74
22.46
27.07
30.18
31.89
32.70
33.16
33.59
33.93
33.78
32.65
30.29
26.80
22.56
18.10
13.78
9.79
6.19
3.09
0.74
-0.40
0.14
2.55
6.56
11.40
15.93
19.06
20.01
18.54
14.93
9.76
3.65
-2.96
-9.83
-16.80
-23.63
-30.01
-35.54
-39.82
-42.69
-44.13
-44.35
-43.73
-42.67
-41.52
-40.52
-39.69
-38.85
-37.77
-36.19
-33.94
-31.03
-27.55
-23.57
-19.06
-13.89
-8.01
-1.61
4.92
11.04
16.30
20.45
23.52
25.71
27.20
28.04
28.16
27.48
26.11
24.34
22.59
21.16
20.18
19.50
18.87
18.11
17.19
16.23
15.41
14.82
14.36
13.76
12.75
11.13
8.87
6.02
2.74
-0.72
-3.98
-6.57
-7.94
-7.72
-5.86
-2.76
0.89
4.28
6.85
8.34
8.78
8.38
7.37
5.93
4.19
2.37
0.70
-0.57
-1.37
-1.74
-1.83
-1.80
-1.80
-1.87
-2.02
-2.25
-2.45
-2.51
-2.28
-1.68
-0.79
0.20
0.98
1.26
0.89
-0.09
-1.46
-2.96
-4.37
-5.64
-6.81
-7.91
-8.90
-9.62
-9.82
-9.33
-8.18
-6.62
-4.97
-3.56
-2.50
-1.66
-0.83
0.22
1.58
3.20
4.92
6.53
7.86
8.82
9.38
9.54
9.31
8.70
7.72
6.42
4.88
3.21
1.51
-0.06
-1.40
-2.45
-3.21
-3.66
-3.83
-3.74
-3.40
-2.86
-2.14
-1.34
-0.55
0.06
0.22
-0.19
-1.17
-2.58
-4.06
-5.24
-5.90
-5.99
-5.66
-5.22
-4.91
-4.82
-4.91
-5.04
-5.00
-4.64
-3.88
-2.68
-1.11
0.76
2.83
5.02
7.21
9.26
10.95
12.06
12.40
11.90
10.67
8.95
7.04
5.19
3.52
1.95
0.39
-1.26
-3.03
-4.75
-6.22
-7.28
-7.83
-7.89
-7.61
-7.10
-6.41
-5.61
-4.74
-3.95
-3.43
-3.27
-3.42
-3.66
-3.67
-3.32
-2.69
-2.11
-1.94
-2.38
-3.27
-4.24
-4.86
-4.86
-4.23
-3.15
-1.84
-0.47
0.94
2.41
3.92
5.40
6.75
7.89
8.79
9.43
9.78
9.73
9.16
7.98
6.26
4.10
1.71
-0.72
-3.06
-5.18
-6.94
-8.15
-8.68
-8.48
-7.64
-6.33
-4.82
-3.34
-2.06
-1.10
-0.56
-0.58
-1.23
-2.46
-4.03
-5.63
-6.90
-7.66
-7.91
-7.84
-7.70
-7.67
-7.72
-7.74
-7.48
-6.76
-5.46
-3.57
-1.20
1.43
4.04
6.28
7.87
8.68
8.74
8.25
7.45
6.58
5.80
5.14
4.53
3.85
3.05
2.07
0.97
-0.21
-1.40
-2.50
-3.46
-4.21
-4.69
-4.79
-4.49
-3.77
-2.72
-1.51
-0.41
0.33
0.42
-0.27
-1.75
-3.82
-6.11
-8.15
-9.51
-9.95
-9.46
-8.25
-6.61
-4.82
-3.05
-1.33
0.31
1.79
3.00
3.81
4.21
4.31
4.34
4.47
4.76
5.13
5.31
5.12
4.47
3.43
2.24
1.17
0.44
0.11
0.11
0.28
0.43
0.44
0.29
-0.03
-0.45
-0.89
-1.25
-1.45
-1.43
-1.22
-0.88
-0.58
-0.44
-0.52
-0.76
-1.03
-1.18
-1.07
-0.64
0.13
1.13
2.19
3.01
3.28
2.78
1.41
-0.66
-3.03
-5.22
-6.77
-7.42
-7.14
-6.12
-4.60
-2.83
-0.98
0.87
2.66
4.31
5.70
6.69
7.20
7.18
6.70
5.87
4.79
3.57
2.26
0.88
-0.59
-2.21
-4.01
-6.01
-8.10
-10.06
-11.60
-12.40
-12.20
-10.92
-8.65
-5.61
-2.18
1.20
4.08
6.07
6.95
6.81
5.98
4.85
3.82
3.04
2.46
1.87
1.15
0.27
-0.63
-1.31
-1.58
-1.39
-0.81
0.03
0.98
1.96
2.86
3.60
4.10
4.29
4.07
3.38
2.22
0.60
-1.35
-3.45
-5.49
-7.34
-9.03
-10.72
-12.56
-14.58
-16.49
-17.84
-18.14
-17.01
-14.46
-10.80
-6.56
-2.22
1.81
5.34
8.24
10.38
11.65
11.99
11.41
10.17
8.53
6.77
5.01
3.24
1.42
-0.45
-2.22
-3.67
-4.55
-4.78
-4.42
-3.66
-2.69
-1.66
-0.63
0.40
1.48
2.60
3.68
4.60
5.11
5.00
4.13
2.53
0.43
-1.89
-4.10
-6.03
-7.64
-8.92
-9.88
-10.43
-10.47
-9.94
-8.91
-7.55
-6.12
-4.80
-3.63
-2.54
-1.32
0.17
1.91
3.69
5.22
6.15
6.32
5.79
4.83
3.79
2.91
2.32
1.89
1.42
0.72
-0.26
-1.47
-2.69
-3.72
-4.36
-4.56
-4.33
-3.81
-3.07
-2.18
-1.16
-0.07
0.90
1.48
1.38
0.37
-1.57
-4.21
-7.11
-9.75
-11.67
-12.57
-12.40
-11.36
-9.80
-8.10
-6.50
-5.12
-3.84
-2.49
-0.89
0.98
3.04
5.05
6.78
8.01
8.67
8.70
8.18
7.25
6.03
4.65
3.25
1.93
0.80
-0.05
-0.64
-1.00
-1.22
-1.38
-1.52
-1.54
-1.32
-0.75
0.23
1.52
2.93
4.20
5.12
5.57
5.47
4.80
3.62
2.06
0.33
-1.29
-2.49
-3.03
-2.86
-2.07
-0.94
0.17
0.99
1.34
1.29
0.97
0.68
0.61
0.90
1.54
2.48
3.68
5.00
6.26
7.21
7.52
7.00
5.69
3.88
2.00
0.48
-0.50
-1.04
-1.41
-1.93
-2.76
-3.81
-4.86
-5.62
-5.94
-5.78
-5.15
-4.16
-2.88
-1.48
-0.17
0.75
1.02
0.56
-0.49
-1.72
-2.69
-3.10
-2.89
-2.26
-1.55
-0.97
-0.66
-0.56
-0.49
-0.37
-0.16
0.06
0.32
0.64
1.15
1.89
2.81
3.77
4.51
4.92
4.95
4.75
4.56
4.48
4.56
4.56
4.26
3.45
2.11
0.36
-1.52
-3.23
-4.52
-5.20
-5.22
-4.67
-3.77
-2.79
-1.99
-1.53
-1.40
-1.48
-1.60
-1.65
-1.65
-1.73
-2.00
-2.45
-2.96
-3.35
-3.52
-3.47
-3.38
-3.39
-3.54
-3.72
-3.65
-3.11
-1.97
-0.28
1.76
3.88
5.91
7.76
9.43
10.91
12.12
12.91
13.14
12.73
11.73
10.36
8.79
7.20
5.63
3.95
2.04
-0.18
-2.62
-5.11
-7.45
-9.40
-10.81
-11.56
-11.65
-11.12
-10.13
-8.86
-7.47
-6.08
-4.69
-3.30
-1.87
-0.45
0.88
2.03
2.95
3.66
4.23
4.64
4.81
4.57
3.75
2.35
0.54
-1.27
-2.60
-3.05
-2.48
-1.07
0.73
2.43
3.66
4.31
4.48
4.37
4.14
3.82
3.28
2.46
1.37
0.13
-1.12
-2.30
-3.44
-4.66
-5.97
-7.32
-8.46
-9.19
-9.40
-9.16
-8.70
-8.25
-7.87
-7.43
-6.70
-5.47
-3.73
-1.73
0.13
1.48
2.16
2.25
2.07
1.90
1.91
2.05
2.19
2.17
1.96
1.66
1.44
1.45
1.80
2.47
3.43
4.56
5.83
7.13
8.39
9.47
10.21
10.50
10.24
9.43
8.18
6.69
5.18
3.79
2.57
1.43
0.22
-1.23
-2.96
-4.95
-7.01
-8.93
-10.51
-11.54
-11.88
-11.44
-10.18
-8.22
-5.84
-3.41
-1.33
0.10
0.88
1.17
1.32
1.63
2.23
3.06
3.90
4.51
4.79
4.82
4.80
4.96
5.47
6.34
7.45
8.59
9.62
10.34
10.65
10.49
9.80
8.58
6.84
4.66
2.26
-0.09
-2.12
-3.68
-4.77
-5.61
-6.45
-7.52
-8.88
-10.32
-11.45
-11.85
-11.20
-9.46
-6.81
-3.64
-0.39
2.54
4.90
6.52
7.38
7.58
7.22
6.47
5.56
4.58
3.63
2.69
1.70
0.62
-0.44
-1.36
-1.97
-2.16
-1.93
-1.37
-0.64
0.13
0.83
1.41
1.82
2.03
2.01
1.70
1.08
0.13
-1.10
-2.53
-4.10
-5.79
-7.69
-9.83
-12.22
-14.62
-16.66
-17.86
-17.83
-16.43
-13.86
-10.50
-6.80
-3.13
0.31
3.40
6.06
8.19
9.68
10.51
10.71
10.44
9.89
9.23
8.54
7.84
7.14
6.45
5.82
5.27
4.81
4.47
4.27
4.24
4.34
4.47
4.49
4.35
4.04
3.69
3.44
3.41
3.52
3.60
3.39
2.59
1.07
-1.19
-4.10
-7.44
-10.86
-13.94
-16.25
-17.49
-17.51
-16.40
-14.36
-11.72
-8.78
-5.76
-2.77
0.18
3.03
5.67
7.88
9.44
10.21
10.26
9.74
8.88
7.88
6.78
5.58
4.26
2.87
1.57
0.54
-0.09
-0.30
-0.17
0.18
0.62
1.09
1.57
1.98
2.34
2.60
2.73
2.73
2.60
2.28
1.72
0.82
-0.45
-2.07
-3.97
-5.94
-7.78
-9.24
-10.09
-10.21
-9.61
-8.41
-6.82
-5.05
-3.24
-1.46
0.32
2.09
3.79
5.32
6.55
7.39
7.81
7.77
7.31
6.41
5.21
3.89
2.77
2.08
1.87
2.01
2.18
2.07
1.51
0.54
-0.67
-1.84
-2.76
-3.32
-3.46
-3.17
-2.49
-1.44
-0.21
0.89
1.59
1.64
0.97
-0.31
-1.99
-3.75
-5.35
-6.62
-7.47
-7.81
-7.61
-6.83
-5.43
-3.51
-1.20
1.29
3.67
5.69
7.16
8.01
8.23
7.95
7.24
6.23
5.03
3.79
2.67
1.79
1.17
0.71
0.28
-0.24
-0.81
-1.31
-1.54
-1.41
-0.90
-0.16
0.61
1.30
1.79
2.14
2.38
2.55
2.64
2.55
2.12
1.21
-0.18
-1.91
-3.62
-4.90
-5.44
-5.16
-4.28
-3.17
-2.18
-1.46
-0.95
-0.47
0.21
1.14
2.27
3.49
4.70
5.86
7.00
8.03
8.86
9.29
9.18
8.49
7.37
6.04
4.77
3.75
2.99
2.39
1.81
1.09
0.14
-1.04
-2.36
-3.66
-4.74
-5.38
-5.45
-4.95
-4.05
-3.04
-2.23
-1.99
-2.49
-3.75
-5.55
-7.48
-9.06
-9.85
-9.64
-8.50
-6.76
-4.78
-2.90
-1.27
0.13
1.39
2.52
3.54
4.41
5.16
5.90
6.69
7.56
8.37
8.87
8.76
7.86
6.24
4.14
1.97
0.10
-1.24
-1.99
-2.24
-2.22
-2.13
-2.12
-2.23
-2.35
-2.36
-2.13
-1.60
-0.81
0.08
0.89
1.45
1.60
1.26
0.45
-0.72
-2.00
-3.14
-3.89
-4.14
-3.91
-3.34
-2.62
-1.89
-1.19
-0.49
0.31
1.26
2.41
3.74
5.18
6.63
8.01
9.17
10.07
10.63
10.84
10.67
10.08
8.99
7.40
5.41
3.23
1.17
-0.54
-1.78
-2.62
-3.27
-3.94
-4.72
-5.56
-6.37
-7.00
-7.44
-7.70
-7.82
-7.83
-7.78
-7.65
-7.43
-7.12
-6.65
-5.99
-5.17
-4.21
-3.23
-2.29
-1.38
-0.49
0.39
1.25
1.95
2.31
2.23
1.73
1.05
0.53
0.48
1.03
2.08
3.34
4.51
5.40
5.94
6.24
6.42
6.57
6.65
6.58
6.26
5.60
4.61
3.27
1.64
-0.23
-2.23
-4.18
-5.91
-7.24
-8.10
-8.52
-8.69
-8.79
-8.98
-9.31
-9.62
-9.73
-9.41
-8.60
-7.38
-5.97
-4.64
-3.58
-2.87
-2.43
-2.16
-1.95
-1.73
-1.49
-1.23
-0.96
-0.65
-0.30
0.10
0.53
1.04
1.62
2.29
3.06
3.88
4.67
5.36
5.91
6.22
6.27
5.94
5.17
3.92
2.32
0.60
-0.93
-1.94
-2.34
-2.19
-1.75
-1.29
-1.01
-0.86
-0.66
-0.09
1.12
2.96
5.31
7.81
10.08
11.77
12.68
12.78
12.11
10.86
9.14
7.10
4.87
2.56
0.37
-1.56
-3.06
-4.02
-4.41
-4.30
-3.83
-3.10
-2.24
-1.22
-0.04
1.32
2.73
4.01
4.87
5.11
4.64
3.57
2.16
0.66
-0.78
-2.25
-3.89
-5.86
-8.14
-10.41
-12.19
-12.92
-12.27
-10.27
-7.23
-3.68
-0.10
3.16
5.94
8.09
9.42
9.72
8.81
6.79
4.05
1.21
-1.10
-2.49
-2.93
-2.70
-2.18
-1.64
-1.15
-0.61
0.15
1.19
2.50
3.91
5.24
6.37
7.25
7.87
8.23
8.29
7.96
7.10
5.59
3.43
0.76
-2.15
-4.95
-7.28
-8.91
-9.74
-9.83
-9.39
-8.68
-7.97
-7.44
-7.14
-7.00
-6.84
-6.52
-6.03
-5.49
-5.11
-5.10
-5.49
-6.22
-7.08
-7.91
-8.66
-9.38
-10.24
-11.35
-12.78
-14.44
-16.21
-17.93
-19.53
-21.07
-22.68
-24.52
-26.73
-29.31
-32.17
-35.19
-38.24
-41.32
-44.57
-48.29
-52.84
-58.57
-65.72
-74.24
-83.90
-94.22
-104.67
-114.78
-124.30
-133.31
-142.08
-150.86
-159.72
-168.33
-176.09
-182.19
-185.91
-186.68
-184.16
-178.24
-169.09
-157.23
-143.58
-129.24
-115.21
-102.07
-89.91
-78.63
-68.28
-59.26
-52.26
-47.71
-45.38
-44.26
-42.97
-40.33
-35.89
-29.92
-23.05
-15.77
-7.99
0.81
11.11
22.85
35.15
46.36
54.68
58.75
58.07
53.18
45.31
35.91
26.20
17.12
9.43
3.97
1.83
4.11
11.58
24.20
40.94
60.09
79.66
98.01
114.10
127.50
137.99
145.26
148.88
148.49
144.20
136.88
128.11
119.69
113.15
109.29
107.99
108.44
109.54
110.35
110.35
109.43
107.89
106.14
104.51
103.21
102.15
101.07
99.60
97.49
94.55
90.79
86.25
81.02
75.11
68.45
60.98
52.70
43.72
34.30
24.86
15.98
8.34
2.69
-0.40
-0.60
1.87
6.32
11.69
16.86
21.03
23.76
25.08
25.27
24.61
23.29
21.32
18.73
15.71
12.71
10.31
9.11
9.41
11.13
13.76
16.51
18.65
19.64
19.41
18.15
16.26
14.02
11.52
8.64
5.15
0.89
-4.16
-9.80
-15.72
-21.53
-26.86
-31.45
-35.11
-37.89
-40.14
-42.52
-45.98
-51.29
-58.58
-66.84
-73.98
-77.42
-75.07
-66.44
-52.99
-37.69
-23.88
-13.94
-8.53
-6.73
-6.81
-7.21
-7.14
-6.66
-6.15
-5.80
-5.33
-4.03
-1.19
3.53
9.80
16.70
22.92
27.29
28.90
27.41
22.94
16.03
7.63
-0.95
-8.13
-12.40
-12.87
-9.92
-5.23
-1.41
-1.08
-5.79
-15.47
-28.40
-41.95
-53.24
-60.04
-60.97
-55.50
-43.87
-26.81
-5.56
18.18
42.19
64.00
81.07
91.49
94.48
90.74
82.32
71.93
62.13
54.61
49.89
47.52
46.62
46.33
46.06
45.60
44.98
44.41
44.22
44.91
46.95
50.46
55.12
59.95
63.69
65.34
64.72
62.53
60.32
59.79
62.06
67.36
74.86
83.20
91.03
97.88
104.34
112.16
123.67
140.88
164.33
192.01
219.05
238.17
241.61
223.73
183.66
126.57
62.69
4.41
-37.81
-58.55
-58.67
-44.12
-23.20
-3.81
8.36
10.51
2.68
-12.92
-32.71
-52.87
-70.46
-83.96
-93.20
-98.51
-99.85
-96.36
-87.12
-72.33
-54.18
-36.53
-23.51
-17.83
-19.77
-27.62
-38.92
-51.86
-65.89
-81.39
-98.91
-118.48
-139.48
-160.69
-180.91
-199.61
-216.85
-232.82
-247.08
-257.96
-262.96
-259.85
-248.03
-229.62
-209.09
-191.53
-180.33
-175.43
-173.26
-168.47
-156.57
-136.06
-109.25
-80.95
-56.16
-37.90
-26.13
-18.28
-10.76
-0.70
13.17
30.56
50.58
72.60
96.50
122.10
148.34
172.85
192.32
203.85
206.20
200.73
190.95
181.16
174.70
172.62
173.55
174.61
172.85
166.71
156.60
144.52
133.02
124.13
118.57
115.78
114.42
113.11
110.99
107.84
103.96
99.91
96.32
93.61
91.70
89.69
85.79
77.52
62.43
38.98
7.19
-31.19
-72.90
-113.72
-149.13
-174.93
-188.09
-187.45
-174.16
-151.40
-123.43
-94.25
-66.36
-40.51
-16.14
7.40
30.00
50.57
67.73
80.81
90.50
98.91
108.63
121.58
137.90
155.62
171.14
180.52
181.12
172.50
156.61
136.94
117.39
101.32
91.09
87.97
92.07
102.28
116.23
130.75
142.39
148.21
146.45
136.54
119.15
95.95
69.57
43.43
21.15
5.31
-3.91
-9.37
-16.44
-30.96
-56.94
-94.66
-140.41
-187.68
-229.38
-260.05
-277.00
-280.32
-271.88
-254.16
-229.52
-200.21
-168.75
-138.12
-111.25
-90.07
-74.69
-63.23
-52.63
-40.08
-24.20
-5.37
14.68
33.83
50.33
62.90
70.38
71.43
64.69
49.50
26.91
0.31
-24.92
-42.88
-49.21
-42.96
-27.23
-8.51
5.59
8.76
-1.69
-24.13
-53.13
-81.42
-102.17
-111.09
-107.52
-94.53
-77.77
-63.66
-57.42
-61.50
-75.10
-94.79
-116.01
-134.62
-148.06
-155.66
-158.42
-158.25
-157.32
-157.48
-159.86
-164.76
-171.59
-179.01
-185.34
-189.26
-190.26
-188.90
-186.28
-183.28
-179.82
-174.47
-164.66
-147.45
-120.63
-83.89
-39.49
7.86
52.06
87.53
111.00
122.58
125.59
125.04
125.41
128.95
135.19
141.70
145.63
145.07
139.67
130.48
119.48
109.08
101.61
99.05
102.53
112.09
126.31
142.57
157.56
168.24
172.75
170.90
164.23
155.25
146.36
138.87
132.55
125.82
116.49
102.73
83.81
60.31
33.85
6.62
-19.25
-42.17
-61.25
-76.44
-88.43
-98.40
-107.62
-117.09
-127.31
-138.22
-149.38
-160.07
-169.38
-176.20
-179.26
-177.44
-170.14
-157.56
-140.75
-121.27
-100.69
-80.11
-60.03
-40.52
-21.71
-3.99
11.89
25.18
35.57
43.47
49.97
56.34
63.32
70.66
77.00
80.43
79.50
74.11
65.92
57.79
52.64
52.08
55.86
62.14
68.46
72.97
75.10
75.45
75.05
74.75
74.83
75.63
78.02
83.66
94.59
112.37
137.10
167.10
199.31
229.86
255.20
272.51
279.93
276.90
264.61
245.85
224.49
204.51
188.45
177.37
170.48
165.60
160.19
152.74
142.54
129.40
113.13
92.55
67.31
38.24
7.50
-21.39
-43.55
-55.09
-54.74
-44.97
-32.75
-25.06
-26.82
-39.28
-59.43
-80.28
-94.31
-95.85
-82.79
-58.41
-27.15
6.29
37.60
55.08
50.36
19.58
-34.64
-93.89
-148.39
-192.64
-223.58
-242.38
-249.63
-245.98
-233.93
-217.34
-200.55
-188.43
-182.34
-180.65
-180.47
-179.04
-174.38
-166.36
-155.95
-144.38
-133.66
-123.84
-113.83
-102.46
-88.95
-72.91
-54.71
-35.15
-15.15
3.67
20.67
35.81
49.31
61.47
72.61
82.94
92.68
101.98
110.54
118.23
124.99
130.62
134.96
137.86
138.97
137.60
132.62
122.63
107.01
86.30
62.19
36.82
11.84
-12.14
-35.26
-57.57
-78.15
-94.90
-105.24
-107.44
-101.75
-90.50
-77.24
-65.34
-56.97
-52.65
-51.44
-51.12
-48.24
-38.56
-18.13
14.65
57.37
102.89
140.95
161.37
157.81
130.15
84.44
30.45
-22.13
-66.54
-100.54
-125.84
-146.42
-166.87
-191.43
-223.62
-265.88
-318.60
-378.83
-439.37
-489.73
-518.72
-518.37
-486.99
-429.93
-357.32
-280.05
-206.01
-138.34
-76.17
-16.83
41.83
100.14
156.37
207.30
249.17
278.61
293.64
294.36
283.02
263.12
238.20
210.89
182.72
154.82
128.72
106.56
90.26
80.22
74.40
68.48
57.25
36.46
4.63
-36.25
-80.76
-121.40
-150.50
-162.16
-153.96
-127.58
-88.12
-42.29
3.77
46.07
83.16
115.32
143.30
167.23
186.52
200.36
208.38
210.99
209.22
204.12
196.35
186.06
173.09
157.25
138.66
117.85
95.63
73.04
51.05
30.32
11.03
-7.08
-24.52
-41.59
-57.99
-72.57
-83.52
-88.91
-87.40
-78.90
-64.73
-47.33
-29.52
-13.68
-1.06
8.27
15.06
20.28
24.51
27.63
29.03
27.94
23.93
17.12
8.28
-1.44
-10.93
-19.37
-26.39
-32.07
-36.62
-40.13
-42.63
-43.99
-44.37
-44.36
-44.99
-47.39
-52.28
-59.69
-68.99
-79.49
-90.80
-103.01
-116.25
-129.95
-142.41
-150.97
-152.85
-146.27
-131.10
-108.94
-82.45
-54.60
-28.12
-5.46
11.04
19.20
17.35
5.11
-15.98
-42.28
-68.69
-89.68
-100.91
-100.18
-87.83
-66.35
-39.44
-10.91
15.99
39.08
57.17
69.91
77.72
81.56
82.68
82.33
81.44
80.41
79.19
77.58
75.45
73.00
70.61
68.71
67.48
66.57
65.02
61.53
54.91
44.72
31.69
17.60
4.74
-4.89
-10.28
-11.64
-9.96
-6.53
-2.42
1.71
5.38
8.13
9.54
9.34
7.63
4.91
1.91
-0.70
-2.47
-3.28
-3.26
-2.63
-1.53
0.02
2.18
5.17
9.22
14.46
20.81
28.07
35.86
43.60
50.59
56.03
59.14
59.38
56.67
51.49
44.76
37.61
30.97
25.40
20.96
17.34
13.98
10.36
6.07
0.99
-4.72
-10.77
-16.82
-22.56
-27.74
-32.03
-34.98
-36.12
-35.05
-31.65
-26.30
-19.76
-13.01
-6.95
-2.15
1.19
3.21
4.28
4.88
5.50
6.58
8.49
11.41
15.29
19.80
24.25
27.80
29.51
28.63
24.77
18.02
9.01
-1.30
-11.88
-21.95
-31.22
-39.80
-47.98
-55.89
-63.30
-69.63
-74.24
-76.75
-77.32
-76.68
-75.82
-75.65
-76.74
-79.20
-82.84
-87.31
-92.28
-97.44
-102.20
-105.64
-106.36
-102.73
-93.37
-77.59
-55.54
-28.26
2.51
34.67
66.09
94.90
119.52
138.74
151.61
157.63
156.74
149.50
137.08
121.17
103.68
86.51
71.34
59.56
52.14
49.64
52.00
58.36
67.15
76.46
84.60
90.62
94.65
97.39
99.68
101.82
103.26
102.60
98.14
88.46
73.09
52.76
29.44
5.95
-14.64
-29.80
-38.12
-39.69
-36.06
-29.85
-24.16
-21.91
-25.12
-34.45
-48.87
-65.84
-81.82
-93.23
-97.41
-93.34
-81.90
-65.34
-46.67
-28.79
-14.02
-3.88
1.02
1.01
-2.62
-7.85
-12.41
-14.48
-13.25
-9.13
-3.37
2.45
7.10
9.92
10.82
10.07
8.11
5.47
2.68
0.19
-1.82
-3.42
-4.91
-6.53
-8.39
-10.40
-12.44
-14.42
-16.31
-17.88
-18.68
-18.07
-15.51
-10.93
-4.81
2.04
8.78
14.81
19.77
23.27
24.72
23.47
19.14
12.10
3.62
-4.53
-10.71
-14.06
-14.69
-13.44
-11.27
-8.89
-6.67
-4.81
-3.67
-3.72
-5.36
-8.68
-13.28
-18.54
-23.85
-28.80
-33.11
-36.36
-37.71
-36.09
-30.73
-21.67
-10.14
1.74
11.70
18.17
20.84
20.62
19.08
17.64
17.09
17.39
18.12
18.84
19.42
19.97
20.64
21.34
21.75
21.45
20.20
18.13
15.75
13.63
12.13
11.16
10.18
8.36
5.00
-0.19
-6.87
-14.08
-20.55
-25.05
-26.75
-25.47
-21.65
-16.13
-9.91
-3.79
1.69
6.30
9.96
12.70
14.46
15.23
15.06
14.10
12.57
10.80
9.01
7.40
6.09
5.08
4.34
3.78
3.22
2.46
1.38
-0.04
-1.70
-3.41
-5.01
-6.50
-8.00
-9.76
-12.01
-14.81
-17.94
-20.93
-23.10
-23.78
-22.47
-19.11
-14.11
-8.24
-2.43
2.60
6.42
9.01
10.56
11.28
11.27
10.54
9.13
7.16
4.93
2.82
1.20
0.31
0.25
0.94
2.21
3.78
5.38
6.82
7.98
8.85
9.48
9.88
9.98
9.61
8.61
6.92
4.66
1.97
-0.98
-4.10
-7.30
-10.32
-12.62
-13.49
-12.22
-8.47
-2.56
4.61
11.83
18.00
22.46
25.16
26.36
26.52
26.02
25.11
23.94
22.66
21.40
20.27
19.40
18.82
18.56
18.63
19.03
19.72
20.60
21.48
22.24
22.80
23.12
23.26
23.26
23.16
22.94
22.63
22.30
22.00
21.79
21.57
21.26
20.70
19.88
19.03
18.50
18.62
19.44
20.66
21.60
21.42
19.49
15.60
10.17
4.00
-1.89
-6.67
-9.87
-11.42
-11.54
-10.60
-8.99
-7.05
-5.09
-3.43
-2.41
-2.33
-3.37
-5.53
-8.64
-12.33
-16.19
-19.83
-23.01
-25.70
-28.05
-30.25
-32.44
-34.66
-36.83
-38.77
-40.27
-41.08
-40.87
-39.32
-36.20
-31.55
-25.71
-19.33
-13.17
-7.95
-4.14
-1.86
-0.98
-1.28
-2.55
-4.53
-6.97
-9.52
-11.77
-13.40
-14.25
-14.44
-14.25
-14.04
-14.06
-14.42
-15.04
-15.83
-16.70
-17.64
-18.69
-19.88
-21.21
-22.66
-24.27
-26.09
-28.13
-30.26
-32.15
-33.29
-33.12
-31.24
-27.60
-22.54
-16.68
-10.76
-5.43
-1.06
2.17
4.32
5.51
5.89
5.60
4.83
3.77
2.68
1.85
1.53
1.90
2.95
4.46
6.15
7.64
8.69
9.17
9.08
8.51
7.58
6.34
4.81
2.96
0.71
-1.95
-4.93
-8.03
-10.85
-12.93
-13.82
-13.25
-11.17
-7.80
-3.58
1.03
5.52
9.54
12.84
15.33
16.97
17.78
17.79
17.07
15.78
14.13
12.41
10.90
9.78
9.10
8.76
8.53
8.24
7.72
6.88
5.65
4.03
2.02
-0.33
-2.94
-5.69
-8.48
-11.25
-14.06
-16.93
-19.77
-22.28
-23.98
-24.36
-23.08
-20.17
-16.05
-11.38
-6.88
-2.97
0.11
2.46
4.19
5.39
6.06
6.18
5.77
5.00
4.12
3.35
2.84
2.62
2.55
2.44
2.15
1.65
0.99
0.32
-0.25
-0.61
-0.79
-0.87
-1.02
-1.41
-2.21
-3.52
-5.26
-7.13
-8.62
-9.17
-8.31
-5.81
-1.80
3.29
8.82
14.10
18.52
21.76
23.71
24.52
24.50
23.94
23.08
22.09
21.08
20.23
19.77
19.95
20.92
22.58
24.66
26.78
28.65
30.13
31.27
32.13
32.78
33.20
33.29
32.91
31.99
30.48
28.49
26.29
24.29
23.00
22.83
23.95
26.12
28.80
31.32
33.10
33.89
33.76
32.93
31.66
30.10
28.24
26.04
23.43
20.50
17.38
14.23
11.14
8.04
4.75
1.04
-3.20
-7.93
-12.88
-17.63
-21.67
-24.57
-26.12
-26.41
-25.83
-25.02
-24.46
-24.33
-24.36
-23.99
-22.70
-20.48
-17.86
-15.81
-15.25
-16.58
-19.49
-23.12
-26.42
-28.52
-29.03
-27.91
-25.33
-21.65
-17.22
-12.59
-8.40
-5.36
-4.00
-4.62
-7.06
-10.78
-15.00
-18.89
-21.83
-23.48
-23.84
-23.24
-22.17
-21.12
-20.51
-20.55
-21.23
-22.38
-23.58
-24.27
-23.94
-22.18
-18.90
-14.33
-9.04
-3.80
0.70
3.98
5.98
6.99
7.55
8.21
9.29
10.82
12.53
14.00
14.81
14.75
13.81
12.20
10.13
7.77
5.13
2.07
-1.65
-6.20
-11.59
-17.64
-23.93
-30.00
-35.53
-40.41
-44.86
-49.48
-55.03
-62.28
-71.68
-83.09
-95.46
-106.86
-114.76
-116.69
-110.91
-97.03
-76.19
-50.79
-23.94
1.36
22.81
39.17
50.34
57.10
60.69
62.41
63.31
64.06
64.94
66.03
67.18
68.13
68.50
67.88
65.90
62.38
57.47
51.54
45.13
38.79
32.97
27.88
23.55
19.76
16.18
12.49
8.52
4.39
0.49
-2.53
-4.09
-3.82
-1.79
1.56
5.52
9.26
12.10
13.60
13.70
12.67
11.05
9.55
8.89
9.52
11.52
14.51
17.74
20.38
21.83
21.83
20.56
18.48
16.13
13.90
12.08
10.71
9.77
9.18
8.91
8.93
9.32
10.13
11.39
12.97
14.52
15.61
15.87
15.13
13.47
11.17
8.50
5.68
2.78
-0.11
-2.84
-5.15
-6.79
-7.65
-7.91
-8.00
-8.42
-9.55
-11.54
-14.29
-17.59
-21.29
-25.33
-29.71
-34.35
-38.95
-43.04
-46.21
-48.26
-49.34
-49.78
-49.95
-49.99
-49.84
-49.40
-48.64
-47.76
-46.96
-46.26
-45.36
-43.76
-41.07
-37.30
-32.95
-28.75
-25.29
-22.64
-20.35
-17.74
-14.22
-9.59
-4.03
2.10
8.50
14.94
21.15
26.71
30.96
33.34
33.71
32.53
30.69
29.05
28.04
27.54
27.05
26.20
24.98
23.81
23.16
23.14
23.49
23.65
23.27
22.44
21.66
21.51
22.20
23.44
24.51
24.78
23.92
22.09
19.69
17.01
14.12
10.93
7.41
3.84
0.82
-1.05
-1.46
-0.70
0.54
1.40
1.26
-0.08
-2.52
-5.77
-9.49
-13.29
-16.73
-19.30
-20.69
-20.93
-20.52
-20.18
-20.52
-21.64
-23.16
-24.41
-24.88
-24.42
-23.17
-21.31
-18.80
-15.39
-10.95
-5.73
-0.51
3.66
5.86
5.71
3.42
-0.35
-4.80
-9.18
-12.86
-15.26
-15.95
-14.76
-12.00
-8.45
-5.07
-2.68
-1.68
-2.06
-3.66
-6.43
-10.50
-15.94
-22.43
-29.05
-34.52
-37.71
-38.15
-36.18
-32.72
-28.76
-24.97
-21.54
-18.42
-15.53
-12.98
-10.88
-9.13
-7.33
-4.94
-1.70
2.11
5.64
7.94
8.36
6.98
4.43
1.56
-0.92
-2.71
-3.76
-4.03
-3.43
-1.90
0.35
2.72
4.37
4.65
3.32
0.71
-2.62
-6.11
-9.51
-12.75
-15.72
-18.09
-19.28
-18.85
-16.70
-13.25
-9.15
-5.14
-1.58
1.42
3.92
5.98
7.60
8.82
9.85
11.01
12.58
14.59
16.63
18.06
18.33
17.26
15.10
12.37
9.59
7.09
5.09
3.80
3.50
4.40
6.47
9.26
11.95
13.66
13.75
12.03
8.66
3.94
-1.81
-8.27
-14.91
-20.87
-25.01
-26.37
-24.44
-19.52
-12.53
-4.78
2.48
8.29
12.05
13.58
13.06
11.16
8.91
7.51
7.89
10.26
13.96
17.70
20.07
20.16
17.81
13.57
8.38
3.24
-1.02
-3.78
-4.70
-3.68
-1.10
2.30
5.51
7.51
7.67
5.83
2.28
-2.46
-7.82
-13.19
-17.89
-21.20
-22.40
-21.11
-17.46
-12.11
-6.07
-0.40
4.09
7.06
8.58
9.11
9.22
9.57
10.68
12.74
15.52
18.40
20.56
21.30
20.29
17.61
13.72
9.28
4.97
1.56
-0.29
-0.08
2.31
6.43
11.26
15.42
17.64
17.12
13.86
8.62
2.61
-2.86
-6.79
-8.76
-9.01
-8.34
-7.76
-8.16
-9.93
-12.80
-15.89
-18.04
-18.23
-15.90
-11.16
-4.62
2.79
10.11
16.53
21.51
24.70
26.05
25.69
24.02
21.59
19.02
16.85
15.41
14.79
14.82
15.17
15.52
15.61
15.34
14.69
13.73
12.55
11.22
9.79
8.31
6.83
5.39
4.01
2.64
1.18
-0.50
-2.53
-4.93
-7.59
-10.30
-12.75
-14.53
-15.28
-14.71
-12.72
-9.49
-5.42
-1.12
2.81
5.93
8.14
9.59
10.65
11.56
12.37
12.93
13.05
12.73
12.16
11.78
11.94
12.80
14.16
15.62
16.75
17.27
17.12
16.36
15.01
13.02
10.30
6.85
2.84
-1.41
-5.52
-9.26
-12.55
-15.45
-18.08
-20.51
-22.76
-24.79
-26.52
-27.81
-28.49
-28.35
-27.25
-25.12
-22.16
-18.63
-14.96
-11.54
-8.68
-6.57
-5.30
-4.89
-5.29
-6.38
-7.95
-9.71
-11.27
-12.34
-12.70
-12.29
-11.28
-9.88
-8.34
-6.88
-5.64
-4.69
-4.18
-4.22
-4.86
-6.06
-7.65
-9.35
-10.94
-12.33
-13.62
-15.02
-16.78
-18.96
-21.38
-23.62
-25.14
-25.37
-23.91
-20.61
-15.65
-9.47
-2.73
3.87
9.76
14.61
18.34
21.08
22.94
23.97
24.06
23.05
20.92
17.94
14.63
11.69
9.76
9.14
9.74
11.14
12.73
14.01
14.65
14.54
13.67
12.12
10.01
7.56
5.05
2.87
1.32
0.54
0.37
0.37
-0.03
-1.36
-3.84
-7.29
-11.09
-14.40
-16.38
-16.47
-14.59
-11.11
-6.71
-2.07
2.29
6.13
9.36
11.98
13.93
15.11
15.43
14.90
13.69
12.02
10.17
8.31
6.48
4.67
2.94
1.40
0.21
-0.41
-0.35
0.35
1.51
2.84
4.04
4.85
5.11
4.73
3.67
1.95
-0.31
-2.91
-5.52
-7.69
-9.00
-9.04
-7.64
-4.79
-0.73
4.19
9.52
14.80
19.63
23.64
26.57
28.32
28.94
28.56
27.49
26.09
24.68
23.56
22.82
22.44
22.17
21.66
20.55
18.62
15.99
13.00
10.19
7.96
6.47
5.44
4.40
2.76
0.12
-3.74
-8.77
-14.79
-21.52
-28.50
-35.06
-40.32
-43.39
-43.68
-41.12
-36.30
-30.21
-23.95
-18.30
-13.59
-9.71
-6.34
-3.21
-0.24
2.47
4.78
6.57
7.87
8.79
9.43
9.83
9.98
9.86
9.52
9.17
8.97
9.03
9.32
9.61
9.68
9.33
8.53
7.32
5.78
3.92
1.63
-1.17
-4.49
-8.17
-11.90
-15.32
-18.14
-20.19
-21.33
-21.49
-20.55
-18.44
-15.19
-10.98
-6.14
-1.14
3.49
7.32
9.96
11.20
11.13
10.08
8.64
7.44
6.96
7.28
8.12
8.86
8.82
7.55
4.97
1.40
-2.59
-6.32
-9.24
-11.00
-11.58
-11.14
-10.01
-8.54
-7.06
-5.86
-5.18
-5.25
-6.24
-8.14
-10.73
-13.52
-15.93
-17.38
-17.60
-16.62
-14.70
-12.28
-9.67
-7.08
-4.58
-2.18
0.10
2.19
4.02
5.57
6.92
8.22
9.64
11.30
13.18
15.19
17.09
18.66
19.72
20.28
20.49
20.51
20.52
20.53
20.44
20.03
19.11
17.56
15.42
12.80
9.88
6.87
3.97
1.28
-1.15
-3.43
-5.72
-8.22
-10.99
-13.85
-16.35
-17.86
-17.87
-16.07
-12.63
-8.06
-3.07
1.74
6.03
9.75
12.98
15.72
17.86
19.13
19.36
18.63
17.40
16.31
15.97
16.62
18.05
19.67
20.72
20.64
19.22
16.61
13.22
9.47
5.67
1.96
-1.55
-4.81
-7.64
-9.94
-11.63
-12.72
-13.33
-13.65
-13.90
-14.29
-15.06
-16.35
-18.25
-20.69
-23.51
-26.40
-29.01
-30.98
-31.97
-31.72
-30.07
-27.00
-22.71
-17.57
-12.11
-6.86
-2.25
1.56
4.56
6.93
8.84
10.36
11.51
12.26
12.58
12.57
12.43
12.33
12.34
12.41
12.35
11.92
10.94
9.30
7.04
4.33
1.40
-1.44
-3.91
-5.81
-7.07
-7.73
-8.05
-8.36
-9.06
-10.46
-12.62
-15.30
-17.98
-20.00
-20.74
-19.87
-17.40
-13.69
-9.28
-4.73
-0.49
3.09
5.83
7.67
8.63
8.85
8.58
8.05
7.49
7.07
6.91
7.14
7.81
8.90
10.29
11.69
12.74
13.16
12.81
11.77
10.30
8.69
7.11
5.64
4.23
2.77
1.17
-0.67
-2.79
-5.22
-7.93
-10.78
-13.59
-16.01
-17.69
-18.24
-17.35
-14.94
-11.20
-6.65
-2.02
1.96
4.80
6.42
7.12
7.41
7.74
8.24
8.75
8.95
8.59
7.70
6.58
5.68
5.28
5.46
6.00
6.54
6.79
6.65
6.21
5.62
4.97
4.22
3.25
1.96
0.31
-1.60
-3.64
-5.74
-7.93
-10.27
-12.77
-15.25
-17.33
-18.51
-18.37
-16.71
-13.61
-9.50
-4.91
-0.45
3.48
6.64
9.00
10.70
11.90
12.72
13.22
13.45
13.47
13.37
13.26
13.19
13.14
13.01
12.67
12.10
11.33
10.50
9.70
8.95
8.20
7.35
6.34
5.15
3.84
2.43
0.87
-0.91
-2.97
-5.34
-7.98
-10.82
-13.75
-16.63
-19.23
-21.20
-22.12
-21.57
-19.41
-15.78
-11.19
-6.35
-1.88
1.79
4.54
6.46
7.74
8.56
9.02
9.19
9.09
8.83
8.54
8.36
8.38
8.58
8.84
9.02
9.04
8.84
8.46
7.98
7.41
6.71
5.79
4.57
3.08
1.44
-0.19
-1.65
-2.94
-4.15
-5.47
-7.02
-8.82
-10.77
-12.72
-14.52
-16.08
-17.38
-18.33
-18.78
-18.49
-17.23
-14.94
-11.75
-7.99
-4.03
-0.23
3.21
6.22
8.71
10.58
11.69
11.92
11.36
10.32
9.26
8.55
8.42
8.80
9.43
10.10
10.68
11.12
11.44
11.57
11.42
10.94
10.16
9.22
8.32
7.58
6.99
6.38
5.50
4.18
2.37
0.19
-2.18
-4.55
-6.79
-8.87
-10.81
-12.70
-14.62
-16.68
-18.90
-21.16
-23.24
-24.78
-25.39
-24.79
-22.90
-19.85
-15.93
-11.48
-6.82
-2.20
2.16
6.06
9.29
11.65
13.04
13.46
13.03
12.03
10.81
9.71
8.92
8.55
8.54
8.70
8.88
8.93
8.83
8.63
8.43
8.31
8.26
8.17
7.90
7.32
6.35
5.04
3.46
1.67
-0.28
-2.34
-4.48
-6.62
-8.71
-10.74
-12.78
-14.93
-17.26
-19.65
-21.85
-23.51
-24.22
-23.66
-21.75
-18.60
-14.51
-9.94
-5.38
-1.27
2.08
4.51
6.03
6.73
6.72
6.18
5.31
4.36
3.60
3.24
3.37
3.94
4.81
5.82
6.86
7.83
8.66
9.23
9.44
9.19
8.46
7.30
5.86
4.27
2.60
0.89
-0.89
-2.77
-4.79
-6.93
-9.11
-11.24
-13.20
-14.93
-16.42
-17.77
-19.07
-20.35
-21.43
-22.00
-21.69
-20.19
-17.46
-13.75
-9.54
-5.34
-1.60
1.45
3.74
5.35
6.47
7.27
7.90
8.45
8.91
9.29
9.57
9.76
9.95
10.16
10.36
10.44
10.31
9.89
9.18
8.24
7.11
5.77
4.18
2.31
0.22
-1.93
-3.98
-5.82
-7.45
-8.91
-10.31
-11.71
-13.12
-14.46
-15.61
-16.40
-16.71
-16.35
-15.17
-13.05
-9.97
-6.05
-1.59
2.95
7.09
10.46
12.92
14.50
15.45
15.94
16.15
16.11
15.86
15.46
15.00
14.64
14.47
14.50
14.65
14.81
14.80
14.50
13.82
12.75
11.29
9.52
7.53
5.44
3.35
1.37
-0.39
-1.89
-3.11
-4.14
-5.10
-6.16
-7.48
-9.10
-10.88
-12.56
-13.70
-13.85
-12.71
-10.24
-6.72
-2.68
1.26
4.59
6.98
8.47
9.26
9.67
10.00
10.50
11.28
12.35
13.68
15.09
16.45
17.54
18.19
18.33
17.96
17.12
15.86
14.17
11.87
8.89
5.23
1.00
-3.41
-7.58
-11.09
-13.71
-15.40
-16.43
-17.12
-17.88
-18.92
-20.24
-21.58
-22.48
-22.38
-20.87
-17.78
-13.21
-7.55
-1.26
5.23
11.62
17.90
24.39
31.71
40.65
52.01
66.11
82.50
99.87
116.27
129.86
139.56
145.47
148.50
149.77
149.85
148.50
144.98
138.63
129.47
118.09
105.37
91.88
77.62
62.22
45.44
27.57
9.45
-7.84
-23.58
-37.59
-50.35
-62.65
-75.18
-88.22
-101.48
-114.23
-125.48
-134.39
-140.36
-143.28
-143.49
-141.61
-138.34
-134.21
-129.51
-124.23
-118.27
-111.62
-104.45
-97.16
-90.11
-83.59
-77.48
-71.47
-65.11
-58.12
-50.56
-42.80
-35.38
-28.72
-23.06
-18.42
-14.71
-11.85
-9.86
-8.78
-8.61
-9.20
-10.27
-11.52
-12.69
-13.68
-14.63
-15.78
-17.44
-19.72
-22.50
-25.31
-27.56
-28.67
-28.36
-26.75
-24.26
-21.44
-18.72
-16.23
-13.87
-11.38
-8.58
-5.49
-2.30
0.68
3.19
5.08
6.39
7.19
7.67
7.91
7.94
7.83
7.58
7.29
7.09
7.15
7.57
8.40
9.49
10.58
11.32
11.36
10.54
8.91
6.78
4.55
2.65
1.27
0.49
0.17
0.03
-0.26
-0.98
-2.25
-3.96
-5.76
-7.13
-7.56
-6.74
-4.69
-1.76
1.53
4.61
7.10
8.81
9.78
10.09
9.91
9.34
8.53
7.65
6.92
6.62
6.90
7.87
9.40
11.26
13.19
15.05
16.76
18.23
19.36
19.95
19.78
18.75
16.96
14.67
12.17
9.72
7.32
4.85
2.14
-0.96
-4.44
-8.18
-11.97
-15.52
-18.44
-20.29
-20.65
-19.26
-16.11
-11.52
-6.05
-0.36
4.97
9.56
13.22
16.00
17.95
19.13
19.55
19.27
18.41
17.18
15.90
14.79
14.03
13.63
13.52
13.57
13.70
13.76
13.55
12.80
11.26
8.81
5.60
2.09
-1.16
-3.57
-4.83
-4.93
-4.16
-2.98
-1.94
-1.47
-1.85
-3.11
-5.11
-7.48
-9.81
-11.59
-12.40
-11.95
-10.07
-6.85
-2.53
2.50
7.75
12.76
17.22
20.95
23.90
26.14
27.77
28.87
29.56
29.90
29.98
29.91
29.78
29.60
29.27
28.62
27.41
25.52
22.99
20.01
16.94
14.15
11.89
10.23
9.11
8.37
7.85
7.41
6.94
6.30
5.40
4.22
2.81
1.39
0.10
-0.96
-1.92
-3.08
-4.71
-6.90
-9.48
-11.95
-13.67
-14.05
-12.71
-9.62
-5.12
0.22
5.70
10.67
14.66
17.42
18.99
19.65
19.83
20.02
20.61
21.83
23.67
25.98
28.49
30.91
33.09
34.90
36.22
36.89
36.70
35.52
33.37
30.40
26.80
22.72
18.22
13.31
8.08
2.81
-2.07
-6.05
-8.83
-10.48
-11.42
-12.33
-13.71
-15.70
-18.00
-19.98
-20.95
-20.43
-18.26
-14.57
-9.63
-3.76
2.79
9.82
17.18
24.71
32.31
39.96
47.70
55.59
63.68
72.02
80.55
89.07
97.06
103.76
108.35
110.18
109.15
105.72
100.80
95.30
89.87
84.70
79.60
74.21
68.20
61.39
53.73
45.28
36.20
26.76
17.32
8.31
0.05
-7.30
-13.76
-19.47
-24.73
-29.88
-35.22
-40.99
-47.22
-53.73
-60.16
-66.14
-71.42
-75.98
-79.94
-83.37
-86.13
-87.84
-88.01
-86.32
-82.76
-77.77
-72.02
-66.26
-61.03
-56.54
-52.75
-49.46
-46.49
-43.76
-41.25
-38.93
-36.70
-34.39
-31.82
-28.88
-25.54
-21.87
-17.98
-14.00
-10.10
-6.53
-3.58
-1.59
-0.84
-1.44
-3.33
-6.30
-9.93
-13.73
-17.09
-19.41
-20.22
-19.32
-16.81
-13.13
-8.83
-4.44
-0.30
3.36
6.50
9.13
11.43
13.77
16.61
20.29
24.74
29.41
33.49
36.34
37.84
38.49
38.96
39.55
39.77
38.49
34.42
26.87
16.18
3.54
-9.51
-21.76
-32.66
-42.26
-50.74
-58.04
-63.75
-67.36
-68.75
-68.41
-67.46
-67.14
-68.27
-70.82
-73.91
-76.10
-76.01
-72.94
-67.16
-59.83
-52.59
-47.03
-44.15
-44.18
-46.63
-50.50
-54.66
-58.11
-60.11
-60.25
-58.42
-54.78
-49.78
-44.10
-38.49
-33.64
-29.91
-27.33
-25.54
-24.00
-22.18
-19.73
-16.69
-13.41
-10.43
-8.24
-7.13
-7.10
-7.90
-9.15
-10.49
-11.66
-12.56
-13.19
-13.65
-14.00
-14.31
-14.53
-14.60
-14.44
-14.06
-13.69
-13.69
-14.58
-16.86
-20.84
-26.53
-33.75
-42.11
-51.03
-59.79
-67.50
-73.30
-76.50
-76.83
-74.52
-70.18
-64.57
-58.35
-52.00
-45.83
-40.08
-34.99
-30.77
-27.54
-25.27
-23.74
-22.63
-21.62
-20.38
-18.66
-16.27
-13.13
-9.29
-4.85
0.05
5.30
10.76
16.22
21.31
25.54
28.44
29.70
29.38
27.82
25.56
23.13
20.90
18.95
17.14
15.22
12.91
9.98
6.25
1.73
-3.43
-8.83
-13.79
-17.50
-19.15
-18.18
-14.56
-8.78
-1.72
5.57
12.25
17.86
22.34
25.92
28.83
31.13
32.77
33.67
33.86
33.59
33.23
33.05
33.11
33.26
33.21
32.87
32.41
32.21
32.61
33.66
34.99
35.90
35.69
33.92
30.71
26.58
22.21
18.14
14.48
11.03
7.39
3.26
-1.51
-6.81
-12.44
-18.06
-23.25
-27.31
-29.32
-28.41
-24.10
-16.74
-7.46
2.17
10.72
17.33
21.91
24.90
26.82
28.04
28.69
28.79
28.56
28.38
28.68
29.70
31.40
33.41
35.29
36.68
37.43
37.54
37.17
36.50
35.62
34.45
32.79
30.40
27.07
22.83
17.92
12.79
7.91
3.57
-0.23
-3.71
-7.24
-11.09
-15.42
-20.16
-25.03
-29.52
-32.97
-34.72
-34.22
-31.30
-26.27
-19.88
-13.12
-6.85
-1.63
2.41
5.49
7.94
10.02
11.85
13.44
14.82
16.08
17.42
18.99
20.93
23.19
25.69
28.29
30.88
33.31
35.42
36.97
37.78
37.77
37.00
35.61
33.77
31.57
29.00
25.90
22.03
17.15
11.19
4.18
-3.48
-11.13
-17.83
-22.58
-24.64
-23.78
-20.39
-15.34
-9.74
-4.52
-0.20
3.12
5.67
7.75
9.55
11.05
12.15
12.71
12.77
12.46
11.97
11.39
10.78
10.12
9.40
8.74
8.22
7.94
7.82
7.58
6.86
5.44
3.28
0.55
-2.42
-5.30
-7.89
-10.18
-12.36
-14.61
-17.08
-19.68
-22.02
-23.50
-23.52
-21.68
-18.02
-13.01
-7.34
-1.65
3.63
8.39
12.64
16.31
19.19
20.89
21.12
19.84
17.45
14.60
12.15
10.76
10.74
11.89
13.62
15.13
15.68
14.86
12.61
9.17
4.96
0.51
-3.60
-6.82
-8.67
-8.93
-7.72
-5.59
-3.43
-2.20
-2.59
-4.77
-8.30
-12.23
-15.43
-16.85
-15.83
-12.14
-6.13
1.44
9.53
17.06
23.15
27.36
29.72
30.68
30.93
31.09
31.55
32.40
33.44
34.34
34.80
34.62
33.73
32.18
30.08
27.56
24.81
22.04
19.45
17.15
15.19
13.50
11.93
10.29
8.41
6.19
3.60
0.72
-2.36
-5.60
-9.05
-12.80
-16.87
-21.06
-24.85
-27.43
-27.91
-25.64
-20.49
-12.91
-3.83
5.69
14.70
22.67
29.42
35.06
39.83
43.91
47.45
50.52
53.25
55.81
58.49
61.58
65.36
69.95
75.29
81.10
87.03
92.77
98.10
102.93
107.12
110.38
112.25
112.10
109.46
104.08
96.11
86.04
74.57
62.39
50.11
38.07
26.40
15.05
3.75
-7.73
-19.44
-31.16
-42.38
-52.41
-60.61
-66.55
-69.99
-70.82
-69.01
-64.62
-58.00
-49.83
-41.09
-32.77
-25.59
-19.88
-15.72
-13.24
-12.78
-14.85
-19.76
-27.26
-36.44
-46.05
-55.03
-63.01
-70.35
-77.82
-86.04
-94.97
-103.80
-111.25
-115.99
-117.18
-114.67
-109.04
-101.36
-92.91
-84.77
-77.70
-72.01
-67.73
-64.66
-62.61
-61.38
-60.70
-60.15
-59.15
-57.05
-53.37
-47.90
-40.79
-32.47
-23.46
-14.23
-5.11
3.67
11.86
19.19
25.36
30.19
33.64
35.83
37.01
37.50
37.58
37.46
37.23
36.94
36.55
35.98
35.16
34.12
32.96
31.85
31.00
30.50
30.30
30.24
30.07
29.60
28.69
27.29
25.44
23.27
20.94
18.65
16.58
14.77
13.10
11.32
9.16
6.52
3.61
0.86
-1.16
-1.95
-1.32
0.62
3.46
6.65
9.70
12.23
14.01
15.02
15.38
15.28
14.94
14.60
14.41
14.43
14.62
14.89
15.07
15.03
14.72
14.17
13.49
12.81
12.25
11.88
11.60
11.22
10.54
9.36
7.63
5.48
3.18
0.99
-0.84
-2.23
-3.30
-4.27
-5.44
-6.99
-9.03
-11.40
-13.76
-15.55
-16.17
-15.13
-12.24
-7.74
-2.20
3.63
9.07
13.65
17.23
19.82
21.52
22.45
22.63
22.14
21.09
19.60
17.85
16.00
14.16
12.39
10.74
9.24
7.90
6.79
5.91
5.24
4.66
4.03
3.17
1.98
0.40
-1.46
-3.44
-5.34
-7.00
-8.33
-9.32
-10.01
-10.48
-10.86
-11.36
-12.16
-13.39
-14.98
-16.68
-18.09
-18.72
-18.14
-16.15
-12.83
-8.53
-3.76
0.90
5.00
8.21
10.44
11.76
12.31
12.29
11.98
11.63
11.51
11.81
12.56
13.64
14.78
15.64
15.99
15.69
14.77
13.36
11.68
9.83
7.87
5.70
3.20
0.28
-2.99
-6.43
-9.65
-12.27
-14.04
-14.94
-15.20
-15.26
-15.55
-16.43
-18.04
-20.20
-22.53
-24.48
-25.45
-25.00
-22.93
-19.45
-15.04
-10.35
-5.94
-2.20
0.80
3.17
5.05
6.50
7.50
7.97
7.91
7.45
6.78
6.14
5.70
5.48
5.41
5.37
5.31
5.21
5.14
5.20
5.42
5.74
6.01
6.04
5.63
4.69
3.21
1.28
-0.93
-3.29
-5.65
-7.96
-10.19
-12.35
-14.47
-16.54
-18.52
-20.23
-21.39
-21.58
-20.47
-17.92
-14.09
-9.46
-4.70
-0.47
2.82
5.02
6.33
7.01
7.30
7.30
7.01
6.42
5.67
4.96
4.49
4.39
4.60
4.95
5.23
5.36
5.44
5.65
6.14
6.86
7.55
7.80
7.28
5.89
3.79
1.34
-1.03
-3.02
-4.54
-5.76
-6.95
-8.38
-10.12
-12.06
-13.81
-14.92
-14.98
-13.80
-11.44
-8.18
-4.40
-0.42
3.54
7.23
10.44
12.89
14.34
14.71
14.14
12.99
11.74
10.79
10.38
10.48
10.86
11.24
11.39
11.15
10.53
9.59
8.41
7.08
5.60
3.97
2.19
0.29
-1.64
-3.47
-5.14
-6.61
-7.92
-9.13
-10.35
-11.69
-13.22
-14.93
-16.70
-18.26
-19.20
-19.14
-17.84
-15.33
-11.91
-8.08
-4.36
-1.14
1.39
3.19
4.33
4.91
5.08
5.00
4.83
4.75
4.86
5.20
5.74
6.38
7.01
7.53
7.88
7.98
7.86
7.58
7.20
6.75
6.19
5.48
4.52
3.30
1.83
0.18
-1.54
-3.21
-4.79
-6.29
-7.77
-9.34
-11.11
-13.05
-15.07
-16.88
-18.10
-18.29
-17.19
-14.74
-11.19
-7.04
-2.80
1.06
4.30
6.85
8.75
10.03
10.66
10.63
10.00
9.03
8.00
7.20
6.77
6.66
6.70
6.72
6.63
6.42
6.20
6.02
5.83
5.59
5.19
4.57
3.74
2.77
1.68
0.51
-0.79
-2.21
-3.72
-5.25
-6.70
-8.02
-9.24
-10.50
-11.91
-13.56
-15.32
-16.88
-17.80
-17.63
-16.11
-13.27
-9.43
-5.10
-0.84
2.92
5.93
8.12
9.55
10.29
10.36
9.77
8.59
7.01
5.32
3.87
2.94
2.68
3.02
3.78
4.71
5.63
6.42
7.06
7.55
7.89
7.99
7.71
6.94
5.64
3.89
1.93
0.04
-1.52
-2.73
-3.66
-4.56
-5.67
-7.14
-8.99
-11.12
-13.32
-15.35
-16.91
-17.70
-17.42
-15.92
-13.28
-9.82
-6.04
-2.43
0.63
3.03
4.83
6.15
7.11
7.71
7.93
7.77
7.37
6.94
6.70
6.76
7.08
7.44
7.63
7.53
7.16
6.66
6.16
5.72
5.22
4.47
3.33
1.75
-0.13
-2.06
-3.79
-5.20
-6.30
-7.19
-8.01
-8.88
-9.86
-10.99
-12.26
-13.63
-14.93
-15.88
-16.08
-15.25
-13.22
-10.06
-6.08
-1.70
2.63
6.51
9.62
11.80
12.99
13.25
12.76
11.82
10.76
9.85
9.29
9.19
9.52
10.22
11.14
12.14
13.07
13.80
14.27
14.43
14.28
13.78
12.90
11.65
10.06
8.21
6.22
4.23
2.38
0.73
-0.69
-1.92
-3.06
-4.24
-5.56
-7.05
-8.65
-10.19
-11.52
-12.58
-13.43
-14.25
-15.30
-16.71
-18.46
-20.30
-21.85
-22.64
-22.34
-20.77
-17.98
-14.24
-9.93
-5.46
-1.15
2.76
6.08
8.67
10.43
11.31
11.37
10.83
9.93
8.93
8.00
7.19
6.48
5.87
5.40
5.10
5.01
5.08
5.18
5.22
5.08
4.71
4.11
3.19
1.90
0.23
-1.74
-3.80
-5.66
-7.10
-8.06
-8.76
-9.49
-10.62
-12.30
-14.40
-16.57
-18.35
-19.33
-19.25
-18.07
-15.85
-12.77
-9.04
-4.91
-0.70
3.27
6.67
9.27
10.97
11.85
