1680184729.00
64.000000
-0.00
-0.00
-0.00
-0.00
-0.00
-0.00
-0.00
-0.00
-0.00
-0.00
0.00
0.01
0.01
-0.00
-0.03
-0.05
-0.05
0.00
0.13
0.36
0.66
1.01
1.37
1.72
2.06
2.40
2.79
3.24
3.80
4.42
5.06
5.66
6.20
6.68
7.15
7.68
8.31
9.14
10.09
11.04
11.88
12.56
13.14
13.76
14.65
15.96
17.91
20.32
22.90
25.38
27.58
29.57
31.68
34.32
37.81
42.54
48.15
54.10
59.83
64.97
69.58
74.14
79.34
85.71
93.76
103.00
112.62
121.73
129.77
136.75
143.30
150.75
157.77
166.64
177.95
191.79
206.97
220.57
228.25
225.36
208.53
176.87
132.76
80.05
23.07
-34.94
-92.44
-149.16
-205.23
-260.37
-313.74
-363.87
-409.83
-450.91
-486.50
-515.74
-537.23
-549.22
-549.96
-538.37
-514.21
-478.67
-433.88
-382.45
-327.02
-269.84
-212.63
-156.66
-102.95
-52.37
-5.90
35.58
71.43
101.35
125.50
144.38
158.69
169.15
176.37
180.75
182.57
182.07
179.51
175.23
169.65
163.18
156.15
148.81
141.30
133.69
126.02
118.33
110.69
103.16
95.80
88.68
81.83
75.25
68.95
62.95
57.25
51.86
46.78
42.03
37.59
33.45
29.61
26.07
22.81
19.83
17.11
14.67
12.48
10.54
8.83
7.35
6.07
4.97
4.05
3.27
2.62
2.09
1.65
1.30
1.01
0.79
0.61
0.48
0.37
0.29
0.24
0.20
0.18
0.17
0.17
0.18
0.20
0.23
0.26
0.30
0.34
0.38
0.43
0.48
0.53
0.58
0.63
0.68
0.74
0.80
0.86
0.93
1.01
1.09
1.19
1.29
1.41
1.54
1.69
1.85
2.03
2.23
2.45
2.69
2.96
3.26
3.59
3.95
4.35
4.78
5.25
5.76
6.31
6.91
7.55
8.23
8.96
9.73
10.55
11.40
12.30
13.23
14.23
15.27
16.37
17.52
18.71
19.89
21.03
22.06
22.87
23.36
23.39
22.86
21.65
19.72
17.05
13.68
9.66
5.17
0.38
-4.51
-9.28
-13.71
-17.63
-20.90
-23.42
-25.12
-26.01
-26.13
-25.53
-24.29
-22.52
-20.32
-17.79
-15.03
-12.09
-9.00
-5.77
-2.39
1.18
5.02
9.17
13.64
18.41
23.47
28.81
34.19
39.50
44.56
49.21
53.31
56.68
59.20
60.89
61.88
62.09
61.64
60.73
59.58
58.35
57.11
55.96
55.02
54.67
54.80
55.61
57.34
60.11
63.81
68.10
72.56
76.86
81.00
84.48
87.28
89.47
90.85
90.81
88.20
81.36
68.03
51.32
32.32
12.06
-8.57
-29.00
-49.11
-69.09
-89.35
-110.39
-132.69
-157.48
-185.15
-214.80
-243.94
-268.72
-285.06
-289.94
-282.56
-264.40
-239.17
-210.57
-181.42
-153.27
-126.83
-102.64
-81.44
-63.89
-50.13
-39.74
-31.33
-23.26
-14.37
-4.45
5.80
15.13
22.49
27.48
30.27
31.63
32.41
33.20
34.23
35.45
36.75
38.16
39.75
41.46
43.10
44.37
44.97
44.71
43.57
41.70
39.30
36.64
33.99
31.61
29.73
28.45
27.65
27.00
25.93
23.88
20.39
15.42
9.41
3.16
-2.39
-6.59
-9.29
-10.93
-12.24
-13.88
-16.15
-18.83
-21.35
-23.00
-23.22
-21.77
-18.76
-14.60
-9.94
-5.38
-1.40
1.77
4.19
6.04
7.52
8.74
9.72
10.48
11.11
11.73
12.45
13.26
14.03
14.57
14.72
14.45
13.91
13.32
12.94
12.86
13.03
13.23
13.16
12.62
11.56
10.10
8.54
7.15
6.07
5.24
4.44
3.43
2.06
0.42
-1.29
-2.85
-4.15
-5.27
-6.35
-7.55
-8.95
-10.53
-12.20
-13.91
-15.51
-16.76
-17.29
-16.70
-14.72
-11.42
-7.25
-2.83
1.21
4.46
6.86
8.53
9.71
10.60
11.27
11.76
12.12
12.39
12.60
12.76
12.79
12.59
12.11
11.35
10.42
9.47
8.65
8.01
7.54
7.18
6.85
6.50
6.13
5.78
5.43
4.97
4.20
2.94
1.13
-1.12
-3.53
-5.73
-7.42
-8.49
-9.12
-9.61
-10.34
-11.62
-13.64
-16.32
-19.35
-22.20
-24.14
-24.51
-22.94
-19.54
-14.85
-9.72
-4.94
-1.00
2.00
4.27
6.09
7.66
8.98
10.01
10.67
11.03
11.23
11.42
11.69
12.02
12.32
12.50
12.53
12.47
12.50
12.77
13.35
14.15
14.92
15.37
15.31
14.69
13.64
12.35
11.06
9.85
8.78
7.84
6.95
5.99
4.79
3.20
1.16
-1.22
-3.67
-5.91
-7.72
-9.09
-10.23
-11.47
-13.11
-15.34
-18.07
-20.96
-23.46
-24.95
-24.91
-23.12
-19.76
-15.33
-10.53
-6.05
-2.37
0.31
2.03
3.01
3.59
4.10
4.83
5.88
7.17
8.43
9.38
9.87
9.93
9.83
9.86
10.27
11.07
12.12
13.16
13.92
14.20
13.84
12.84
11.26
9.29
7.25
5.44
4.10
3.25
2.68
2.06
1.06
-0.53
-2.65
-5.04
-7.35
-9.26
-10.66
-11.71
-12.74
-14.13
-16.14
-18.73
-21.56
-24.05
-25.52
-25.45
-23.57
-20.01
-15.23
-9.91
-4.80
-0.51
2.65
4.69
5.89
6.65
7.34
8.14
9.07
9.96
10.64
10.99
11.03
10.88
10.68
10.56
10.54
10.64
10.83
11.12
11.56
12.10
12.67
13.09
13.16
12.75
11.91
10.83
9.79
8.99
8.45
8.03
7.47
6.55
5.21
3.57
1.83
0.20
-1.23
-2.48
-3.72
-5.16
-7.00
-9.40
-12.38
-15.81
-19.39
-22.65
-25.03
-26.02
-25.27
-22.75
-18.80
-14.03
-9.23
-5.00
-1.67
0.80
2.75
4.54
6.43
8.49
10.56
12.42
13.88
14.83
15.30
15.38
15.28
15.17
15.16
15.31
15.57
15.84
16.07
16.22
16.27
16.21
15.91
15.26
14.18
12.73
11.07
9.42
7.93
6.63
5.45
4.22
2.80
1.10
-0.81
-2.78
-4.62
-6.11
-7.13
-7.75
-8.17
-8.75
-9.85
-11.76
-14.50
-17.81
-21.13
-23.77
-25.03
-24.45
-21.92
-17.76
-12.64
-7.34
-2.56
1.30
4.17
6.27
7.92
9.42
10.89
12.30
13.55
14.50
15.13
15.44
15.52
15.45
15.31
15.13
14.97
14.82
14.65
14.36
13.85
13.05
12.05
11.06
10.38
10.24
10.68
11.41
11.98
11.87
10.81
8.85
6.35
3.81
1.59
-0.21
-1.79
-3.48
-5.53
-7.92
-10.38
-12.53
-14.08
-15.02
-15.62
-16.33
-17.56
-19.52
-22.16
-25.22
-28.26
-30.75
-32.08
-31.72
-29.30
-24.85
-18.86
-12.16
-5.70
-0.17
4.19
7.63
10.55
13.27
15.79
17.80
18.92
18.85
17.65
15.69
13.54
11.82
10.94
11.03
11.88
13.04
13.90
13.97
12.99
11.09
8.72
6.52
5.09
4.81
5.70
7.53
9.83
12.10
13.87
14.83
14.83
13.87
12.10
9.83
7.40
5.17
3.37
2.07
1.10
0.13
-1.21
-3.21
-5.99
-9.44
-13.22
-16.81
-19.56
-20.84
-20.21
-17.64
-13.55
-8.73
-4.11
-0.45
1.96
3.30
3.99
4.44
4.79
4.92
4.61
3.76
2.52
1.23
0.30
-0.01
0.34
1.15
2.17
3.17
4.08
4.90
5.63
6.18
6.37
5.97
4.81
2.84
0.12
-3.22
-7.00
-10.99
-14.90
-18.46
-21.52
-24.21
-26.89
-30.06
-34.08
-38.90
-44.06
-48.84
-52.60
-55.09
-56.54
-57.49
-58.46
-59.74
-61.26
-62.79
-64.10
-65.06
-65.47
-65.02
-63.21
-59.57
-54.03
-47.17
-40.09
-34.08
-30.21
-28.89
-29.94
-32.85
-37.07
-42.22
-48.04
-54.32
-60.79
-67.23
-73.55
-79.89
-86.48
-93.56
-101.14
-108.99
-116.53
-123.10
-128.01
-130.81
-131.33
-129.62
-125.81
-119.97
-112.04
-101.88
-89.23
-73.82
-55.38
-33.78
-9.23
17.55
45.49
73.66
101.85
130.96
162.68
198.61
239.09
282.53
325.62
364.42
395.75
418.13
431.97
438.95
441.16
440.30
437.39
432.77
426.19
417.04
404.39
387.23
364.64
336.05
301.41
261.15
216.15
167.58
116.89
65.80
16.16
-30.35
-72.47
-109.59
-141.60
-168.62
-190.55
-207.01
-217.56
-222.10
-221.29
-216.48
-209.40
-201.48
-193.53
-185.64
-177.51
-168.87
-159.74
-150.38
-141.14
-132.17
-123.41
-114.66
-105.83
-97.07
-88.74
-81.29
-75.01
-69.95
-65.89
-62.55
-59.70
-57.25
-55.25
-53.72
-52.59
-51.69
-50.81
-49.85
-48.88
-48.01
-47.38
-47.05
-47.01
-47.29
-47.99
-49.34
-51.47
-54.31
-57.41
-59.98
-61.06
-59.85
-56.00
-49.73
-41.84
-33.34
-25.29
-18.39
-12.93
-8.71
-5.27
-2.01
1.51
5.51
9.93
14.47
18.81
22.62
25.72
28.01
29.56
30.48
30.99
31.32
31.69
32.29
33.17
34.25
35.35
36.21
36.56
36.13
34.75
32.33
28.91
24.72
20.04
15.23
10.63
6.42
2.66
-0.69
-3.77
-6.69
-9.51
-12.28
-14.98
-17.64
-20.31
-23.08
-26.14
-29.63
-33.60
-37.92
-42.26
-46.08
-48.72
-49.50
-47.95
-43.98
-37.91
-30.44
-22.44
-14.73
-7.82
-1.95
2.97
7.07
10.48
13.25
15.32
16.76
17.66
18.20
18.58
18.86
18.99
18.76
17.96
16.46
14.34
11.83
9.26
6.96
5.11
3.76
2.76
1.90
0.91
-0.39
-2.07
-4.01
-5.92
-7.43
-8.17
-7.92
-6.66
-4.59
-2.03
0.63
3.05
4.96
6.18
6.61
6.27
5.22
3.48
0.95
-2.57
-7.27
-13.14
-19.76
-26.22
-31.35
-33.98
-33.40
-29.48
-22.84
-14.52
-5.76
2.29
8.91
13.81
17.11
19.13
20.22
20.62
20.42
19.69
18.56
17.32
16.27
15.62
15.28
15.01
14.50
13.64
12.55
11.60
11.08
11.07
11.34
11.41
10.80
9.20
6.60
3.33
-0.12
-3.26
-5.77
-7.60
-8.97
-10.25
-11.88
-14.18
-17.34
-21.32
-25.84
-30.40
-34.26
-36.61
-36.71
-34.13
-28.96
-21.81
-13.67
-5.66
1.39
7.01
11.27
14.48
17.04
19.23
21.12
22.65
23.80
24.63
25.25
25.67
25.75
25.18
23.72
21.38
18.49
15.64
13.38
11.96
11.18
10.53
9.40
7.39
4.45
0.86
-2.90
-6.45
-9.57
-12.36
-15.11
-18.23
-22.07
-26.77
-32.07
-37.34
-41.68
-44.07
-43.76
-40.42
-34.32
-26.20
-17.14
-8.20
-0.19
6.47
11.77
16.00
19.51
22.61
25.47
28.09
30.35
32.11
33.26
33.77
33.73
33.34
32.87
32.60
32.72
33.31
34.31
35.55
36.77
37.69
38.06
37.70
36.57
34.72
32.31
29.55
26.62
23.66
20.72
17.81
14.92
12.07
9.31
6.74
4.40
2.29
0.30
-1.78
-4.15
-6.98
-10.26
-13.76
-17.17
-20.25
-22.91
-25.37
-28.02
-31.32
-35.66
-41.06
-47.14
-53.03
-57.52
-59.36
-57.64
-52.16
-43.59
-33.21
-22.58
-12.90
-4.77
1.77
7.05
11.41
15.05
18.05
20.50
22.63
24.67
26.81
29.03
31.16
32.99
34.40
35.45
36.23
36.81
37.15
37.09
36.48
35.27
33.50
31.34
29.00
26.72
24.69
23.02
21.71
20.62
19.47
18.03
16.15
13.84
11.25
8.57
5.95
3.38
0.78
-1.96
-4.84
-7.74
-10.35
-12.28
-13.21
-13.11
-12.30
-11.45
-11.44
-13.08
-16.88
-22.84
-30.35
-38.34
-45.39
-50.13
-51.52
-49.22
-43.70
-36.13
-27.99
-20.59
-14.62
-10.04
-6.24
-2.46
1.85
6.76
11.92
16.79
20.91
24.06
26.26
27.64
28.35
28.50
28.24
27.72
27.17
26.77
26.63
26.70
26.76
26.55
25.79
24.33
22.19
19.60
16.91
14.47
12.53
11.04
9.74
8.21
6.12
3.37
0.11
-3.32
-6.58
-9.50
-12.12
-14.68
-17.52
-20.99
-25.30
-30.35
-35.66
-40.32
-43.20
-43.31
-40.13
-33.90
-25.56
-16.45
-7.89
-0.75
4.64
8.51
11.29
13.43
15.19
16.67
17.87
18.77
19.43
19.94
20.41
20.86
21.29
21.63
21.86
22.03
22.25
22.62
23.17
23.78
24.17
23.96
22.77
20.44
17.10
13.22
9.45
6.40
4.36
3.25
2.59
1.82
0.45
-1.66
-4.36
-7.35
-10.35
-13.21
-15.93
-18.64
-21.42
-24.42
-27.73
-31.41
-35.37
-39.25
-42.41
-43.97
-43.23
-39.82
-34.02
-26.64
-18.71
-11.15
-4.52
1.07
5.76
9.70
13.02
15.72
17.83
19.45
20.78
21.97
23.14
24.27
25.30
26.12
26.64
26.80
26.57
25.99
25.20
24.44
23.93
23.71
23.67
23.50
22.88
21.66
19.93
17.99
16.13
14.49
13.05
11.63
10.11
8.48
6.87
5.44
4.33
3.51
2.81
1.95
0.66
-1.21
-3.70
-6.66
-9.87
-13.04
-15.95
-18.46
-20.61
-22.54
-24.58
-27.04
-30.19
-34.02
-38.15
-41.84
-44.14
-44.16
-41.47
-36.19
-29.01
-20.96
-13.08
-6.15
-0.58
3.60
6.61
8.74
10.23
11.26
11.94
12.38
12.72
13.12
13.66
14.30
14.88
15.22
15.20
14.89
14.52
14.33
14.42
14.65
14.73
14.35
13.36
11.86
10.05
8.20
6.47
4.90
3.43
1.96
0.39
-1.34
-3.22
-5.26
-7.40
-9.59
-11.75
-13.77
-15.54
-17.02
-18.24
-19.39
-20.73
-22.51
-24.86
-27.65
-30.41
-32.43
-32.94
-31.38
-27.57
-21.90
-15.12
-8.25
-2.18
2.54
5.85
8.06
9.65
11.02
12.36
13.62
14.67
15.39
15.80
16.00
16.14
16.32
16.56
16.84
17.09
17.29
17.40
17.34
17.01
16.28
15.16
13.73
12.15
10.59
9.12
7.71
6.26
4.71
3.07
1.37
-0.36
-2.12
-3.94
-5.81
-7.67
-9.40
-10.89
-12.13
-13.18
-14.20
-15.33
-16.71
-18.43
-20.54
-23.13
-26.23
-29.81
-33.61
-37.19
-39.88
-40.97
-39.94
-36.64
-31.37
-24.78
-17.69
-10.78
-4.48
1.04
5.83
9.96
13.51
16.46
18.79
20.48
21.52
21.99
22.02
21.78
21.45
21.15
20.96
20.85
20.76
20.65
20.57
20.58
20.72
20.85
20.77
20.22
19.09
17.47
15.64
13.95
12.62
11.67
10.94
10.19
9.21
7.86
6.10
3.93
1.45
-1.16
-3.61
-5.62
-7.02
-7.89
-8.53
-9.30
-10.46
-12.00
-13.73
-15.39
-16.89
-18.35
-20.02
-22.20
-25.04
-28.51
-32.35
-36.13
-39.29
-41.20
-41.28
-39.21
-35.03
-29.26
-22.71
-16.27
-10.62
-6.08
-2.60
0.12
2.46
4.68
6.94
9.21
11.39
13.32
14.87
15.97
16.64
17.03
17.35
17.81
18.54
19.58
20.81
22.08
23.20
24.00
24.35
24.14
23.32
21.96
20.22
18.36
16.65
15.22
14.03
12.93
11.75
10.38
8.86
7.29
5.77
4.38
3.13
2.00
1.01
0.18
-0.54
-1.31
-2.40
-4.05
-6.34
-9.15
-12.08
-14.64
-16.47
-17.49
-17.92
-18.30
-19.18
-20.99
-23.84
-27.48
-31.33
-34.64
-36.69
-36.95
-35.18
-31.51
-26.34
-20.29
-14.04
-8.21
-3.27
0.49
3.11
4.82
6.01
7.05
8.19
9.45
10.65
11.56
12.09
12.28
12.30
12.38
12.66
13.15
13.78
14.44
15.05
15.56
15.96
16.17
16.10
15.64
14.73
13.46
12.00
10.62
9.55
8.83
8.35
7.84
7.03
5.80
4.21
2.49
0.88
-0.46
-1.54
-2.51
-3.57
-4.88
-6.50
-8.38
-10.33
-12.12
-13.58
-14.64
-15.41
-16.21
-17.46
-19.51
-22.48
-26.08
-29.65
-32.28
-33.14
-31.73
-28.06
-22.62
-16.23
-9.73
-3.76
1.29
5.27
8.26
10.39
11.85
12.84
13.53
13.99
14.22
14.11
13.60
12.70
11.55
10.44
9.70
9.61
10.26
11.52
13.09
14.62
15.82
16.50
16.59
16.12
15.13
13.67
11.81
9.72
7.61
5.68
4.05
2.70
1.48
0.16
-1.43
-3.37
-5.57
-7.88
-10.07
-11.95
-13.41
-14.54
-15.55
-16.80
-18.65
-21.30
-24.77
-28.72
-32.59
-35.64
-37.21
-36.87
-34.52
-30.43
-25.14
-19.34
-13.69
-8.69
-4.58
-1.35
1.24
3.51
5.69
7.85
9.86
11.47
12.48
12.88
12.85
12.67
12.52
12.46
12.36
12.12
11.72
11.30
11.08
11.23
11.78
12.59
13.41
14.08
14.46
14.57
14.41
13.98
13.27
12.25
10.92
9.34
7.64
5.95
4.36
2.95
1.68
0.43
-0.90
-2.44
-4.19
-6.05
-7.88
-9.55
-11.03
-12.38
-13.81
-15.52
-17.74
-20.55
-23.84
-27.22
-30.03
-31.51
-31.03
-28.38
-23.87
-18.25
-12.44
-7.21
-2.96
0.27
2.72
4.67
6.37
7.94
9.35
10.53
11.33
11.63
11.39
10.78
10.10
9.68
9.75
10.31
11.18
12.13
12.95
13.58
13.99
14.14
13.88
13.06
11.63
9.71
7.65
5.80
4.39
3.40
2.61
1.70
0.49
-1.04
-2.67
-4.24
-5.61
-6.81
-8.00
-9.35
-11.01
-13.03
-15.49
-18.40
-21.73
-25.21
-28.31
-30.32
-30.56
-28.65
-24.70
-19.31
-13.36
-7.68
-2.84
1.00
3.92
6.10
7.74
8.97
9.93
10.75
11.53
12.28
12.91
13.31
13.48
13.50
13.55
13.82
14.33
15.01
15.74
16.42
17.08
17.73
18.33
18.73
18.74
18.18
17.05
15.49
13.76
12.11
10.63
9.26
7.86
6.28
4.51
2.67
0.97
-0.40
-1.46
-2.38
-3.46
-4.93
-6.81
-8.91
-10.88
-12.52
-13.78
-14.81
-15.88
-17.21
-18.99
-21.30
-24.09
-27.12
-29.88
-31.70
-31.87
-29.98
-26.11
-20.87
-15.17
-9.88
-5.53
-2.19
0.36
2.50
4.45
6.31
8.05
9.62
10.97
12.08
12.90
13.43
13.66
13.68
13.63
13.66
13.92
14.44
15.21
16.09
16.85
17.26
17.12
16.36
15.11
13.63
12.25
11.19
10.51
10.14
9.95
9.83
9.67
9.44
9.04
8.39
7.51
6.48
5.48
4.64
4.04
3.56
3.06
2.38
1.49
0.40
-0.85
-2.25
-3.84
-5.66
-7.72
-9.95
-12.28
-14.63
-17.04
-19.60
-22.42
-25.50
-28.62
-31.32
-32.92
-32.76
-30.46
-26.07
-20.15
-13.58
-7.36
-2.27
1.30
3.36
4.27
4.57
4.78
5.32
6.41
8.02
9.93
11.83
13.47
14.71
15.56
16.07
16.27
16.15
15.64
14.72
13.52
12.29
11.34
10.91
11.01
11.50
12.07
12.47
12.54
12.26
11.71
10.95
9.93
8.54
6.68
4.38
1.80
-0.71
-2.79
-4.17
-4.78
-4.79
-4.53
-4.39
-4.65
-5.39
-6.47
-7.58
-8.43
-8.83
-8.85
-8.71
-8.71
-9.14
-10.21
-11.99
-14.45
-17.37
-20.35
-22.76
-23.95
-23.43
-21.09
-17.30
-12.82
-8.43
-4.72
-1.96
-0.10
1.09
1.84
2.39
2.94
3.62
4.54
5.65
6.82
7.87
8.67
9.19
9.52
9.81
10.19
10.74
11.45
12.32
13.21
13.99
14.45
14.45
13.99
13.22
12.30
11.35
10.34
9.19
7.83
6.40
5.15
4.32
3.93
3.69
3.15
1.93
-0.03
-2.47
-4.94
-7.06
-8.65
-9.79
-10.65
-11.42
-12.23
-13.21
-14.52
-16.35
-18.72
-21.36
-23.66
-24.83
-24.25
-21.78
-17.77
-12.92
-8.03
-3.68
-0.16
2.52
4.51
5.99
7.14
8.07
8.83
9.40
9.73
9.76
9.47
8.95
8.36
7.88
7.61
7.53
7.55
7.65
7.83
8.18
8.80
9.65
10.53
11.18
11.33
10.92
10.09
9.11
8.30
7.79
7.49
7.18
6.62
5.68
4.42
2.97
1.50
0.13
-1.12
-2.31
-3.48
-4.72
-6.05
-7.47
-8.84
-10.02
-10.84
-11.27
-11.43
-11.66
-12.33
-13.70
-15.78
-18.32
-20.88
-22.89
-23.86
-23.43
-21.44
-18.06
-13.72
-9.08
-4.83
-1.49
0.78
2.15
2.96
3.58
4.19
4.81
5.43
6.02
6.65
7.43
8.32
9.18
9.81
10.07
9.97
9.66
9.36
9.24
9.36
9.63
9.91
10.08
10.07
9.85
9.46
8.90
8.17
7.28
6.29
5.23
4.22
3.30
2.52
1.84
1.23
0.62
-0.02
-0.74
-1.54
-2.39
-3.27
-4.15
-5.06
-6.05
-7.20
-8.55
-10.07
-11.63
-13.12
-14.54
-16.00
-17.71
-19.81
-22.21
-24.47
-25.94
-25.93
-24.12
-20.66
-16.16
-11.49
-7.45
-4.47
-2.56
-1.37
-0.42
0.70
2.19
4.03
6.05
8.02
9.77
11.16
12.13
12.69
12.90
12.85
12.64
12.36
12.08
11.79
11.52
11.23
10.94
10.61
10.25
9.81
9.30
8.73
8.11
7.48
6.84
6.17
5.50
4.89
4.39
4.01
3.67
3.19
2.33
1.03
-0.70
-2.64
-4.51
-6.12
-7.36
-8.31
-9.09
-9.88
-10.80
-12.05
-13.80
-16.14
-18.99
-21.93
-24.28
-25.31
-24.49
-21.78
-17.66
-12.98
-8.60
-5.11
-2.65
-0.98
0.32
1.59
2.96
4.35
5.58
6.51
7.12
7.49
7.74
7.96
8.18
8.39
8.62
8.91
9.32
9.85
10.41
10.85
11.03
10.84
10.26
9.34
8.15
6.77
5.36
4.07
3.07
2.42
2.01
1.59
0.87
-0.35
-2.01
-3.87
-5.58
-6.87
-7.65
-8.09
-8.52
-9.31
-10.72
-12.82
-15.40
-18.08
-20.36
-21.75
-21.91
-20.65
-18.02
-14.31
-10.00
-5.71
-1.98
0.84
2.70
3.86
4.69
5.57
6.61
7.74
8.70
9.28
9.43
9.27
9.06
8.97
9.07
9.26
9.39
9.42
9.37
9.39
9.61
10.04
10.53
10.80
10.67
10.11
9.28
8.48
7.95
7.78
7.78
7.64
7.04
5.86
4.22
2.49
1.06
0.20
-0.15
-0.30
-0.69
-1.66
-3.32
-5.47
-7.71
-9.67
-11.11
-12.07
-12.83
-13.86
-15.58
-18.22
-21.69
-25.48
-28.80
-30.77
-30.74
-28.51
-24.36
-19.01
-13.27
-7.87
-3.25
0.42
3.16
5.09
6.37
7.26
7.99
8.82
9.88
11.13
12.34
13.23
13.61
13.49
13.13
12.87
13.01
13.62
14.61
15.74
16.77
17.52
17.90
17.83
17.29
16.29
14.93
13.43
12.01
10.87
10.06
9.48
8.97
8.44
7.91
7.46
7.10
6.70
6.06
5.02
3.53
1.75
-0.07
-1.70
-3.06
-4.21
-5.35
-6.64
-8.17
-9.86
-11.58
-13.15
-14.51
-15.71
-16.90
-18.37
-20.31
-22.74
-25.42
-27.84
-29.37
-29.44
-27.78
-24.50
-19.99
-14.84
-9.63
-4.83
-0.72
2.60
5.13
7.00
8.36
9.37
10.26
11.14
12.10
13.14
14.16
15.06
15.74
16.12
16.22
16.13
15.97
15.83
15.78
15.78
15.73
15.53
15.10
14.41
13.57
12.66
11.79
10.99
10.27
9.59
8.96
8.41
7.88
7.27
6.44
5.30
3.87
2.29
0.79
-0.48
-1.51
-2.40
-3.35
-4.47
-5.80
-7.23
-8.64
-9.94
-11.07
-12.05
-12.98
-13.98
-15.19
-16.78
-18.78
-21.11
-23.42
-25.20
-25.85
-24.88
-22.15
-17.94
-12.85
-7.66
-3.08
0.46
2.88
4.36
5.25
5.89
6.58
7.52
8.79
10.35
12.02
13.55
14.67
15.24
15.26
14.89
14.37
13.89
13.57
13.46
13.54
13.81
14.22
14.68
15.01
15.02
14.60
13.69
12.45
11.06
9.71
8.49
7.37
6.27
5.08
3.82
2.55
1.42
0.54
-0.06
-0.44
-0.77
-1.28
-2.14
-3.42
-5.06
-6.87
-8.64
-10.19
-11.50
-12.67
-13.89
-15.38
-17.25
-19.51
-21.95
-24.20
-25.75
-26.06
-24.80
-21.92
-17.75
-12.86
-7.91
-3.44
0.23
3.04
5.05
6.39
7.22
7.71
8.12
8.63
9.36
10.27
11.20
11.96
12.46
12.74
12.91
13.07
13.24
13.41
13.53
13.58
13.59
13.55
13.44
13.15
12.58
11.63
10.31
8.67
6.80
4.81
2.85
1.06
-0.40
-1.43
-2.01
-2.28
-2.39
-2.54
-2.82
-3.25
-3.85
-4.61
-5.54
-6.65
-7.88
-9.08
-10.08
-10.81
-11.34
-11.92
-12.85
-14.39
-16.59
-19.23
-21.80
-23.64
-24.14
-22.89
-19.92
-15.68
-10.94
-6.54
-3.10
-0.85
0.38
1.00
1.45
1.99
2.71
3.52
4.32
5.02
5.65
6.26
6.93
7.70
8.55
9.40
10.14
10.66
10.90
10.83
10.44
9.73
8.69
7.30
5.64
3.87
2.25
1.07
0.51
0.58
1.14
1.95
2.74
3.36
3.68
3.62
3.08
2.01
0.45
-1.42
-3.26
-4.76
-5.77
-6.43
-7.09
-8.18
-10.02
-12.64
-15.72
-18.68
-20.81
-21.55
-20.60
-18.03
-14.24
-9.88
-5.62
-2.02
0.63
2.33
3.32
4.00
4.74
5.74
6.99
8.29
9.39
10.08
10.31
10.18
9.88
9.58
9.36
9.30
9.46
9.90
10.65
11.64
12.67
13.49
13.87
13.70
13.01
11.98
10.77
9.52
8.34
7.28
6.36
5.56
4.79
3.89
2.77
1.43
0.02
-1.23
-2.15
-2.71
-3.09
-3.52
-4.24
-5.30
-6.57
-7.91
-9.14
-10.21
-11.16
-12.11
-13.24
-14.74
-16.83
-19.57
-22.83
-26.11
-28.71
-29.85
-29.02
-26.13
-21.61
-16.23
-10.85
-6.13
-2.41
0.25
2.02
3.13
3.82
4.32
4.83
5.49
6.40
7.54
8.79
9.97
10.89
11.45
11.67
11.70
11.75
12.05
12.68
13.58
14.54
15.33
15.83
16.00
15.96
15.78
15.54
15.19
14.67
13.96
13.08
12.07
10.92
9.59
8.00
6.24
4.47
2.97
1.92
1.30
0.91
0.35
-0.65
-2.20
-4.17
-6.30
-8.29
-9.97
-11.25
-12.19
-12.91
-13.60
-14.47
-15.74
-17.56
-19.91
-22.55
-25.03
-26.77
-27.23
-26.08
-23.31
-19.25
-14.47
-9.62
-5.25
-1.74
0.82
2.54
3.72
4.65
5.60
6.71
7.96
9.23
10.35
11.15
11.56
11.60
11.37
11.07
10.89
10.99
11.45
12.21
13.13
13.96
14.48
14.49
14.00
13.11
12.04
11.00
10.14
9.43
8.75
7.91
6.82
5.49
4.09
2.84
1.86
1.14
0.54
-0.15
-1.02
-2.09
-3.27
-4.45
-5.59
-6.72
-7.93
-9.30
-10.95
-12.98
-15.44
-18.35
-21.53
-24.55
-26.84
-27.77
-26.94
-24.31
-20.27
-15.46
-10.63
-6.31
-2.80
-0.14
1.81
3.26
4.39
5.34
6.16
6.85
7.40
7.81
8.16
8.55
9.08
9.82
10.74
11.78
12.81
13.76
14.59
15.25
15.68
15.81
15.55
14.85
13.71
12.18
10.33
8.27
6.08
3.88
1.77
-0.21
-2.05
-3.80
-5.51
-7.19
-8.80
-10.28
-11.62
-12.94
-14.44
-16.37
-18.87
-21.89
-25.09
-27.94
-29.83
-30.24
-28.87
-25.76
-21.22
-15.81
-10.24
-5.15
-1.00
2.07
4.23
5.88
7.43
9.10
10.89
12.58
13.96
14.88
15.37
15.53
15.47
15.27
14.95
14.55
14.19
13.96
13.92
14.02
14.11
13.97
13.48
12.58
11.38
10.00
8.61
7.30
6.11
5.07
4.17
3.41
2.77
2.18
1.49
0.54
-0.83
-2.67
-4.85
-7.09
-9.11
-10.68
-11.81
-12.67
-13.59
-14.89
-16.86
-19.60
-23.09
-27.00
-30.73
-33.51
-34.54
-33.30
-29.76
-24.40
-18.14
-11.93
-6.53
-2.26
0.96
3.40
5.38
7.10
8.64
10.05
11.38
12.69
13.97
15.10
15.92
16.30
16.22
15.85
15.47
15.35
15.60
16.17
16.84
17.36
17.57
17.35
16.71
15.73
14.48
13.05
11.53
10.02
8.60
7.35
6.27
5.32
4.46
3.62
2.77
1.92
1.08
0.22
-0.74
-1.86
-3.22
-4.80
-6.49
-8.16
-9.69
-11.06
-12.33
-13.67
-15.23
-17.18
-19.62
-22.58
-25.95
-29.43
-32.49
-34.48
-34.76
-32.97
-29.21
-23.98
-18.08
-12.33
-7.30
-3.21
-0.03
2.47
4.52
6.31
8.00
9.68
11.40
13.13
14.75
16.13
17.11
17.69
17.94
18.07
18.30
18.75
19.45
20.27
21.03
21.53
21.65
21.32
20.57
19.46
18.07
16.55
15.05
13.69
12.60
11.74
11.00
10.18
9.14
7.82
6.29
4.67
3.15
1.84
0.78
-0.09
-0.93
-1.98
-3.41
-5.32
-7.60
-10.00
-12.25
-14.22
-15.97
-17.79
-20.03
-22.94
-26.49
-30.31
-33.77
-36.06
-36.48
-34.63
-30.55
-24.74
-17.97
-11.18
-5.11
-0.24
3.31
5.67
7.15
8.11
8.91
9.81
10.96
12.33
13.75
14.99
15.92
16.55
17.03
17.54
18.25
19.15
20.12
20.92
21.37
21.36
20.86
19.98
18.83
17.53
16.14
14.69
13.14
11.49
9.77
8.05
6.43
5.01
3.87
2.92
2.02
0.91
-0.61
-2.68
-5.19
-7.87
-10.35
-12.29
-13.62
-14.47
-15.21
-16.25
-17.92
-20.33
-23.36
-26.64
-29.65
-31.74
-32.33
-30.98
-27.63
-22.60
-16.55
-10.28
-4.54
0.22
3.83
6.43
8.26
9.61
10.73
11.74
12.67
13.45
14.03
14.38
14.57
14.75
15.04
15.52
16.08
16.54
16.75
16.61
16.14
15.45
14.60
13.65
12.54
11.24
9.69
7.93
6.09
4.32
2.74
1.45
0.41
-0.50
-1.43
-2.47
-3.65
-4.92
-6.19
-7.44
-8.71
-10.04
-11.44
-12.91
-14.49
-16.32
-18.67
-21.72
-25.41
-29.29
-32.59
-34.40
-34.04
-31.30
-26.53
-20.50
-14.11
-8.15
-3.11
0.77
3.56
5.48
6.87
8.09
9.44
11.05
12.85
14.59
16.03
16.99
17.52
17.76
17.87
17.93
17.92
17.81
17.66
17.62
17.81
18.18
18.56
18.61
18.12
17.10
15.76
14.39
13.18
12.13
11.07
9.83
8.38
6.83
5.41
4.27
3.37
2.51
1.41
-0.16
-2.27
-4.76
-7.32
-9.70
-11.73
-13.42
-14.91
-16.43
-18.18
-20.35
-23.08
-26.43
-30.27
-34.17
-37.46
-39.29
-38.99
-36.30
-31.47
-25.22
-18.47
-12.11
-6.76
-2.68
0.20
2.21
3.80
5.42
7.34
9.57
11.92
14.08
15.77
16.91
17.57
17.94
18.21
18.49
18.87
19.37
20.01
20.76
21.56
22.21
22.45
22.08
21.06
19.54
17.84
16.30
15.18
14.53
14.19
13.90
13.42
12.61
11.44
9.99
8.40
6.83
5.41
4.20
3.11
1.94
0.44
-1.59
-4.12
-6.86
-9.46
-11.59
-13.14
-14.24
-15.21
-16.42
-18.13
-20.49
-23.48
-26.94
-30.46
-33.46
-35.24
-35.20
-33.06
-28.92
-23.35
-17.13
-11.05
-5.72
-1.50
1.59
3.71
5.17
6.26
7.25
8.31
9.47
10.66
11.79
12.78
13.62
14.38
15.14
15.94
16.74
17.48
18.08
18.49
18.74
18.82
18.71
18.30
17.50
16.25
14.60
12.73
10.89
9.26
7.99
7.07
6.49
6.15
5.96
5.78
5.39
4.56
3.15
1.16
-1.25
-3.81
-6.24
-8.37
-10.22
-11.92
-13.69
-15.76
-18.33
-21.44
-25.01
-28.68
-31.85
-33.79
-33.85
-31.66
-27.33
-21.44
-14.83
-8.43
-2.91
1.43
4.60
6.88
8.56
9.90
11.07
12.11
13.01
13.73
14.23
14.51
14.63
14.66
14.70
14.81
15.03
15.35
15.76
16.18
16.55
16.74
16.67
16.24
15.42
14.26
12.85
11.34
9.86
8.48
7.26
6.17
5.23
4.44
3.81
3.31
2.82
2.14
1.00
-0.76
-3.19
-6.11
-9.19
-12.03
-14.30
-15.87
-16.85
-17.59
-18.53
-20.11
-22.57
-25.76
-29.18
-32.04
-33.46
-32.78
-29.84
-24.96
-18.92
-12.68
-7.05
-2.54
0.76
3.06
4.78
6.27
7.80
9.48
11.26
13.03
14.66
16.02
17.03
17.64
17.85
17.75
17.49
17.21
17.02
17.01
17.17
17.50
17.92
18.32
18.53
18.36
17.72
16.63
15.29
13.95
12.82
11.93
11.18
10.35
9.30
7.99
6.55
5.11
3.80
2.64
1.58
0.52
-0.64
-1.98
-3.58
-5.53
-7.83
-10.41
-13.11
-15.73
-18.06
-20.01
-21.63
-23.17
-24.96
-27.31
-30.34
-33.80
-37.08
-39.31
-39.70
-37.72
-33.42
-27.34
-20.39
-13.49
-7.41
-2.52
1.09
3.63
5.40
6.76
8.01
9.37
10.92
12.58
14.15
15.43
16.31
16.84
17.16
17.41
17.69
18.04
18.42
18.84
19.32
19.83
20.29
20.54
20.41
19.78
18.64
17.09
15.31
13.54
11.98
10.77
9.94
9.36
8.80
8.01
6.84
5.35
3.71
2.17
0.88
-0.22
-1.32
-2.67
-4.38
-6.40
-8.55
-10.59
-12.36
-13.85
-15.18
-16.53
-18.13
-20.17
-22.76
-25.92
-29.47
-32.99
-35.81
-37.21
-36.55
-33.59
-28.53
-22.05
-15.09
-8.54
-3.06
1.06
3.92
5.82
7.14
8.18
9.10
9.97
10.79
11.56
12.24
12.78
13.08
13.13
13.00
12.86
12.90
13.26
13.94
14.75
15.45
15.78
15.62
14.96
13.88
12.51
10.98
9.42
7.94
6.61
5.45
4.42
3.44
2.44
1.35
0.17
-1.09
-2.45
-3.97
-5.64
-7.42
-9.18
-10.77
-12.13
-13.32
-14.51
-15.95
-17.87
-20.36
-23.32
-26.46
-29.28
-31.20
-31.61
-30.11
-26.61
-21.43
-15.25
-8.97
-3.44
0.76
3.50
5.04
5.94
6.75
7.87
9.39
11.15
12.83
14.19
15.17
15.87
16.51
17.23
18.05
18.88
19.61
20.18
20.62
21.02
21.36
21.53
21.28
20.41
18.87
16.81
14.59
12.58
11.03
9.95
9.17
8.43
7.46
6.17
4.61
2.95
1.37
0.01
-1.10
-2.07
-3.09
-4.38
-6.06
-8.13
-10.42
-12.70
-14.72
-16.36
-17.62
-18.71
-19.92
-21.56
-23.94
-27.11
-30.87
-34.65
-37.62
-38.95
-38.03
-34.77
-29.59
-23.34
-16.99
-11.34
-6.85
-3.55
-1.19
0.59
2.12
3.59
5.04
6.43
7.72
8.85
9.81
10.58
11.12
11.35
11.21
10.75
10.11
9.57
9.34
9.61
10.31
11.28
12.26
13.01
13.45
13.62
13.73
13.97
14.52
15.40
16.51
17.62
18.55
19.12
19.28
19.00
18.28
17.15
15.69
14.01
12.31
10.75
9.42
8.30
7.32
6.36
5.41
4.46
3.56
2.74
1.94
1.04
-0.11
-1.60
-3.49
-5.68
-8.07
-10.50
-12.88
-15.18
-17.41
-19.67
-22.01
-24.52
-27.28
-30.32
-33.53
-36.56
-38.80
-39.50
-38.04
-34.19
-28.24
-21.03
-13.60
-6.93
-1.66
2.01
4.25
5.48
6.17
6.79
7.63
8.81
10.29
11.86
13.30
14.46
15.29
15.84
16.18
16.41
16.62
16.86
17.20
17.63
18.03
18.18
17.84
16.89
15.39
13.58
11.71
10.01
8.50
7.12
5.81
4.56
3.42
2.45
1.62
0.79
-0.18
-1.45
-3.04
-4.91
-6.90
-8.89
-10.77
-12.51
-14.09
-15.60
-17.14
-18.91
-21.08
-23.78
-26.99
-30.36
-33.27
-34.92
-34.57
-31.83
-26.85
-20.31
-13.15
-6.31
-0.47
4.10
7.46
9.88
11.62
12.91
13.90
14.63
15.15
15.42
15.46
15.30
15.01
14.72
14.56
14.59
14.82
15.18
15.60
16.01
16.35
16.54
16.51
16.16
15.47
14.46
13.23
11.93
10.69
9.55
8.47
7.34
6.07
4.62
3.02
1.32
-0.39
-2.09
-3.81
-5.60
-7.52
-9.58
-11.75
-13.95
-16.09
-18.07
-19.95
-21.92
-24.24
-27.21
-30.86
-34.93
-38.80
-41.64
-42.63
-41.26
-37.48
-31.74
-24.85
-17.70
-11.08
-5.45
-0.98
2.42
4.96
6.91
8.50
9.90
11.22
12.52
13.76
14.90
15.85
16.58
17.07
17.40
17.67
17.99
18.48
19.17
20.05
21.00
21.86
22.47
22.68
22.46
21.82
20.86
19.70
18.48
17.32
16.30
15.38
14.43
13.28
11.76
9.85
7.64
5.34
3.10
1.02
-0.97
-2.95
-5.05
-7.29
-9.63
-11.96
-14.14
-16.04
-17.60
-18.84
-19.92
-21.15
-22.96
-25.72
-29.57
-34.22
-38.89
-42.54
-44.10
-42.96
-39.09
-33.12
-26.02
-18.81
-12.25
-6.73
-2.28
1.29
4.25
6.89
9.45
12.04
14.60
16.89
18.59
19.45
19.47
18.90
18.18
17.71
17.69
18.11
18.79
19.57
20.39
21.29
22.30
23.35
24.17
24.46
23.98
22.67
20.70
18.35
15.90
13.50
11.18
8.89
6.59
4.28
2.00
-0.26
-2.48
-4.66
-6.75
-8.67
-10.35
-11.83
-13.29
-15.01
-17.28
-20.32
-24.13
-28.49
-33.01
-37.10
-40.10
-41.37
-40.45
-37.28
-32.24
-26.08
-19.65
-13.64
-8.36
-3.80
0.20
3.78
6.92
9.52
11.49
12.83
13.65
14.06
14.11
13.82
13.24
12.54
11.99
11.92
12.49
13.67
15.24
16.82
18.01
18.50
18.09
16.79
14.74
12.18
9.40
6.61
3.95
1.44
-0.98
-3.34
-5.65
-7.85
-9.88
-11.69
-13.40
-15.21
-17.42
-20.30
-23.98
-28.32
-32.86
-36.85
-39.38
-39.68
-37.38
-32.64
-26.17
-18.97
-12.01
-6.03
-1.31
2.29
5.16
7.72
10.29
12.96
15.66
18.24
20.50
22.38
23.84
24.97
25.86
26.60
27.23
27.77
28.22
28.61
29.03
29.52
30.06
30.50
30.58
30.06
28.78
26.83
24.48
22.14
20.14
18.68
17.71
17.01
16.27
15.21
13.70
11.71
9.43
7.11
5.00
3.24
1.76
0.28
-1.55
-3.98
-7.01
-10.36
-13.60
-16.38
-18.58
-20.39
-22.24
-24.62
-27.88
-32.13
-37.20
-42.62
-47.64
-51.32
-52.71
-51.10
-46.34
-38.94
-29.97
-20.78
-12.54
-5.96
-1.12
2.42
5.30
8.11
11.17
14.50
17.85
20.93
23.47
25.41
26.80
27.80
28.59
29.25
29.79
30.23
30.62
31.05
31.59
32.20
32.71
32.86
32.37
31.10
29.09
26.55
23.83
21.25
19.04
17.29
15.94
14.82
13.74
12.55
11.17
9.66
8.15
6.77
5.56
4.47
3.36
2.08
0.51
-1.37
-3.54
-5.91
-8.36
-10.78
-13.05
-15.08
-16.91
-18.65
-20.59
-23.04
-26.24
-30.26
-34.79
-39.18
-42.52
-43.90
-42.74
-38.93
-32.97
-25.69
-18.08
-10.90
-4.65
0.52
4.66
7.90
10.47
12.59
14.49
16.31
18.11
19.79
21.18
22.10
22.49
22.46
22.24
22.07
22.17
22.65
23.44
24.43
25.41
26.20
26.63
26.55
25.88
24.63
22.91
20.99
19.16
17.67
16.60
15.78
14.92
13.70
11.96
9.82
7.59
5.63
4.20
3.29
2.68
2.03
0.98
-0.63
-2.81
-5.38
-8.04
-10.52
-12.61
-14.30
-15.76
-17.32
-19.37
-22.21
-25.87
-30.10
-34.28
-37.56
-39.08
-38.20
-34.72
-28.99
-21.82
-14.25
-7.27
-1.58
2.57
5.30
6.99
8.10
9.02
10.02
11.18
12.43
13.65
14.66
15.35
15.69
15.79
15.76
15.78
15.96
16.32
16.86
17.49
18.06
18.41
18.36
17.76
16.59
14.94
13.11
11.39
10.01
9.05
8.35
7.66
6.75
5.50
4.02
2.53
1.23
0.21
-0.61
-1.40
-2.36
-3.62
-5.22
-7.10
-9.15
-11.22
-13.20
-15.07
-16.92
-18.94
-21.35
-24.29
-27.74
-31.39
-34.71
-37.00
-37.58
-36.04
-32.35
-26.96
-20.68
-14.46
-9.04
-4.79
-1.69
0.58
2.35
3.90
5.39
6.86
8.37
9.90
11.40
12.74
13.74
14.31
14.48
14.45
14.44
14.62
15.06
15.67
16.34
16.93
17.38
17.64
17.69
17.46
16.85
15.82
14.37
12.64
10.85
9.21
7.88
6.86
6.03
5.23
4.35
3.40
2.45
1.61
0.92
0.31
-0.33
-1.17
-2.28
-3.76
-5.65
-8.02
-10.87
-14.07
-17.33
-20.22
-22.36
-23.58
-24.06
-24.27
-24.79
-26.04
-28.06
-30.45
-32.48
-33.37
-32.47
-29.57
-24.93
-19.20
-13.20
-7.67
-3.09
0.37
2.83
4.53
5.72
6.62
7.43
8.30
9.35
10.58
11.88
13.01
13.76
13.98
13.74
13.26
12.87
12.82
13.24
14.08
15.11
16.06
16.63
16.67
16.13
15.09
13.73
12.29
10.94
9.84
9.04
8.51
8.13
7.74
7.15
6.23
4.94
3.39
1.74
0.19
-1.16
-2.37
-3.62
-5.15
-7.14
-9.55
-12.18
-14.67
-16.66
-17.96
-18.61
-18.85
-19.08
-19.74
-21.14
-23.39
-26.27
-29.28
-31.71
-32.78
-31.90
-28.80
-23.69
-17.24
-10.38
-4.13
0.81
4.07
5.77
6.35
6.35
6.24
6.31
6.60
7.05
7.59
8.17
8.76
9.34
9.82
10.13
10.25
10.26
10.23
10.26
10.41
10.64
10.88
11.01
10.87
10.30
9.20
7.56
5.52
3.34
1.32
-0.31
-1.51
-2.37
-3.12
-3.94
-4.95
-6.17
-7.58
-9.08
-10.59
-12.01
-13.27
-14.40
-15.57
-17.07
-19.14
-21.91
-25.24
-28.68
-31.59
-33.28
-33.22
-31.20
-27.43
-22.46
-16.97
-11.63
-6.92
-3.08
-0.13
2.00
3.47
4.47
5.20
5.87
6.62
7.44
8.18
8.68
8.83
8.72
8.57
8.61
8.99
9.65
10.41
11.06
11.41
11.37
10.88
9.94
8.53
6.67
4.47
2.10
-0.22
-2.35
-4.27
-6.05
-7.81
-9.61
-11.40
-13.08
-14.53
-15.76
-16.95
-18.41
-20.44
-23.13
-26.30
-29.38
-31.62
-32.25
-30.81
-27.30
-22.18
-16.28
-10.49
-5.49
-1.59
1.29
3.48
5.35
7.13
8.91
10.63
12.18
13.50
14.58
15.45
16.16
16.77
17.29
17.73
18.09
18.37
18.62
18.91
19.26
19.66
19.99
20.11
19.86
19.15
18.01
16.57
14.98
13.41
11.91
10.48
9.03
7.49
5.84
4.14
2.51
1.00
-0.40
-1.77
-3.26
-4.98
-7.00
-9.25
-11.63
-14.00
-16.22
-18.21
-20.04
-21.91
-24.12
-26.95
-30.46
-34.38
-38.04
-40.56
-41.10
-39.17
-34.85
-28.69
-21.60
-14.52
-8.22
-3.08
0.85
3.76
6.00
7.97
9.97
12.13
14.45
16.73
18.74
20.27
21.24
21.76
22.02
22.24
22.55
22.94
23.39
23.83
24.25
24.66
25.01
25.22
25.08
24.40
23.08
21.23
19.11
17.04
15.30
14.00
13.06
12.31
11.56
10.72
9.78
8.80
7.78
6.69
5.48
4.11
2.65
1.19
-0.16
-1.41
-2.68
-4.16
-5.99
-8.13
-10.42
-12.60
-14.44
-15.90
-17.10
-18.36
-20.05
-22.46
-25.66
-29.44
-33.32
-36.60
-38.56
-38.62
-36.46
-32.23
-26.40
-19.75
-13.10
-7.16
-2.33
1.28
3.84
5.69
7.16
8.52
9.90
11.35
12.85
14.37
15.86
17.23
18.41
19.32
19.97
20.42
20.84
21.42
22.23
23.19
24.04
24.44
24.14
23.08
21.39
19.40
17.41
15.61
14.07
12.74
11.51
10.32
9.16
7.99
6.83
5.68
4.57
3.53
2.56
1.64
0.63
-0.62
-2.25
-4.29
-6.64
-9.05
-11.23
-12.98
-14.26
-15.25
-16.32
-17.85
-20.17
-23.33
-27.07
-30.82
-33.80
-35.21
-34.48
-31.43
-26.37
-20.02
-13.32
-7.11
-1.95
1.98
4.81
6.83
8.36
9.63
10.72
11.66
12.46
13.12
13.65
14.07
14.37
14.58
14.78
15.05
15.48
16.11
16.89
17.64
18.14
18.20
17.71
16.70
15.32
13.77
12.25
10.87
9.71
8.73
7.86
7.01
6.09
5.02
3.75
2.29
0.63
-1.19
-3.15
-5.25
-7.42
-9.56
-11.57
-13.40
-15.10
-16.87
-18.98
-21.65
-24.92
-28.54
-31.97
-34.49
-35.44
-34.36
-31.22
-26.36
-20.38
-14.00
-7.89
-2.58
1.65
4.75
6.91
8.48
9.89
11.41
13.13
14.92
16.51
17.69
18.38
18.65
18.65
18.52
18.32
18.12
18.01
18.11
18.51
19.13
19.76
20.07
19.82
18.93
17.55
15.93
14.32
12.85
11.50
10.20
8.87
7.48
6.01
4.47
2.88
1.27
-0.29
-1.68
-2.82
-3.68
-4.37
-5.10
-6.15
-7.69
-9.72
-12.05
-14.36
-16.39
-18.05
-19.44
-20.88
-22.70
-25.10
-28.06
-31.24
-34.09
-35.93
-36.15
-34.36
-30.58
-25.23
-19.04
-12.82
-7.27
-2.74
0.72
3.31
5.35
7.06
8.61
10.04
11.35
12.52
13.54
14.42
15.20
15.88
16.41
16.81
17.04
17.12
17.11
17.05
16.98
16.88
16.75
16.49
16.08
15.47
14.69
13.83
12.95
12.13
11.43
10.83
10.26
9.62
8.82
7.79
6.56
5.22
3.95
2.86
1.97
1.14
0.12
-1.36
-3.42
-5.98
-8.73
-11.28
-13.31
-14.69
-15.53
-16.13
-16.86
-18.09
-20.07
-22.88
-26.38
-30.21
-33.74
-36.22
-36.94
-35.43
-31.66
-26.08
-19.52
-12.94
-7.20
-2.76
0.32
2.40
3.95
5.39
6.95
8.65
10.34
11.91
13.28
14.43
15.35
16.00
16.35
16.40
16.26
16.13
16.25
16.76
17.62
18.65
19.52
19.91
19.60
18.54
16.86
14.83
12.77
10.96
9.55
8.53
7.75
7.01
6.17
5.19
4.15
3.17
2.33
1.59
0.80
-0.19
-1.53
-3.26
-5.32
-7.56
-9.82
-11.94
-13.79
-15.38
-16.84
-18.46
-20.53
-23.28
-26.58
-29.93
-32.56
-33.60
-32.45
-28.98
-23.58
-17.05
-10.32
-4.24
0.66
4.20
6.51
7.91
8.71
9.16
9.36
9.35
9.16
8.88
8.67
8.68
8.99
9.60
10.42
11.36
12.35
13.31
14.18
14.84
15.19
15.17
14.81
14.26
13.68
13.15
12.70
12.23
11.60
10.72
9.57
8.20
6.73
5.26
3.84
2.45
1.04
-0.45
-2.05
-3.81
-5.72
-7.73
-9.75
-11.70
-13.50
-15.18
-16.83
-18.66
-20.87
-23.60
-26.84
-30.39
-33.76
-36.30
-37.29
-36.18
-32.81
-27.49
-20.92
-14.05
-7.68
-2.38
1.66
4.54
6.51
7.90
8.98
10.00
11.13
12.44
13.88
15.30
16.50
17.35
17.77
17.82
17.64
17.37
17.18
17.18
17.42
17.84
18.30
18.60
18.49
17.81
16.47
14.50
12.10
9.49
6.92
4.60
2.61
0.98
-0.40
-1.70
-3.13
-4.84
-6.88
-9.15
-11.40
-13.37
-14.89
-16.01
-16.97
-18.14
-19.83
-22.24
-25.27
-28.54
-31.45
-33.27
-33.36
-31.31
-27.13
-21.30
-14.66
-8.14
-2.53
1.72
4.57
6.28
7.30
8.10
9.01
10.17
11.50
12.78
13.71
14.11
14.00
13.56
13.08
12.73
12.56
12.44
12.27
11.97
11.60
11.19
10.77
10.23
9.41
8.23
6.67
4.88
3.02
1.27
-0.29
-1.67
-2.92
-4.12
-5.41
-6.99
-9.08
-11.85
-15.33
-19.32
-23.35
-26.78
-28.96
-29.41
-27.95
-24.77
-20.34
-15.28
-10.18
-5.51
-1.57
1.52
3.78
5.30
6.30
6.99
7.62
8.34
9.22
10.20
11.16
11.98
12.59
12.95
13.10
13.08
12.93
12.75
12.62
12.58
12.57
12.36
11.64
10.14
7.77
4.72
1.41
-1.69
-4.19
-5.99
-7.24
-8.33
-9.72
-11.79
-14.73
-18.47
-22.59
-26.44
-29.19
-30.10
-28.77
-25.26
-20.12
-14.23
-8.48
-3.56
0.25
3.01
5.02
6.61
8.03
9.34
10.48
11.33
11.77
11.82
11.55
11.12
10.70
10.42
10.36
10.49
10.73
10.94
10.97
10.68
9.97
8.76
7.07
4.96
2.67
0.44
-1.50
-3.07
-4.41
-5.86
-7.85
-10.71
-14.44
-18.67
-22.67
-25.60
-26.72
-25.62
-22.37
-17.44
-11.63
-5.78
-0.58
3.54
6.50
8.49
9.82
10.75
11.45
11.96
12.30
12.54
12.80
13.20
13.77
14.45
15.16
15.86
16.60
17.48
18.56
19.70
20.61
20.95
20.48
19.15
17.19
14.93
12.64
10.48
8.42
6.33
4.10
1.69
-0.80
-3.19
-5.32
-7.09
-8.47
-9.62
-10.75
-12.16
-14.13
-16.91
-20.68
-25.40
-30.70
-35.83
-39.79
-41.54
-40.39
-36.25
-29.71
-21.85
-13.88
-6.76
-0.94
3.57
7.07
9.92
12.42
14.71
16.81
18.70
20.37
21.79
22.94
23.82
24.46
24.93
25.33
25.78
26.34
26.97
27.57
28.01
28.16
27.96
27.42
26.54
25.37
23.93
22.33
20.67
19.09
17.64
16.31
14.96
13.46
11.74
9.84
7.93
6.15
4.55
3.03
1.36
-0.65
-3.11
-5.97
-9.02
-11.99
-14.64
-16.84
-18.61
-20.16
-21.87
-24.15
-27.35
-31.47
-36.09
-40.39
-43.30
-43.85
-41.55
-36.54
-29.56
-21.70
-14.05
-7.41
-2.11
1.90
4.94
7.44
9.81
12.32
15.09
18.02
20.85
23.21
24.80
25.54
25.57
25.22
24.81
24.57
24.57
24.76
25.09
25.51
26.00
26.43
26.59
26.25
25.23
23.54
21.44
19.29
17.45
16.12
15.24
14.55
13.74
12.57
10.95
9.02
7.04
5.22
3.67
2.30
0.90
-0.77
-2.81
-5.18
-7.65
-9.98
-12.00
-13.65
-15.00
-16.18
-17.36
-18.74
-20.51
-22.85
-25.81
-29.16
-32.39
-34.76
-35.48
-33.99
-30.17
-24.45
-17.64
-10.74
-4.63
0.19
3.56
5.72
7.06
8.02
8.90
9.82
10.78
11.70
12.50
13.16
13.73
14.24
14.76
15.25
15.66
15.92
16.01
15.94
15.80
15.62
15.41
15.09
14.55
13.72
12.55
11.11
9.47
7.79
6.14
4.62
3.20
1.82
0.38
-1.18
-2.84
-4.53
-6.12
-7.52
-8.72
-9.80
-10.91
-12.16
-13.61
-15.27
-17.13
-19.21
-21.51
-23.93
-26.20
-27.82
-28.22
-26.91
-23.69
-18.80
-12.86
-6.75
-1.24
3.18
6.36
8.49
9.85
10.75
11.37
11.84
12.23
12.61
13.02
13.47
13.91
14.23
14.40
14.39
14.26
14.09
13.96
13.90
13.89
13.90
13.81
13.50
12.84
11.77
10.34
8.69
6.99
5.38
3.96
2.71
1.64
0.73
-0.02
-0.66
-1.25
-1.95
-2.88
-4.11
-5.63
-7.34
-9.07
-10.71
-12.21
-13.59
-14.91
-16.30
-17.89
-19.84
-22.26
-25.13
-28.20
-30.93
-32.59
-32.48
-30.17
-25.75
-19.81
-13.31
-7.24
-2.34
1.16
3.41
4.83
5.89
6.88
7.91
8.95
9.88
10.63
11.17
11.51
11.67
11.72
11.69
11.68
11.78
12.05
12.49
13.06
13.62
14.00
14.07
13.71
12.89
11.68
10.24
8.75
7.35
6.09
4.94
3.84
2.72
1.61
0.54
-0.44
-1.33
-2.21
-3.20
-4.40
-5.81
-7.36
-8.92
-10.35
-11.58
-12.58
-13.41
-14.21
-15.18
-16.53
-18.45
-20.97
-23.90
-26.80
-28.96
-29.67
-28.43
-25.17
-20.31
-14.64
-9.08
-4.30
-0.65
1.89
3.59
4.77
5.69
6.50
7.26
7.98
8.65
9.23
9.68
10.02
10.28
10.55
10.89
11.32
11.78
12.18
12.38
12.32
11.94
11.28
10.41
9.46
8.52
7.66
6.87
6.06
5.14
4.07
2.87
1.63
0.50
-0.44
-1.18
-1.77
-2.34
-3.01
-3.90
-5.10
-6.63
-8.43
-10.31
-12.07
-13.54
-14.74
-15.88
-17.27
-19.19
-21.68
-24.45
-26.95
-28.45
-28.34
-26.34
-22.57
-17.56
-12.08
-6.89
-2.54
0.70
2.88
4.23
5.06
5.64
6.14
6.65
7.18
7.69
8.05
8.17
8.03
7.72
7.37
7.16
7.21
7.51
8.00
8.53
8.98
9.26
9.29
8.98
8.30
7.21
5.79
4.16
2.53
1.09
-0.04
-0.89
-1.60
-2.43
-3.61
-5.23
-7.18
-9.20
-10.97
-12.30
-13.18
-13.85
-14.65
-15.90
-17.81
-20.36
-23.38
-26.47
-29.14
-30.79
-30.89
-29.07
-25.34
-20.06
-13.95
-7.86
-2.52
1.61
4.46
6.22
7.25
7.91
8.48
9.16
10.03
11.08
12.18
13.18
13.90
14.25
14.28
14.16
14.11
14.30
14.78
15.43
16.04
16.39
16.30
15.73
14.69
13.32
11.84
10.48
9.47
8.90
8.68
8.55
8.19
7.35
5.99
4.31
2.65
1.29
0.27
-0.64
-1.86
-3.76
-6.51
-9.93
-13.58
-16.93
-19.62
-21.60
-23.15
-24.77
-26.93
-29.80
-33.21
-36.61
-39.24
-40.41
-39.64
-36.83
-32.19
-26.24
-19.59
-12.91
-6.79
-1.66
2.28
5.11
7.11
8.65
10.05
11.43
12.76
13.91
14.79
15.40
15.81
16.14
16.45
16.78
17.13
17.55
18.11
18.86
19.77
20.69
21.41
21.73
21.56
20.93
19.94
18.71
17.30
15.73
14.03
12.25
10.47
8.76
7.13
5.57
4.00
2.39
0.73
-0.95
-2.62
-4.30
-6.04
-7.84
-9.66
-11.33
-12.67
-13.57
-14.13
-14.65
-15.56
-17.24
-19.90
-23.42
-27.42
-31.29
-34.33
-35.85
-35.32
-32.55
-27.75
-21.61
-15.06
-9.03
-4.14
-0.51
2.08
4.08
5.84
7.53
9.12
10.55
11.75
12.74
13.57
14.29
14.91
15.42
15.87
16.30
16.80
17.38
17.98
18.47
18.73
18.70
18.40
17.95
17.43
16.86
16.10
15.04
13.53
11.62
9.46
7.28
5.31
3.61
2.14
0.73
-0.77
-2.46
-4.34
-6.35
-8.38
-10.36
-12.25
-14.08
-15.90
-17.82
-19.98
-22.55
-25.60
-28.98
-32.27
-34.74
-35.55
-34.07
-30.09
-24.04
-16.86
-9.67
-3.47
1.22
4.39
6.39
7.72
8.75
9.66
10.43
10.98
11.35
11.70
12.22
13.04
14.16
15.42
16.63
17.65
18.44
19.08
19.55
19.80
19.72
19.21
18.29
17.05
15.65
14.17
12.58
10.80
8.79
6.63
4.49
2.53
0.81
-0.75
-2.36
-4.20
-6.32
-8.58
-10.75
-12.66
-14.25
-15.68
-17.20
-19.15
-21.76
-25.12
-29.17
-33.60
-37.89
-41.27
-42.95
-42.23
-38.87
-33.16
-25.92
-18.26
-11.24
-5.53
-1.31
1.67
3.91
5.86
7.85
10.00
12.26
14.49
16.56
18.32
19.73
20.78
21.57
22.22
22.85
23.52
24.28
25.09
25.95
26.77
27.48
27.92
27.94
27.45
26.42
24.97
23.27
21.52
19.85
18.33
16.95
15.65
14.31
12.85
11.20
9.35
7.42
5.60
4.06
2.88
1.92
0.93
-0.41
-2.29
-4.73
-7.58
-10.61
-13.59
-16.39
-19.01
-21.51
-24.02
-26.75
-29.91
-33.67
-38.06
-42.81
-47.28
-50.52
-51.54
-49.62
-44.67
-37.29
-28.60
-19.91
-12.24
-6.09
-1.38
2.31
5.50
8.53
11.54
14.48
17.27
19.82
22.12
24.13
25.81
27.11
28.00
28.52
28.79
29.01
29.32
29.81
30.49
31.31
32.13
32.81
33.18
33.15
32.61
31.59
30.15
28.45
26.61
24.71
22.77
20.77
18.74
16.74
14.93
13.38
12.10
10.95
9.74
8.27
6.47
4.44
2.34
0.35
-1.53
-3.41
-5.55
-8.11
-11.13
-14.47
-17.87
-21.12
-24.16
-27.06
-29.99
-33.07
-36.22
-39.21
-41.60
-42.88
-42.56
-40.28
-35.96
-29.86
-22.58
-14.98
-7.94
-2.16
2.05
4.75
6.35
7.36
8.18
9.04
10.01
11.06
12.17
13.38
14.71
16.18
17.69
19.10
20.25
21.10
21.74
22.30
22.90
23.51
23.97
24.07
23.67
22.84
21.82
20.92
20.38
20.23
20.21
20.02
19.35
18.11
16.43
14.56
12.74
11.12
9.69
8.27
6.71
4.85
2.69
0.31
-2.17
-4.65
-7.12
-9.68
-12.49
-15.76
-19.67
-24.31
-29.53
-34.93
-39.74
-43.02
-43.87
-41.80
-36.90
-29.89
-21.95
-14.26
-7.72
-2.68
0.98
3.62
5.67
7.45
9.14
10.87
12.71
14.70
16.75
18.70
20.27
21.27
21.58
21.33
20.83
20.43
20.43
20.93
21.80
22.72
23.35
23.38
22.70
21.36
19.57
17.59
15.65
13.85
12.19
10.59
8.97
7.31
5.66
4.12
2.71
1.38
0.04
-1.45
-3.18
-5.15
-7.34
-9.67
-12.01
-14.19
-15.96
-17.12
-17.69
-17.95
-18.47
-19.90
-22.69
-26.80
-31.60
-35.99
-38.74
-38.90
-36.16
-30.89
-23.98
-16.57
-9.64
-3.80
0.73
4.08
6.55
8.41
9.90
11.17
12.37
13.54
14.70
15.80
16.76
17.49
17.97
18.18
18.14
17.93
17.64
17.43
17.44
17.78
18.40
19.10
19.59
19.62
19.10
18.14
16.96
15.78
14.70
13.74
12.79
11.79
10.69
9.43
7.96
6.27
4.42
2.61
1.12
0.16
-0.22
-0.23
-0.28
-0.82
-2.14
-4.31
-7.11
-10.15
-13.04
-15.50
-17.44
-19.02
-20.50
-22.21
-24.41
-27.23
-30.52
-33.89
-36.66
-38.03
-37.32
-34.22
-28.97
-22.32
-15.31
-8.96
-3.94
-0.52
1.55
2.68
3.41
4.10
4.92
5.84
6.74
7.52
8.14
8.67
9.25
9.99
10.91
11.99
13.12
14.21
15.15
15.84
16.23
16.22
15.81
14.96
13.73
12.20
10.46
8.69
7.05
5.64
4.43
3.26
1.89
0.10
-2.16
-4.77
-7.49
-9.99
-12.07
-13.66
-14.87
-15.91
-17.07
-18.57
-20.59
-23.14
-26.03
-28.82
-30.85
-31.40
-29.98
-26.47
-21.22
-15.02
-8.82
-3.47
0.53
3.15
4.71
5.75
6.80
8.19
9.93
11.80
13.45
14.59
15.17
15.31
15.27
15.29
15.46
15.73
15.98
16.18
16.35
16.58
16.90
17.20
17.29
16.98
16.13
14.76
13.01
11.06
9.10
7.27
5.68
4.34
3.27
2.37
1.58
0.79
-0.04
-0.92
-1.81
-2.73
-3.75
-5.02
-6.67
-8.77
-11.23
-13.83
-16.23
-18.17
-19.52
-20.45
-21.28
-22.50
-24.51
-27.44
-31.03
-34.60
-37.21
-37.92
-36.09
-31.70
-25.37
-18.16
-11.28
-5.65
-1.70
0.70
2.05
2.99
4.02
5.41
7.17
9.17
11.21
13.14
14.86
16.31
17.49
18.37
18.92
19.15
19.11
18.90
18.65
18.49
18.47
18.53
18.54
18.35
17.86
17.06
16.00
14.81
13.61
12.47
11.40
10.37
9.27
8.02
6.54
4.87
3.08
1.37
-0.06
-1.02
-1.42
-1.32
-0.92
-0.56
-0.56
-1.19
-2.51
-4.37
-6.48
-8.53
-10.32
-11.78
-13.06
-14.34
-15.84
-17.75
-20.23
-23.36
-26.99
-30.73
-33.85
-35.51
-34.97
-31.98
-26.87
-20.53
-14.05
-8.39
-4.07
-1.13
0.76
1.99
2.96
3.88
4.94
6.18
7.59
9.08
10.45
11.52
12.16
12.40
12.36
12.27
12.32
12.63
13.17
13.80
14.33
14.58
14.47
14.02
13.34
12.54
11.67
10.68
9.47
7.95
6.11
4.08
2.03
0.15
-1.45
-2.75
-3.77
-4.60
-5.34
-6.12
-7.02
-8.13
-9.43
-10.88
-12.42
-14.05
-15.86
-18.03
-20.67
-23.78
-27.07
-30.01
-31.86
-31.93
-29.83
-25.62
-19.88
-13.46
-7.27
-1.99
2.08
4.95
6.88
8.13
8.94
9.44
9.70
9.77
9.73
9.64
9.58
9.59
9.74
10.10
10.70
11.53
12.53
13.53
14.38
14.95
15.16
15.02
14.52
13.67
12.42
10.72
8.60
6.25
3.96
2.01
0.56
-0.45
-1.23
-2.04
-3.00
-4.12
-5.26
-6.30
-7.20
-8.02
-8.90
-9.95
-11.32
-13.14
-15.57
-18.75
-22.67
-27.03
-31.19
-34.23
-35.29
-33.85
-29.99
-24.40
-18.15
-12.32
-7.60
-4.18
-1.78
0.10
1.90
3.88
6.07
8.32
10.44
12.23
13.53
14.26
14.46
14.28
13.95
13.71
13.71
13.99
14.43
14.83
14.96
14.67
13.97
12.97
11.83
10.74
9.77
8.92
8.14
7.39
6.66
6.03
5.54
5.23
5.07
4.94
4.69
4.17
3.23
1.80
-0.15
-2.57
-5.38
-8.46
-11.64
-14.75
-17.63
-20.09
-22.06
-23.58
-24.84
-26.10
-27.48
-28.84
-29.70
-29.36
-27.23
-23.13
-17.49
-11.24
-5.46
-1.01
1.78
3.15
3.69
4.01
4.52
5.35
6.38
7.46
8.48
9.43
10.34
11.23
12.03
12.66
13.06
13.30
13.54
13.96
14.73
15.83
17.07
18.18
18.85
18.90
18.29
17.10
15.47
13.55
11.47
9.30
7.14
5.10
3.27
1.72
0.44
-0.68
-1.80
-3.07
-4.61
-6.42
-8.39
-10.39
-12.29
-14.03
-15.69
-17.46
-19.61
-22.37
-25.73
-29.33
-32.48
-34.29
-33.98
-31.17
-26.08
-19.41
-12.21
-5.46
0.12
4.20
6.83
8.29
8.96
9.23
9.41
9.65
9.97
10.28
10.44
10.41
10.26
10.20
10.42
11.01
11.83
12.58
12.95
12.77
12.09
11.17
10.28
9.57
8.95
8.14
6.89
5.09
2.81
0.30
-2.17
-4.41
-6.35
-8.02
-9.52
-10.97
-12.55
-14.48
-16.99
-20.16
-23.84
-27.51
-30.42
-31.76
-30.92
-27.74
-22.55
-16.09
-9.29
-3.02
2.16
6.08
8.88
10.97
12.72
14.40
16.06
17.58
18.82
19.68
20.20
20.52
20.77
21.00
21.18
21.29
21.36
21.54
21.93
22.56
23.26
23.72
23.60
22.75
21.26
19.42
17.61
16.10
14.96
14.05
13.16
12.09
10.79
9.28
7.66
6.03
4.41
2.87
1.38
-0.03
-1.43
-2.91
-4.62
-6.66
-9.01
-11.54
-14.05
-16.32
-18.24
-19.84
-21.32
-22.99
-25.20
-28.19
-31.86
-35.75
-39.01
-40.62
-39.73
-36.00
-29.78
-22.01
-13.95
-6.72
-1.04
2.94
5.54
7.30
8.74
10.16
11.67
13.22
14.72
16.11
17.35
18.43
19.33
20.05
20.67
21.28
21.98
22.77
23.61
24.37
24.95
25.30
25.45
25.45
25.27
24.83
24.02
22.79
21.24
19.52
17.88
16.46
15.30
14.29
13.23
11.99
10.47
8.71
6.84
4.98
3.25
1.66
0.15
-1.38
-2.97
-4.62
-6.24
-7.72
-9.01
-10.15
-11.27
-12.59
-14.31
-16.54
-19.27
-22.35
-25.59
-28.73
-31.52
-33.64
-34.71
-34.30
-32.10
-28.04
-22.43
-15.94
-9.44
-3.70
0.79
3.99
6.19
7.79
9.16
10.51
11.88
13.25
14.56
15.79
16.91
17.89
18.65
19.17
19.43
19.49
19.43
19.35
19.31
19.27
19.13
18.76
18.10
17.10
15.88
14.60
13.45
12.56
11.96
11.57
11.25
10.82
10.15
9.19
7.99
6.64
5.28
4.05
2.97
1.98
0.90
-0.50
-2.35
-4.66
-7.22
-9.73
-11.86
-13.45
-14.54
-15.38
-16.36
-17.79
-19.84
-22.46
-25.33
-27.89
-29.45
-29.40
-27.41
-23.57
-18.40
-12.65
-7.13
-2.41
1.21
3.76
5.45
6.51
7.17
7.58
7.85
8.09
8.39
8.79
9.28
9.80
10.24
10.54
10.72
10.84
10.98
11.18
11.46
11.70
11.78
11.61
11.16
10.49
9.72
8.92
8.13
7.32
6.42
5.42
4.36
3.37
2.50
1.77
1.09
0.28
-0.79
-2.17
-3.81
-5.57
-7.26
-8.75
-9.95
-10.86
-11.55
-12.16
-12.88
-13.91
-15.40
-17.40
-19.76
-22.12
-23.95
-24.67
-23.81
-21.21
-17.04
-11.90
-6.58
-1.83
1.84
4.31
5.82
6.78
7.51
8.15
8.62
8.79
8.59
8.12
7.57
7.12
6.82
6.58
6.25
5.76
5.19
4.73
4.55
4.68
5.00
5.28
5.28
4.91
4.16
3.09
1.80
0.39
-1.01
-2.29
-3.34
-4.14
-4.76
-5.36
-6.10
-7.04
-8.18
-9.34
-10.42
-11.35
-12.23
-13.21
-14.48
-16.14
-18.19
-20.46
-22.63
-24.26
-24.90
-24.13
-21.82
-18.13
-13.48
-8.54
-3.92
-0.11
2.74
4.69
5.93
6.70
7.20
7.52
7.73
7.89
8.05
8.27
8.57
8.99
9.48
10.03
10.62
11.25
11.94
12.69
13.45
14.03
14.25
13.87
12.82
11.17
9.18
7.18
5.45
4.13
3.19
2.51
1.96
1.45
0.88
0.20
-0.65
-1.70
-2.83
-3.88
-4.74
-5.39
-6.03
-6.93
-8.31
-10.15
-12.17
-13.97
-15.26
-15.96
-16.31
-16.71
-17.49
-18.82
-20.67
-22.82
-24.98
-26.78
-27.77
-27.52
-25.68
-22.17
-17.32
-11.79
-6.42
-1.94
1.24
3.12
4.01
4.39
4.64
4.99
5.48
6.07
6.69
7.37
8.14
9.04
9.95
10.73
11.19
11.33
11.28
11.30
11.56
12.10
12.76
13.30
13.53
13.37
12.87
12.09
11.09
9.92
8.68
7.54
6.64
6.04
5.65
5.27
4.72
3.94
3.02
2.11
1.29
0.56
-0.16
-0.97
-1.90
-2.96
-4.17
-5.58
-7.26
-9.20
-11.34
-13.54
-15.65
-17.66
-19.68
-21.96
-24.66
-27.81
-31.17
-34.19
-36.19
-36.51
-34.75
-30.92
-25.47
-19.19
-12.91
-7.35
-2.91
0.36
2.64
4.23
5.43
6.46
7.40
8.27
9.05
9.75
10.42
11.13
11.92
12.77
13.60
14.33
14.91
15.40
15.93
16.57
17.31
17.98
18.35
18.21
17.52
16.38
15.02
13.71
12.63
11.82
11.17
10.51
9.67
8.53
7.11
5.47
3.76
2.11
0.66
-0.57
-1.61
-2.66
-3.90
-5.54
-7.64
-10.04
-12.46
-14.56
-16.15
-17.28
-18.25
-19.49
-21.37
-24.04
-27.34
-30.82
-33.84
-35.73
-35.88
-33.97
-30.01
-24.40
-17.86
-11.25
-5.31
-0.57
2.84
5.08
6.50
7.46
8.21
8.87
9.41
9.80
10.06
10.29
10.65
11.30
12.22
13.30
14.28
14.98
15.38
15.60
15.85
16.24
16.69
16.98
16.88
16.30
15.34
14.23
13.18
12.20
11.14
9.78
8.02
5.94
3.78
1.79
0.02
-1.64
-3.38
-5.32
-7.40
-9.44
-11.21
-12.64
-13.90
-15.29
-17.19
-19.84
-23.37
-27.62
-32.19
-36.45
-39.60
-40.85
-39.63
-35.79
-29.79
-22.49
-15.00
-8.26
-2.82
1.24
4.22
6.56
8.61
10.47
12.08
13.30
14.06
14.41
14.54
14.69
14.99
15.50
16.18
16.97
17.79
18.55
19.19
19.67
19.95
20.03
19.91
19.57
18.94
17.92
16.42
14.44
12.10
9.58
7.08
4.69
2.39
0.05
-2.44
-5.16
-8.01
-10.82
-13.45
-15.80
-17.90
-19.92
-22.11
-24.79
-28.26
-32.68
-37.91
-43.38
-48.16
-51.09
-51.24
-48.21
-42.29
-34.38
-25.64
-17.15
-9.68
-3.62
0.97
4.24
6.48
8.09
9.52
11.10
12.95
14.99
16.97
18.64
19.92
20.87
21.69
22.56
23.63
24.95
26.52
28.24
29.91
31.25
31.95
31.80
30.80
29.17
27.28
25.45
23.90
22.63
21.49
20.29
18.85
17.11
15.06
12.80
10.44
8.10
5.84
3.61
1.31
-1.24
-4.16
-7.49
-11.14
-14.93
-18.57
-21.89
-24.85
-27.67
-30.72
-34.47
-39.23
-44.89
-50.83
-55.99
-59.15
-59.29
-55.96
-49.39
-40.38
-30.09
-19.69
-10.14
-2.08
4.23
8.83
12.06
14.40
16.42
18.54
20.96
23.60
26.15
28.26
29.72
30.50
30.78
30.86
31.00
31.39
32.06
32.99
34.07
35.17
36.09
36.63
36.57
35.76
34.18
31.95
29.37
26.79
24.52
22.75
21.46
20.49
19.58
18.48
17.03
15.22
13.15
10.95
8.78
6.72
4.75
2.82
0.80
-1.42
-3.94
-6.84
-10.07
-13.51
-16.93
-20.11
-22.90
-25.36
-27.74
-30.42
-33.78
-37.93
-42.64
-47.27
-50.89
-52.54
-51.43
-47.25
-40.22
-31.12
-21.05
-11.24
-2.70
3.96
8.64
11.70
13.76
15.47
17.30
19.44
21.75
23.98
25.82
27.10
27.81
28.09
28.11
28.08
28.12
28.37
28.90
29.77
30.89
32.07
33.01
33.39
32.99
31.82
30.05
27.97
25.86
23.90
22.17
20.66
19.28
17.89
16.37
14.63
12.66
10.53
8.34
6.21
4.15
2.13
0.02
-2.27
-4.77
-7.43
-10.14
-12.78
-15.31
-17.70
-19.96
-22.17
-24.48
-27.12
-30.34
-34.26
-38.71
-43.14
-46.61
-48.01
-46.47
-41.70
-34.18
-25.05
-15.74
-7.50
-1.01
3.62
6.76
8.93
10.54
11.86
12.97
13.93
14.80
15.69
16.61
17.56
18.48
19.32
20.05
20.73
21.40
22.09
22.81
23.47
23.95
24.14
23.92
23.22
22.02
20.37
18.33
16.02
13.54
11.08
8.82
6.91
5.44
4.29
3.20
1.82
-0.16
-2.83
-6.04
-9.41
-12.50
-15.01
-16.91
-18.45
-20.10
-22.38
-25.68
-30.03
-35.07
-40.04
-43.92
-45.69
-44.59
-40.40
-33.52
-24.93
-15.86
-7.49
-0.65
4.37
7.72
9.88
11.42
12.81
14.32
16.07
18.00
19.96
21.77
23.22
24.17
24.60
24.61
24.47
24.45
24.71
25.27
25.92
26.37
26.38
25.81
24.72
23.27
21.64
19.94
18.19
16.41
14.60
12.81
11.07
9.34
7.55
5.61
3.53
1.41
-0.58
-2.32
-3.91
-5.59
-7.68
-10.40
-13.73
-17.41
-21.02
-24.24
-26.92
-29.17
-31.29
-33.71
-36.77
-40.60
-44.94
-49.05
-51.85
-52.21
-49.37
-43.27
-34.65
-24.83
-15.23
-6.94
-0.47
4.18
7.37
9.58
11.26
12.72
14.21
15.86
17.69
19.56
21.31
22.79
23.91
24.72
25.34
25.91
26.50
27.17
27.89
28.58
29.12
29.34
29.11
28.32
26.98
25.22
23.22
21.18
19.24
17.48
15.90
14.48
13.12
11.69
10.11
8.32
6.40
4.48
2.75
1.28
0.08
-0.99
-2.14
-3.55
-5.34
-7.54
-10.07
-12.77
-15.48
-18.02
-20.24
-22.13
-23.82
-25.56
-27.74
-30.64
-34.37
-38.70
-42.96
-46.17
-47.25
-45.40
-40.39
-32.74
-23.58
-14.30
-6.09
0.37
5.00
8.17
10.40
12.18
13.79
15.36
16.90
18.38
19.77
20.98
21.96
22.69
23.14
23.38
23.51
23.63
23.85
24.22
24.73
25.30
25.81
26.07
25.93
25.28
24.10
22.45
20.52
18.50
16.60
14.96
13.57
12.36
11.15
9.81
8.26
6.55
4.78
3.11
1.67
0.52
-0.38
-1.15
-1.98
-3.09
-4.62
-6.56
-8.79
-11.08
-13.22
-15.10
-16.74
-18.27
-19.90
-21.87
-24.39
-27.55
-31.23
-34.98
-38.00
-39.37
-38.31
-34.53
-28.38
-20.78
-12.91
-5.80
-0.11
3.99
6.65
8.18
8.91
9.13
9.12
9.13
9.34
9.81
10.46
11.14
11.73
12.21
12.70
13.37
14.34
15.53
16.71
17.57
17.83
17.40
16.40
15.07
13.68
12.44
11.40
10.52
9.70
8.81
7.76
6.50
5.00
3.29
1.41
-0.57
-2.58
-4.59
-6.63
-8.73
-10.88
-12.97
-14.84
-16.31
-17.34
-18.10
-18.99
-20.43
-22.71
-25.77
-29.11
-31.93
-33.36
-32.77
-29.91
-25.08
-18.96
-12.43
-6.37
-1.39
2.26
4.69
6.24
7.32
8.27
9.24
10.24
11.18
11.95
12.54
13.00
13.41
13.82
14.24
14.63
15.01
15.41
15.90
16.49
17.11
17.57
17.65
17.20
16.20
14.78
13.19
11.67
10.42
9.47
8.76
8.13
7.45
6.57
5.42
4.02
2.45
0.85
-0.69
-2.11
-3.46
-4.86
-6.47
-8.38
-10.58
-12.90
-15.11
-16.97
-18.37
-19.36
-20.17
-21.13
-22.52
-24.50
-27.08
-29.98
-32.74
-34.68
-35.11
-33.49
-29.68
-24.05
-17.37
-10.65
-4.80
-0.37
2.56
4.23
5.10
5.58
5.97
6.42
7.02
7.79
8.77
9.91
11.11
12.22
13.08
13.62
13.88
14.00
14.17
14.48
14.93
15.40
15.69
15.66
15.20
14.32
13.07
11.55
9.87
8.14
6.49
5.00
3.70
2.54
1.47
0.41
-0.64
-1.60
-2.40
-2.99
-3.45
-3.97
-4.81
-6.17
-8.09
-10.43
-12.89
-15.12
-16.80
-17.88
-18.50
-19.03
-19.97
-21.70
-24.28
-27.37
-30.21
-31.88
-31.62
-29.10
-24.58
-18.82
-12.78
-7.29
-2.91
0.18
2.12
3.18
3.68
3.87
4.02
4.30
4.85
5.69
6.75
7.88
8.87
9.58
9.95
10.08
10.14
10.36
10.88
11.73
12.82
13.96
14.92
15.47
15.41
14.65
13.23
11.31
9.14
7.01
5.05
3.27
1.55
-0.25
-2.23
-4.32
-6.32
-8.03
-9.34
-10.30
-11.11
-12.09
-13.49
-15.47
-18.02
-20.95
-23.97
-26.62
-28.41
-28.86
-27.65
-24.74
-20.46
-15.46
-10.50
-6.20
-2.87
-0.45
1.37
2.87
4.24
5.45
6.41
7.04
7.39
7.58
7.76
8.06
8.49
9.05
9.70
10.40
11.13
11.82
12.36
12.61
12.47
11.90
10.95
9.76
8.42
6.95
5.25
3.21
0.80
-1.85
-4.47
-6.72
-8.42
-9.63
-10.65
-11.88
-13.65
-16.08
-19.10
-22.42
-25.62
-28.15
-29.44
-28.97
-26.47
-22.09
-16.38
-10.19
-4.37
0.46
4.10
6.68
8.52
9.96
11.28
12.59
13.88
15.04
15.93
16.47
16.64
16.56
16.43
16.40
16.57
16.92
17.39
17.94
18.55
19.18
19.73
19.98
19.74
18.93
17.67
16.27
15.04
14.16
13.55
12.94
12.00
10.57
8.75
6.77
4.93
3.35
1.91
0.39
-1.43
-3.60
-5.95
-8.22
-10.22
-11.89
-13.31
-14.65
-16.08
-17.72
-19.71
-22.23
-25.38
-29.01
-32.59
-35.26
-36.07
-34.36
-30.06
-23.81
-16.64
-9.71
-3.86
0.52
3.51
5.44
6.74
7.74
8.69
9.70
10.82
12.07
13.40
14.73
15.94
16.89
17.43
17.55
17.35
17.08
17.01
17.29
17.87
18.51
18.88
18.68
17.86
16.53
14.93
13.36
12.07
11.18
10.69
10.49
10.39
10.16
9.61
8.71
7.55
6.33
5.24
4.36
3.61
2.83
1.86
0.56
-1.04
-2.82
-4.63
-6.32
-7.79
-9.06
-10.21
-11.44
-13.00
-15.12
-17.92
-21.31
-24.88
-28.01
-29.96
-30.10
-28.13
-24.24
-18.94
-13.04
-7.28
-2.30
1.55
4.17
5.71
6.48
6.87
7.26
7.90
8.86
10.02
11.12
11.92
12.32
12.39
12.30
12.25
12.33
12.51
12.70
12.82
12.88
12.94
13.09
13.30
13.48
13.40
12.91
11.95
10.61
9.13
7.75
6.60
5.70
4.94
4.14
3.18
2.01
0.76
-0.39
-1.28
-1.87
-2.27
-2.76
-3.58
-4.85
-6.47
-8.15
-9.57
-10.54
-11.05
-11.34
-11.71
-12.47
-13.79
-15.70
-18.05
-20.54
-22.75
-24.17
-24.36
-23.02
-20.12
-16.00
-11.20
-6.44
-2.35
0.66
2.52
3.39
3.61
3.56
3.56
3.76
4.25
5.01
6.00
7.11
8.20
9.04
9.47
9.45
9.14
8.85
8.88
9.37
10.17
10.96
11.38
11.21
10.51
9.49
8.39
7.39
6.50
5.64
4.74
3.77
2.70
1.55
0.29
-1.06
-2.46
-3.86
-5.18
-6.40
-7.52
-8.61
-9.71
-10.82
-11.90
-12.89
-13.75
-14.53
-15.38
-16.48
-18.00
-19.95
-22.16
-24.25
-25.67
-25.84
-24.38
-21.21
-16.68
-11.44
-6.28
-1.87
1.40
3.48
4.58
5.08
5.31
5.53
5.89
6.43
7.12
7.87
8.62
9.26
9.76
10.09
10.27
10.35
10.43
10.62
11.01
11.64
12.44
13.24
13.77
13.81
13.22
12.00
10.33
8.43
6.55
4.92
3.64
2.73
2.12
1.67
1.21
0.61
-0.18
-1.18
-2.32
-3.51
-4.72
-5.94
-7.20
-8.52
-9.86
-11.15
-12.26
-13.09
-13.65
-14.07
-14.55
-15.36
-16.70
-18.70
-21.32
-24.34
-27.33
-29.70
-30.75
-29.93
-27.00
-22.27
-16.46
-10.56
-5.46
-1.69
0.74
2.14
2.97
3.61
4.25
4.94
5.65
6.41
7.21
8.01
8.75
9.31
9.67
9.90
10.19
10.70
11.50
12.53
13.61
14.51
15.07
15.20
14.88
14.09
12.84
11.18
9.27
7.36
5.76
4.70
4.20
4.04
3.85
3.32
2.33
0.97
-0.45
-1.69
-2.60
-3.26
-3.85
-4.58
-5.59
-6.91
-8.46
-10.15
-11.83
-13.45
-15.01
-16.61
-18.41
-20.59
-23.29
-26.51
-30.08
-33.63
-36.64
-38.46
-38.55
-36.57
-32.54
-26.91
-20.47
-14.08
-8.52
-4.21
-1.19
0.78
2.10
3.15
4.22
5.47
7.03
9.00
11.40
14.15
17.00
19.59
21.59
22.81
23.28
23.29
23.14
23.09
23.16
23.17
22.90
22.20
21.07
19.65
18.07
16.42
14.71
12.96
11.26
9.82
8.81
8.27
8.04
7.82
7.33
6.44
5.19
3.75
2.22
0.59
-1.26
-3.46
-6.00
-8.70
-11.24
-13.33
-14.86
-16.03
-17.23
-18.97
-21.63
-25.29
-29.68
-34.22
-38.07
-40.43
-40.66
-38.46
-34.01
-27.84
-20.75
-13.60
-7.13
-1.81
2.18
4.92
6.57
7.40
7.68
7.67
7.65
7.85
8.40
9.35
10.64
12.15
13.74
15.30
16.80
18.22
19.56
20.80
21.82
22.49
22.68
22.33
21.51
20.30
18.84
17.17
15.33
13.33
11.25
9.21
7.34
5.72
4.36
3.13
1.85
0.34
-1.57
-3.91
-6.66
-9.68
-12.75
-15.67
-18.31
-20.70
-23.00
-25.51
-28.53
-32.25
-36.60
-41.19
-45.31
-47.97
-48.24
-45.50
-39.72
-31.57
-22.24
-13.06
-5.13
1.01
5.33
8.24
10.22
11.70
12.95
14.09
15.22
16.40
17.65
18.89
20.02
20.90
21.48
21.83
22.13
22.59
23.38
24.55
25.97
27.41
28.57
29.16
28.97
28.00
26.35
24.30
22.17
20.18
18.41
16.78
15.13
13.31
11.31
9.22
7.16
5.25
3.45
1.63
-0.43
-2.90
-5.82
-9.13
-12.64
-16.08
-19.28
-22.12
-24.68
-27.22
-30.14
-33.85
-38.61
-44.25
-50.21
-55.41
-58.62
-58.77
-55.33
-48.46
-39.03
-28.34
-17.71
-8.23
-0.49
5.30
9.34
12.02
13.84
15.27
16.69
18.31
20.08
21.85
23.41
24.65
25.57
26.27
26.87
27.44
28.06
28.75
29.58
30.53
31.51
32.30
32.61
32.24
31.13
29.49
27.59
25.74
24.04
22.41
20.64
18.50
15.94
13.08
10.19
7.58
5.46
3.80
2.38
0.82
-1.26
-4.09
-7.63
-11.61
-15.64
-19.32
-22.46
-25.08
-27.45
-29.99
-33.16
-37.28
-42.38
-47.99
-53.21
-56.80
-57.56
-54.73
-48.35
-39.21
-28.67
-18.15
-8.76
-1.08
4.84
9.21
12.35
14.50
15.88
16.72
17.27
17.82
18.50
19.36
20.29
21.18
21.95
22.64
23.41
24.39
25.67
27.18
28.77
30.19
31.17
31.50
31.05
29.75
27.67
24.98
21.98
18.98
16.25
13.93
11.99
10.27
8.55
6.61
4.32
1.62
-1.51
-4.96
-8.55
-12.02
-15.09
-17.62
-19.68
-21.61
-23.94
-27.22
-31.75
-37.51
-43.94
-50.07
-54.62
-56.31
-54.25
-48.24
-38.90
-27.59
-15.96
-5.51
2.83
8.77
12.64
15.03
16.53
17.59
18.46
19.23
19.96
20.69
21.44
22.27
23.21
24.27
25.39
26.53
27.64
28.72
29.78
30.81
31.71
32.31
32.45
31.97
30.80
28.93
26.44
23.42
20.06
16.63
13.39
10.52
8.03
5.73
3.29
0.44
-2.94
-6.67
-10.43
-13.90
-16.88
-19.39
-21.68
-24.10
-27.07
-30.92
-35.83
-41.73
-48.13
-54.19
-58.75
-60.59
-58.80
-53.09
-43.94
-32.52
-20.40
-9.11
0.25
7.27
12.17
15.64
18.46
21.18
24.02
26.82
29.21
30.88
31.70
31.83
31.60
31.35
31.37
31.73
32.40
33.27
34.23
35.22
36.13
36.82
37.07
36.65
35.41
33.40
30.86
28.16
25.67
23.66
22.18
21.10
20.13
18.93
17.23
14.93
12.13
9.14
6.34
4.01
2.22
0.72
-0.89
-3.01
-5.86
-9.36
-13.28
-17.28
-21.08
-24.55
-27.68
-30.63
-33.69
-37.28
-41.82
-47.51
-54.07
-60.72
-66.15
-68.93
-67.89
-62.55
-53.32
-41.39
-28.41
-16.02
-5.48
2.60
8.23
11.91
14.31
16.11
17.77
19.55
21.57
23.79
26.09
28.33
30.34
31.97
33.19
34.06
34.79
35.59
36.64
37.95
39.38
40.62
41.31
41.18
40.09
38.13
35.57
32.77
30.08
27.72
25.72
23.96
22.19
20.20
17.88
15.28
12.57
9.97
7.63
5.63
3.85
2.06
-0.02
-2.67
-6.02
-9.98
-14.27
-18.50
-22.29
-25.43
-27.98
-30.28
-32.79
-36.01
-40.23
-45.37
-50.89
-55.78
-58.76
-58.62
-54.62
-46.85
-36.25
-24.34
-12.80
-2.96
4.47
9.47
12.49
14.18
15.18
15.97
16.88
18.03
19.46
21.05
22.63
24.05
25.17
25.95
26.49
26.90
27.35
28.01
28.85
29.74
30.37
30.48
29.87
28.57
26.74
24.59
22.28
19.84
17.22
14.40
11.45
8.56
5.89
3.55
1.47
-0.52
-2.62
-4.97
-7.60
-10.41
-13.25
-15.94
-18.34
-20.41
-22.24
-24.10
-26.37
-29.44
-33.59
-38.71
-44.28
-49.31
-52.59
-52.94
-49.67
-42.83
-33.23
-22.25
-11.41
-1.97
5.43
10.72
14.25
16.50
17.95
18.90
19.55
20.09
20.60
21.17
21.79
22.42
23.01
23.53
23.99
24.44
24.89
25.32
25.69
25.92
25.94
25.67
25.04
23.98
22.39
20.24
17.54
14.47
11.28
8.33
5.84
3.83
2.12
0.36
-1.74
-4.33
-7.32
-10.51
-13.68
-16.69
-19.53
-22.28
-25.04
-27.92
-31.10
-34.84
-39.35
-44.66
-50.33
-55.47
-58.79
-59.07
-55.57
-48.35
-38.33
-26.98
-15.86
-6.18
1.40
6.89
10.66
13.32
15.43
17.42
19.52
21.74
23.95
25.91
27.42
28.40
28.96
29.30
29.64
30.13
30.83
31.69
32.62
33.50
34.19
34.50
34.21
33.13
31.21
28.58
25.53
22.43
19.55
16.99
14.67
12.39
10.04
7.60
5.17
2.93
0.96
-0.75
-2.39
-4.19
-6.36
-8.99
-12.08
-15.47
-18.93
-22.24
-25.24
-27.96
-30.63
-33.67
-37.51
-42.41
-48.17
-54.04
-58.83
-61.18
-60.03
-54.98
-46.48
-35.71
-24.20
-13.43
-4.42
2.41
7.17
10.28
12.28
13.65
14.76
15.80
16.91
18.11
19.36
20.58
21.72
22.77
23.75
24.73
25.71
26.68
27.58
28.37
28.97
29.28
29.15
28.38
26.84
24.50
21.53
18.23
14.98
12.09
9.71
7.81
6.23
4.70
2.95
0.78
-1.88
-5.00
-8.44
-11.99
-15.44
-18.66
-21.53
-24.03
-26.27
-28.51
-31.19
-34.78
-39.50
-45.09
-50.62
-54.70
-55.87
-53.18
-46.51
-36.74
-25.38
-14.09
-4.22
3.50
8.99
12.65
15.07
16.85
18.42
19.99
21.62
23.23
24.74
25.99
26.92
27.47
27.68
27.66
27.62
27.75
28.21
29.02
30.07
31.09
31.76
31.79
30.97
29.25
26.73
23.67
20.45
17.43
14.88
12.84
11.09
9.27
7.09
4.51
1.76
-0.77
-2.79
-4.30
-5.66
-7.35
-9.76
-12.92
-16.51
-20.01
-23.06
-25.58
-27.86
-30.41
-33.74
-38.16
-43.64
-49.73
-55.56
-59.98
-61.78
-60.02
-54.41
-45.38
-34.11
-22.12
-10.89
-1.46
5.70
10.66
13.88
15.95
17.43
18.74
20.14
21.66
23.19
24.56
25.60
26.24
26.51
26.57
26.57
26.65
26.92
27.41
28.09
28.85
29.50
29.79
29.50
28.49
26.80
24.60
22.20
19.88
17.80
15.98
14.31
12.57
10.57
8.24
5.64
2.95
0.39
-1.89
-3.93
-5.92
-8.17
-10.92
-14.24
-18.01
-22.01
-25.95
-29.66
-33.08
-36.23
-39.30
-42.49
-46.06
-50.23
-54.96
-59.82
-63.90
-65.96
-64.79
-59.66
-50.67
-38.77
-25.50
-12.55
-1.33
7.35
13.44
17.55
20.85
24.69
30.32
38.43
49.00
61.22
73.80
85.35
94.68
100.98
103.84
103.22
99.40
92.95
84.64
75.13
64.76
53.45
40.94
27.17
12.69
-1.28
-13.14
-21.50
-25.73
-26.16
-23.96
-20.70
-17.90
-16.59
-17.19
-19.57
-23.31
-27.96
-33.14
-38.52
-43.68
-48.07
-51.21
-52.93
-53.74
-54.74
-57.23
-61.91
-68.34
-74.81
-78.88
-78.38
-72.41
-61.74
-48.60
-35.92
-26.32
-21.46
-21.74
-26.43
-34.09
-42.97
-51.20
-57.13
-59.51
-57.75
-51.98
-42.97
-31.77
-19.23
-5.73
8.87
24.94
42.67
61.80
81.59
100.90
118.43
132.85
142.95
147.77
146.78
140.12
128.65
113.80
97.19
80.18
63.59
47.75
32.77
18.86
6.59
-3.17
-9.42
-11.47
-9.13
-2.86
6.27
16.80
27.12
35.79
41.73
44.31
43.22
38.25
29.10
15.55
-2.17
-23.01
-44.93
-65.26
-81.53
-92.28
-97.46
-98.28
-96.39
-93.11
-88.99
-83.86
-77.40
-69.71
-61.43
-53.53
-46.83
-41.57
-37.36
-33.39
-28.96
-23.77
-18.12
-12.65
-8.07
-4.83
-2.96
-2.18
-2.06
-2.27
-2.67
-3.24
-3.98
-4.81
-5.54
-5.95
-5.95
-5.60
-5.19
-5.10
-5.68
-7.11
-9.34
-12.12
-15.03
-17.71
-19.93
-21.77
-23.57
-25.83
-29.06
-33.55
-39.23
-45.60
-51.77
-56.60
-58.95
-57.96
-53.35
-45.54
-35.59
-24.93
-14.96
-6.67
-0.39
4.11
7.40
10.08
12.58
15.05
17.46
19.74
21.85
23.90
26.02
28.30
30.71
33.06
35.05
36.40
36.90
36.57
35.56
34.06
32.23
30.03
27.34
23.99
19.97
15.49
10.99
6.97
3.80
1.55
-0.03
-1.40
-3.14
-5.65
-9.20
-13.76
-19.07
-24.56
-29.41
-32.64
-33.39
-31.12
-25.91
-18.48
-10.03
-1.84
5.11
10.36
14.04
16.64
18.74
20.73
22.74
24.61
26.12
27.11
27.59
27.70
27.66
27.63
27.68
27.79
27.87
27.87
27.74
27.43
26.89
26.04
24.84
23.25
21.34
19.18
16.85
14.38
11.82
9.21
6.62
4.14
1.77
-0.61
-3.27
-6.53
-10.65
-15.68
-21.39
-27.25
-32.48
-36.23
-37.70
-36.38
-32.24
-25.76
-17.84
-9.57
-1.85
4.80
10.30
14.94
19.10
23.01
26.71
30.11
32.99
35.22
36.70
37.41
37.42
36.86
35.92
34.83
33.80
32.92
32.19
31.50
30.72
29.78
28.68
27.45
26.11
24.66
23.03
21.24
19.33
17.43
15.69
14.16
12.83
11.58
10.28
8.87
7.31
5.66
3.96
2.26
0.54
-1.23
-3.11
-5.13
-7.29
-9.51
-11.73
-13.89
-15.99
-18.08
-20.25
-22.57
-25.06
-27.74
-30.59
-33.69
-37.08
-40.68
-44.16
-46.98
-48.37
-47.67
-44.52
-39.05
-31.91
-24.04
-16.41
-9.78
-4.52
-0.58
2.37
4.76
7.02
9.40
11.95
14.57
17.10
19.36
21.30
22.89
24.11
24.98
25.48
25.63
25.55
25.41
25.38
25.55
25.82
25.93
25.59
24.52
22.70
20.27
17.57
14.94
12.65
10.81
9.42
8.38
7.56
6.83
6.08
5.17
4.00
2.53
0.86
-0.85
-2.42
-3.81
-5.14
-6.62
-8.46
-10.71
-13.23
-15.80
-18.21
-20.38
-22.36
-24.30
-26.32
-28.53
-30.96
-33.53
-36.08
-38.20
-39.33
-38.85
-36.28
-31.57
-25.16
-17.92
-10.87
-4.90
-0.44
2.49
4.21
5.16
5.72
6.15
6.59
7.13
7.82
8.72
9.80
11.00
12.20
13.27
14.07
14.58
14.81
14.85
14.85
14.85
14.86
14.78
14.37
13.47
12.02
10.12
8.00
5.95
4.13
2.60
1.28
0.01
-1.33
-2.81
-4.40
-6.06
-7.74
-9.40
-10.96
-12.34
-13.45
-14.26
-14.91
-15.69
-16.95
-18.87
-21.35
-23.95
-25.94
-26.61
-25.49
-22.56
-18.25
-13.27
-8.36
-4.10
-0.78
1.56
3.06
4.00
4.66
5.29
6.04
6.95
7.93
8.82
9.46
9.76
9.73
9.50
9.23
9.10
9.22
9.66
10.39
11.27
12.06
12.48
12.27
11.29
9.59
7.44
5.20
3.19
1.61
0.42
-0.49
-1.30
-2.13
-2.99
-3.83
-4.60
-5.29
-5.95
-6.67
-7.51
-8.50
-9.63
-10.86
-12.15
-13.46
-14.82
-16.22
-17.71
-19.31
-21.06
-22.92
-24.77
-26.37
-27.32
-27.19
-25.60
-22.45
-17.98
-12.79
-7.62
-3.15
0.24
2.54
3.99
4.90
5.51
5.96
6.27
6.46
6.57
6.62
6.61
6.55
6.44
6.29
6.16
6.10
6.16
6.38
6.76
7.30
7.90
8.41
8.65
8.51
7.94
7.09
6.19
5.46
5.01
4.78
4.62
4.30
3.70
2.83
1.79
0.75
-0.15
-0.85
-1.40
-1.94
-2.58
-3.41
-4.42
-5.58
-6.85
-8.20
-9.68
-11.33
-13.19
-15.27
-17.52
-19.79
-21.84
-23.31
-23.82
-23.08
-21.01
-17.85
-14.09
-10.31
-7.02
-4.48
-2.74
-1.64
-0.96
-0.49
-0.06
0.42
1.00
1.64
2.33
3.03
3.74
4.50
5.36
6.33
7.35
8.27
8.97
9.36
9.46
9.35
9.10
8.72
8.18
7.41
6.42
5.22
3.95
2.78
1.82
1.15
0.73
0.48
0.23
-0.19
-0.93
-2.02
-3.39
-4.88
-6.30
-7.52
-8.55
-9.49
-10.51
-11.74
-13.22
-14.90
-16.59
-18.09
-19.19
-19.70
-19.59
-18.95
-18.09
-17.39
-17.29
-18.04
-19.66
-21.93
-24.52
-27.07
-29.37
-31.33
-32.96
-34.27
-35.16
-35.43
-34.85
-33.15
-30.25
-26.31
-21.75
-17.16
-13.17
-10.25
-8.58
-8.00
-8.16
-8.72
-9.48
-10.41
-11.58
-12.97
-14.40
-15.52
-16.06
-15.92
-15.38
-14.90
-14.93
-15.51
-16.12
-15.86
-13.75
-9.16
-1.97
7.42
18.35
30.09
42.01
53.56
64.28
73.81
81.91
88.56
93.79
97.58
99.69
99.63
96.97
91.63
84.16
75.68
67.50
60.59
55.29
51.28
47.95
44.89
42.17
40.23
39.53
40.12
41.55
42.96
43.52
42.73
40.53
37.25
33.31
29.10
25.03
21.51
18.93
17.54
17.28
17.85
18.95
20.33
21.89
23.50
24.86
25.64
25.65
24.91
23.34
20.39
14.76
4.97
-9.50
-27.26
-44.91
-58.47
-65.30
-65.73
-62.78
-60.57
-62.03
-67.62
-75.71
-84.20
-91.98
-99.17
-106.07
-111.84
-114.12
-110.00
-97.88
-78.77
-56.32
-35.40
-20.05
-12.11
-10.90
-14.19
-19.46
-24.93
-29.81
-33.90
-37.03
-38.71
-38.22
-35.00
-29.07
-21.16
-12.64
-4.99
0.62
3.80
4.94
4.96
4.94
5.58
7.02
8.85
10.41
11.14
10.79
9.54
7.84
6.28
5.36
5.51
6.96
9.79
13.85
18.76
23.98
28.85
32.85
35.66
37.21
37.64
37.19
36.12
34.67
33.04
31.41
29.87
28.50
27.30
26.25
25.29
24.42
23.67
23.04
22.55
22.11
21.57
20.74
19.39
17.43
14.94
12.11
9.26
6.68
4.57
2.98
1.80
0.82
-0.21
-1.51
-3.23
-5.38
-7.91
-10.64
-13.28
-15.50
-16.90
-17.17
-16.23
-14.17
-11.31
-8.08
-4.89
-1.99
0.47
2.46
4.02
5.17
5.98
6.55
6.96
7.27
7.53
7.75
7.98
8.25
8.65
9.19
9.86
10.61
11.30
11.82
12.06
11.97
11.52
10.77
9.80
8.70
7.57
6.46
5.37
4.31
3.22
2.05
0.70
-0.90
-2.77
-4.75
-6.47
-7.50
-7.45
-6.22
-4.03
-1.37
1.16
3.11
4.33
4.91
5.15
5.30
5.49
5.68
5.74
5.55
5.11
4.57
4.11
3.93
4.07
4.42
4.75
4.85
4.60
4.03
3.29
2.50
1.69
0.78
-0.39
-1.90
-3.68
-5.50
-7.08
-8.27
-9.11
-9.75
-10.37
-10.93
-11.24
-11.00
-10.01
-8.31
-6.25
-4.31
-2.90
-2.26
-2.30
-2.80
-3.46
-4.06
-4.50
-4.81
-5.08
-5.38
-5.65
-5.80
-5.66
-5.13
-4.24
-3.18
-2.24
-1.71
-1.78
-2.42
-3.41
-4.42
-5.18
-5.60
-5.77
-5.95
-6.35
-7.06
-8.02
-9.04
-9.97
-10.69
-11.12
-11.14
-10.59
-9.32
-7.30
-4.71
-1.90
0.66
2.58
3.67
3.99
3.80
3.35
2.87
2.41
1.93
1.32
0.50
-0.48
-1.46
-2.27
-2.74
-2.84
-2.68
-2.43
-2.29
-2.33
-2.56
-2.86
-3.17
-3.49
-3.90
-4.51
-5.36
-6.41
-7.48
-8.43
-9.21
-9.92
-10.67
-11.52
-12.30
-12.68
-12.26
-10.79
-8.33
-5.22
-2.00
0.82
2.86
4.02
4.41
4.30
3.95
3.56
3.20
2.81
2.31
1.63
0.83
0.07
-0.46
-0.66
-0.55
-0.27
-0.01
0.10
0.08
0.01
0.02
0.14
0.30
0.33
0.08
-0.56
-1.49
-2.54
-3.45
-4.05
-4.24
-4.08
-3.70
-3.34
-3.22
-3.53
-4.37
-5.70
-7.32
-8.92
-10.10
-10.50
-9.88
-8.20
-5.63
-2.53
0.61
3.31
5.21
6.15
6.22
5.67
4.84
4.06
3.51
3.28
3.29
3.42
3.52
3.44
3.12
2.58
1.96
1.38
1.00
0.84
0.93
1.21
1.64
2.16
2.66
3.00
3.01
2.60
1.77
0.70
-0.40
-1.31
-1.95
-2.42
-2.92
-3.64
-4.67
-5.92
-7.21
-8.37
-9.38
-10.29
-11.23
-12.26
-13.20
-13.72
-13.43
-12.06
-9.61
-6.39
-2.89
0.36
2.95
4.70
5.61
5.82
5.56
5.05
4.49
4.04
3.80
3.77
3.91
4.08
4.17
4.10
3.92
3.78
3.81
4.08
4.52
4.99
5.34
5.48
5.43
5.24
4.89
4.35
3.59
2.60
1.53
0.51
-0.33
-1.00
-1.65
-2.39
-3.30
-4.28
-5.19
-5.94
-6.65
-7.59
-9.07
-11.23
-13.84
-16.38
-18.11
-18.44
-17.14
-14.46
-11.09
-7.87
-5.52
-4.39
-4.38
-5.07
-5.93
-6.60
-7.01
-7.38
-8.06
-9.38
-11.39
-13.87
-16.33
-18.25
-19.25
-19.29
-18.75
-18.26
-18.55
-20.12
-23.05
-26.95
-31.13
-34.83
-37.58
-39.31
-40.48
-41.98
-44.98
-50.63
-59.52
-71.11
-83.19
-92.25
-94.52
-87.52
-71.34
-48.80
-24.42
-2.69
13.34
22.68
25.91
24.48
20.00
14.20
9.01
6.34
7.45
12.20
18.90
24.95
28.25
28.39
27.02
27.28
32.42
44.57
64.03
89.46
118.36
147.80
174.61
195.41
206.92
206.66
194.21
172.31
146.76
124.79
112.34
111.38
118.98
128.62
133.32
128.77
114.78
94.50
72.04
50.31
30.06
10.72
-8.12
-25.64
-39.98
-49.44
-53.66
-53.94
-52.70
-52.29
-54.01
-57.92
-62.96
-67.43
-69.43
-67.42
-60.87
-50.72
-39.38
-29.86
-24.41
-23.50
-25.54
-27.85
-27.98
-24.83
-18.82
-11.28
-3.65
3.01
7.76
9.52
7.10
-0.23
-12.02
-26.37
-40.38
-51.30
-57.53
-59.15
-57.50
-54.56
-52.04
-50.97
-51.60
-53.70
-56.76
-60.23
-63.56
-66.24
-67.87
-68.17
-67.06
-64.60
-60.91
-56.08
-50.12
-43.09
-35.16
-26.68
-18.20
-10.45
-4.11
0.32
2.67
3.18
2.45
1.16
-0.10
-0.99
-1.51
-1.82
-2.11
-2.49
-2.88
-3.13
-3.09
-2.69
-2.00
-1.16
-0.33
0.38
0.86
1.06
0.90
0.33
-0.68
-2.03
-3.54
-4.96
-6.10
-6.90
-7.57
-8.48
-10.02
-12.37
-15.38
-18.46
-20.83
-21.74
-20.70
-17.72
-13.20
-7.79
-2.22
2.96
7.39
10.88
13.36
14.87
15.55
15.62
15.30
14.79
14.17
13.41
12.52
11.61
10.90
10.65
10.95
11.61
12.20
12.27
11.51
9.99
8.07
6.26
4.94
4.17
3.72
3.21
2.24
0.59
-1.70
-4.34
-6.85
-8.67
-9.26
-8.25
-5.56
-1.44
3.53
8.65
13.28
17.03
19.76
21.52
22.37
22.33
21.31
19.23
16.20
12.53
8.73
5.35
2.79
1.20
0.46
0.32
0.54
0.96
1.52
2.18
2.85
3.38
3.57
3.30
2.52
1.33
-0.16
-1.88
-3.87
-6.21
-8.87
-11.59
-13.86
-15.02
-14.50
-12.08
-7.99
-2.90
2.39
7.12
10.81
13.28
14.58
14.79
14.03
12.37
9.94
7.00
3.90
1.05
-1.16
-2.51
-2.97
-2.71
-2.00
-1.12
-0.24
0.61
1.51
2.54
3.65
4.64
5.18
4.91
3.55
1.06
-2.34
-6.17
-9.79
-12.54
-13.90
-13.53
-11.39
-7.69
-2.83
2.68
8.26
13.35
17.44
20.12
21.16
20.53
18.44
15.27
11.54
7.80
4.55
2.07
0.42
-0.61
-1.39
-2.26
-3.48
-5.04
-6.79
-8.50
-10.04
-11.43
-12.82
-14.44
-16.50
-19.14
-22.32
-25.82
-29.25
-32.11
-33.96
-34.60
-34.18
-33.19
-32.25
-31.93
-32.46
-33.78
-35.65
-37.91
-40.59
-43.89
-48.02
-52.99
-58.58
-64.28
-69.58
-74.09
-77.72
-80.63
-83.00
-84.90
-86.00
-85.55
-82.58
-76.23
-66.08
-52.33
-35.67
-16.98
3.01
23.94
45.60
67.86
90.33
112.37
133.16
151.81
167.44
179.18
186.18
187.82
184.01
175.42
163.50
150.05
136.54
123.62
110.80
96.86
80.37
60.50
37.54
13.00
-10.76
-31.09
-45.89
-54.15
-56.37
-54.35
-50.65
-47.72
-47.09
-48.86
-51.84
-54.10
-53.91
-50.43
-44.00
-35.85
-27.54
-20.29
-14.74
-10.86
-8.30
-6.45
-4.71
-2.40
1.02
5.79
11.53
17.17
21.11
21.71
17.93
9.83
-1.31
-13.38
-24.14
-31.96
-36.37
-38.03
-38.34
-38.75
-40.27
-43.20
-47.30
-52.20
-57.57
-63.07
-68.15
-71.85
-73.02
-70.85
-65.38
-57.59
-49.08
-41.27
-34.83
-29.40
-23.94
-17.32
-8.96
0.92
11.32
20.83
28.17
32.55
33.97
33.21
31.57
30.50
30.97
33.33
37.20
41.87
46.67
51.24
55.59
59.84
63.95
67.59
70.07
70.62
68.77
64.58
58.81
52.78
47.95
45.49
45.80
48.48
52.52
56.77
60.37
63.05
65.10
67.20
70.09
74.23
79.61
85.65
91.37
95.62
97.41
96.18
92.00
85.47
77.61
69.39
61.53
54.29
47.64
41.48
35.92
31.28
27.97
26.18
25.71
25.95
26.20
25.98
25.27
24.39
23.82
23.76
24.06
24.31
24.07
23.10
21.47
19.45
17.38
15.50
13.95
12.71
11.58
10.28
8.52
6.18
3.38
0.52
-1.93
-3.59
-4.41
-4.64
-4.71
-5.00
-5.66
-6.64
-7.71
-8.72
-9.63
-10.60
-11.85
-13.56
-15.74
-18.18
-20.53
-22.42
-23.66
-24.32
-24.70
-25.21
-26.14
-27.59
-29.44
-31.48
-33.57
-35.68
-37.87
-40.19
-42.70
-45.42
-48.34
-51.38
-54.33
-56.81
-58.34
-58.58
-57.41
-55.08
-52.13
-49.16
-46.65
-44.82
-43.64
-42.94
-42.52
-42.28
-42.19
-42.31
-42.64
-43.09
-43.47
-43.51
-43.05
-42.11
-40.92
-39.85
-39.20
-39.01
-39.05
-38.99
-38.51
-37.42
-35.66
-33.07
-29.40
-24.31
-17.63
-9.49
-0.36
9.09
18.24
26.70
34.26
40.84
46.30
50.45
53.11
54.23
53.88
52.24
49.51
45.87
41.59
37.09
32.90
29.52
27.23
25.88
25.01
24.02
22.50
20.38
17.98
15.77
14.17
13.37
13.28
13.65
14.14
14.52
14.63
14.40
13.81
12.85
11.55
9.97
8.17
6.14
3.84
1.25
-1.29
-2.98
-2.62
1.09
8.82
20.22
33.64
46.52
56.10
60.20
57.84
49.32
35.97
19.73
2.68
-13.27
-26.57
-36.15
-41.59
-43.17
-41.74
-38.57
-34.99
-32.01
-30.21
-29.59
-29.75
-30.14
-30.27
-29.88
-28.99
-27.85
-26.84
-26.21
-26.09
-26.26
-26.34
-25.85
-24.45
-22.12
-19.18
-16.17
-13.61
-11.84
-10.87
-10.48
-10.33
-10.16
-9.89
-9.56
-9.29
-9.15
-9.15
-9.21
-9.27
-9.35
-9.55
-9.98
-10.66
-11.45
-12.12
-12.40
-12.15
-11.44
-10.48
-9.55
-8.88
-8.54
-8.50
-8.68
-9.01
-9.45
-10.01
-10.69
-11.45
-12.23
-12.97
-13.58
-14.02
-14.26
-14.35
-14.39
-14.53
-14.86
-15.39
-16.05
-16.69
-17.22
-17.61
-17.89
-18.12
-18.33
-18.51
-18.65
-18.77
-18.89
-18.95
-18.74
-17.99
-16.43
-13.98
-10.81
-7.28
-3.87
-0.97
1.19
2.60
3.39
3.77
3.93
4.04
4.19
4.41
4.69
4.99
5.26
5.47
5.60
5.69
5.78
5.93
6.18
6.53
6.92
7.25
7.43
7.38
7.10
6.62
6.05
5.52
5.19
5.12
5.33
5.67
5.93
5.86
5.28
4.15
2.56
0.69
-1.27
-3.15
-4.80
-6.14
-7.08
-7.64
-7.95
-8.21
-8.66
-9.42
-10.52
-11.76
-12.81
-13.27
-12.73
-10.93
-7.84
-3.77
0.72
4.90
8.17
10.23
11.20
11.47
11.49
11.57
11.79
12.05
12.17
12.02
11.53
10.72
9.66
8.49
7.37
6.48
5.93
5.68
5.61
5.51
5.21
4.59
3.62
2.33
0.79
-0.91
-2.69
-4.47
-6.17
-7.75
-9.14
-10.30
-11.22
-11.90
-12.40
-12.83
-13.29
-13.88
-14.63
-15.51
-16.46
-17.47
-18.56
-19.77
-21.14
-22.61
-23.99
-25.10
-25.77
-25.99
-25.93
-25.95
-26.41
-27.57
-29.40
-31.49
-33.16
-33.59
-32.18
-28.73
-23.61
-17.68
-12.05
-7.69
-5.19
-4.50
-5.08
-5.97
-6.20
-5.03
-2.18
2.11
7.18
12.20
16.43
19.42
21.12
21.78
21.80
21.49
21.01
20.34
19.46
18.37
17.17
16.03
15.08
14.32
13.68
13.08
12.54
12.12
11.95
12.00
12.12
12.00
11.40
10.20
8.52
6.61
4.78
3.23
2.07
1.25
0.67
0.24
-0.09
-0.37
-0.60
-0.82
-1.07
-1.38
-1.75
-2.18
-2.64
-3.12
-3.71
-4.51
-5.65
-7.14
-8.82
-10.42
-11.67
-12.47
-12.96
-13.46
-14.31
-15.73
-17.59
-19.52
-20.87
-20.94
-19.18
-15.42
-9.95
-3.46
3.09
8.82
13.13
15.84
17.17
17.53
17.37
17.03
16.69
16.40
16.14
15.81
15.36
14.79
14.16
13.59
13.16
12.91
12.80
12.78
12.80
12.88
13.00
13.08
12.93
12.34
11.22
9.69
8.03
6.65
5.83
5.60
5.74
5.89
5.73
5.14
4.18
3.05
1.96
1.02
0.16
-0.74
-1.81
-3.13
-4.69
-6.36
-7.99
-9.41
-10.49
-11.23
-11.69
-12.03
-12.51
-13.40
-14.91
-17.04
-19.48
-21.60
-22.58
-21.66
-18.43
-13.12
-6.50
0.32
6.30
10.78
13.64
15.23
16.05
16.53
16.90
17.20
17.36
17.34
17.18
16.95
16.72
16.53
16.34
16.04
15.58
14.88
14.05
13.19
12.46
11.89
11.41
10.80
9.87
8.54
6.93
5.31
3.96
3.05
2.53
2.23
1.90
1.39
0.68
-0.14
-0.94
-1.65
-2.29
-2.91
-3.61
-4.45
-5.43
-6.54
-7.71
-8.87
-9.91
-10.72
-11.24
-11.50
-11.67
-12.00
-12.73
-14.00
-15.68
-17.42
-18.65
-18.78
-17.35
-14.20
-9.57
-4.06
1.48
6.24
9.61
11.42
11.90
11.52
10.82
10.21
9.89
9.86
10.05
10.33
10.62
10.85
10.95
10.92
10.77
10.52
10.20
9.84
9.41
8.89
8.26
7.51
6.66
5.70
4.57
3.21
1.55
-0.39
-2.48
-4.49
-6.15
-7.25
-7.73
-7.75
-7.59
-7.55
-7.79
-8.28
-8.85
-9.35
-9.71
-10.00
-10.38
-11.03
-12.01
-13.35
-15.02
-16.96
-19.04
-20.94
-22.12
-21.91
-19.78
-15.59
-9.78
-3.24
2.94
7.91
11.31
13.24
14.16
14.56
14.80
15.00
15.13
15.09
14.83
14.34
13.66
12.87
12.08
11.38
10.83
10.44
10.21
10.11
10.10
10.15
10.17
10.04
9.62
8.81
7.57
6.01
4.34
2.77
1.46
0.44
-0.40
-1.19
-2.07
-3.05
-4.03
-4.90
-5.57
-6.06
-6.51
-7.07
-7.84
-8.76
-9.70
-10.55
-11.21
-11.74
-12.22
-12.75
-13.44
-14.41
-15.79
-17.59
-19.59
-21.22
-21.72
-20.37
-16.86
-11.50
-5.15
1.11
6.33
10.09
12.44
13.77
14.52
14.96
15.20
15.23
15.06
14.73
14.33
13.92
13.46
12.86
12.10
11.17
10.21
9.45
9.02
9.01
9.29
9.68
9.96
9.99
9.74
9.25
8.59
7.78
6.83
5.77
4.69
3.70
2.93
2.43
2.12
1.83
1.37
0.63
-0.38
-1.57
-2.74
-3.78
-4.61
-5.34
-6.11
-7.08
-8.31
-9.74
-11.20
-12.50
-13.54
-14.32
-14.97
-15.69
-16.71
-18.17
-20.18
-22.64
-25.23
-27.39
-28.39
-27.60
-24.64
-19.70
-13.40
-6.69
-0.49
4.51
8.04
10.20
11.33
11.84
12.15
12.49
12.97
13.51
13.92
14.07
13.93
13.61
13.31
13.19
13.28
13.46
13.57
13.49
13.23
12.86
12.46
12.02
11.45
10.63
9.54
8.26
7.00
5.98
5.34
5.05
4.93
4.74
4.28
3.47
2.37
1.13
-0.09
-1.23
-2.23
-3.10
-3.83
-4.47
-5.14
-6.02
-7.28
-8.94
-10.85
-12.71
-14.20
-15.15
-15.62
-15.89
-16.27
-17.03
-18.30
-20.01
-21.92
-23.66
-24.76
-24.70
-23.10
-19.83
-15.10
-9.44
-3.50
2.04
6.72
10.29
12.77
14.32
15.18
15.61
15.82
15.93
15.95
15.89
15.75
15.58
15.49
15.50
15.58
15.62
15.49
15.19
14.77
14.37
14.05
13.73
13.25
12.39
11.08
9.36
7.45
5.60
4.06
2.94
2.25
1.88
1.60
1.19
0.49
-0.49
-1.58
-2.51
-3.13
-3.51
-3.89
-4.65
-5.98
-7.87
-10.00
-11.95
-13.37
-14.18
-14.59
-14.94
-15.58
-16.72
-18.37
-20.39
-22.57
-24.56
-25.90
-25.98
-24.22
-20.29
-14.33
-7.08
0.37
6.88
11.71
14.71
16.25
16.95
17.29
17.48
17.50
17.23
16.65
15.86
15.03
14.31
13.79
13.53
13.59
13.96
14.66
15.57
16.56
17.43
18.05
18.35
18.30
17.86
17.03
15.81
14.29
12.62
10.99
9.55
8.32
7.25
6.25
5.27
4.30
3.36
2.41
1.33
-0.01
-1.65
-3.52
-5.43
-7.17
-8.65
-9.99
-11.43
-13.27
-15.66
-18.58
-21.80
-24.88
-27.27
-28.30
-27.42
-24.30
-19.16
-12.70
-6.06
-0.33
3.73
6.01
6.89
6.98
6.80
6.52
6.08
5.41
4.60
3.96
3.80
4.28
5.24
6.32
7.11
7.34
6.98
6.23
5.37
4.59
3.98
3.48
2.92
2.14
1.04
-0.41
-2.08
-3.78
-5.29
-6.48
-7.37
-8.15
-9.07
-10.35
-12.01
-13.86
-15.57
-16.78
-17.30
-17.20
-16.80
-16.61
-17.08
-18.53
-20.89
-23.70
-26.16
-27.31
-26.37
-23.00
-17.53
-10.83
-4.06
1.79
6.16
9.09
11.04
12.60
14.21
16.01
17.87
19.53
20.81
21.69
22.29
22.79
23.31
23.80
24.10
24.02
23.43
22.44
21.25
20.12
19.21
18.50
17.78
16.74
15.15
12.96
10.35
7.66
5.24
3.30
1.85
0.76
-0.17
-1.00
-1.74
-2.30
-2.71
-3.20
-4.13
-5.85
-8.49
-11.86
-15.50
-18.88
-21.63
-23.60
-24.97
-26.08
-27.33
-29.02
-31.28
-33.89
-36.29
-37.65
-37.12
-34.10
-28.61
-21.29
-13.26
-5.74
0.38
4.75
7.59
9.48
11.00
12.55
14.17
15.68
16.77
17.14
16.67
15.46
13.70
11.67
9.60
7.62
5.79
4.18
2.86
1.91
1.36
1.07
0.80
0.25
-0.72
-2.05
-3.43
-4.48
-4.94
-4.76
-4.18
-3.57
-3.27
-3.46
-4.15
-5.20
-6.44
-7.65
-8.67
-9.40
-9.84
-10.17
-10.63
-11.50
-12.87
-14.57
-16.29
-17.69
-18.61
-19.11
-19.45
-19.93
-20.79
-22.13
-23.95
-26.08
-28.14
-29.48
-29.31
-26.90
-21.97
-14.86
-6.54
1.70
8.72
13.86
17.14
19.04
20.17
20.98
21.63
22.10
22.27
22.15
21.82
21.44
21.10
20.85
20.62
20.35
20.03
19.73
19.53
19.46
19.44
19.30
18.83
17.91
16.58
15.00
13.37
11.82
10.43
9.21
8.15
7.32
6.75
6.41
6.23
6.04
5.68
5.00
3.94
2.44
0.53
-1.77
-4.34
-6.96
-9.34
-11.21
-12.45
-13.15
-13.59
-14.19
-15.35
-17.31
-20.06
-23.23
-26.08
-27.68
-27.14
-23.96
-18.22
-10.72
-2.62
4.84
10.79
14.93
17.44
18.80
19.45
19.75
19.81
19.75
19.63
19.56
19.62
19.84
20.19
20.50
20.66
20.55
20.15
19.55
18.86
18.18
17.55
16.88
16.03
14.90
13.46
11.76
9.93
8.13
6.47
5.02
3.78
2.64
1.48
0.13
-1.47
-3.26
-5.07
-6.71
-8.08
-9.28
-10.48
-11.88
-13.52
-15.28
-16.91
-18.17
-18.94
-19.34
-19.68
-20.38
-21.80
-24.19
-27.43
-30.98
-33.94
-35.16
-33.62
-28.88
-21.24
-11.81
-2.08
6.47
12.89
16.92
18.90
19.54
19.55
19.43
19.41
19.51
19.65
19.72
19.64
19.34
18.81
18.06
17.15
16.17
15.22
14.41
13.84
13.53
13.43
13.44
13.37
13.04
12.32
11.23
9.85
8.37
6.95
5.67
4.54
3.42
2.22
0.81
-0.77
-2.41
-3.96
-5.26
-6.30
-7.23
-8.27
-9.67
-11.52
-13.72
-15.95
-17.85
-19.14
-19.79
-20.14
-20.69
-21.96
-24.25
-27.51
-31.22
-34.50
-36.30
-35.62
-31.92
-25.29
-16.55
-7.05
1.74
8.67
13.25
15.68
16.64
16.87
16.89
16.91
16.89
16.77
16.59
16.46
16.51
16.70
16.91
16.97
16.79
16.41
16.02
15.74
15.59
15.41
15.02
14.22
12.92
11.22
9.26
7.26
5.36
3.65
2.19
0.96
-0.08
-0.99
-1.83
-2.63
-3.45
-4.38
-5.50
-6.89
-8.55
-10.39
-12.24
-13.90
-15.26
-16.33
-17.28
-18.39
-19.94
-22.13
-24.98
-28.23
-31.26
-33.20
-33.13
-30.33
-24.59
-16.46
-6.99
2.41
10.53
16.58
20.38
22.25
22.77
22.53
21.99
21.36
20.69
19.99
19.29
18.72
18.37
18.26
18.27
18.17
17.76
16.97
15.93
14.89
14.04
13.44
12.94
12.28
11.24
9.76
7.90
5.83
3.74
1.77
0.00
-1.51
-2.71
-3.62
-4.29
-4.90
-5.68
-6.91
-8.76
-11.20
-13.95
-16.54
-18.54
-19.74
-20.23
-20.42
-20.80
-21.82
-23.76
-26.56
-29.89
-33.09
-35.24
-35.34
-32.62
-26.87
-18.60
-9.02
0.38
8.31
14.03
17.53
19.29
20.00
20.23
20.37
20.55
20.78
20.98
21.06
20.97
20.66
20.15
19.43
18.60
17.73
16.99
16.49
16.28
16.30
16.34
16.11
15.43
14.27
12.77
11.17
9.65
8.23
6.82
5.29
3.57
1.72
-0.10
-1.75
-3.08
-4.04
-4.67
-5.13
-5.65
-6.51
-7.86
-9.66
-11.69
-13.62
-15.25
-16.52
-17.63
-18.90
-20.67
-23.22
-26.60
-30.53
-34.28
-36.79
-36.84
-33.53
-26.68
-17.08
-6.25
4.00
12.20
17.61
20.35
21.10
20.73
19.96
19.17
18.50
17.93
17.48
17.19
17.11
17.22
17.38
17.38
17.08
16.46
15.74
15.19
15.04
15.29
15.67
15.75
15.16
13.80
11.82
9.61
7.51
5.73
4.21
2.75
1.12
-0.79
-2.90
-4.97
-6.79
-8.23
-9.38
-10.45
-11.67
-13.17
-14.86
-16.54
-17.96
-19.01
-19.74
-20.35
-21.15
-22.37
-24.19
-26.61
-29.50
-32.37
-34.47
-34.81
-32.53
-27.27
-19.42
-10.13
-0.92
6.79
12.20
15.22
16.38
16.44
16.07
15.69
15.43
15.26
15.10
14.92
14.75
14.65
14.69
14.87
15.11
15.31
15.35
15.22
14.94
14.59
14.17
13.62
12.73
11.29
9.17
6.45
3.37
0.40
-2.03
-3.65
-4.48
-4.88
-5.32
-6.25
-7.85
-9.99
-12.28
-14.29
-15.77
-16.74
-17.44
-18.20
-19.29
-20.84
-22.91
-25.42
-28.16
-30.70
-32.27
-31.95
-28.94
-23.05
-14.86
-5.66
2.98
9.78
14.20
16.51
17.43
17.73
17.87
17.90
17.67
17.12
16.32
15.54
15.05
14.97
15.24
15.66
16.02
16.13
15.98
15.60
15.13
14.67
14.25
13.83
13.28
12.48
11.33
9.82
8.08
6.31
4.68
3.39
2.49
1.93
1.50
0.91
-0.11
-1.71
-3.81
-6.12
-8.22
-9.81
-10.78
-11.36
-11.98
-13.12
-15.11
-18.07
-21.83
-26.01
-29.92
-32.69
-33.34
-31.03
-25.48
-17.13
-7.18
2.77
11.21
17.21
20.66
22.08
22.30
22.05
21.77
21.59
21.47
21.32
21.15
20.94
20.71
20.39
19.89
19.15
18.24
17.34
16.75
16.68
17.22
18.13
19.03
19.46
19.12
17.96
16.16
14.06
11.95
10.03
8.33
6.86
5.61
4.67
4.22
4.51
5.66
7.70
10.44
13.53
16.52
18.97
20.51
20.91
20.12
18.28
15.74
12.97
10.46
8.56
7.40
6.78
6.29
5.45
3.91
1.60
-1.30
-4.43
-7.43
-10.04
-12.19
-13.96
-15.49
-16.89
-18.27
-19.70
-21.29
-23.11
-25.16
-27.37
-29.53
-31.42
-32.85
-33.76
-34.17
-34.22
-34.10
-33.96
-33.90
-33.87
-33.78
-33.47
-32.92
-32.19
-31.52
-31.11
-31.02
-31.12
-31.07
-30.60
-29.53
-27.95
-26.09
-24.16
-22.32
-20.58
-18.92
-17.35
-15.97
-14.92
-14.25
-13.85
-13.47
-12.80
-11.72
-10.27
-8.69
-7.23
-6.06
-5.14
-4.28
-3.25
-1.84
0.01
2.20
4.53
6.69
8.41
9.45
9.76
9.48
8.91
8.35
8.00
7.78
7.41
6.52
4.92
2.68
0.27
-1.63
-2.17
-0.52
4.03
11.81
22.49
34.88
46.95
56.28
60.72
59.25
52.26
41.53
29.54
18.64
10.45
5.51
3.59
3.97
5.87
8.57
11.43
13.79
15.03
14.72
12.75
9.54
5.88
2.69
0.69
0.02
0.29
0.73
0.60
-0.49
-2.41
-4.67
-6.71
-8.18
-9.11
-9.71
-10.23
-10.70
-10.97
-10.80
-10.04
-8.77
-7.28
-5.91
-4.86
-4.16
-3.68
-3.26
-2.79
-2.32
-1.98
-1.92
-2.22
-2.84
-3.71
-4.70
-5.75
-6.83
-7.91
-8.94
-9.79
-10.28
-10.31
-9.89
-9.25
-8.68
-8.45
-8.62
-9.02
-9.33
-9.28
-8.77
-8.01
-7.37
-7.24
-7.79
-8.87
-10.04
-10.71
-10.33
-8.61
-5.60
-1.71
2.46
6.30
9.39
11.60
13.03
13.92
14.45
14.76
14.81
14.62
14.24
13.79
13.45
13.27
13.20
13.07
12.67
11.90
10.81
9.60
8.55
7.90
7.74
7.98
8.33
8.44
8.00
6.88
5.15
3.06
1.04
-0.57
-1.49
-1.69
-1.37
-0.91
-0.71
-1.06
-2.02
-3.42
-4.96
-6.32
-7.31
-7.86
-8.06
-8.05
-7.97
-7.97
-8.13
-8.47
-8.91
-9.28
-9.36
-8.91
-7.78
-5.92
-3.46
-0.70
1.92
3.93
5.00
5.01
4.16
2.84
1.55
0.70
0.50
0.92
1.74
2.73
3.66
4.37
4.80
4.93
4.79
4.43
3.91
3.36
2.92
2.72
2.80
3.09
3.42
3.60
3.55
3.23
2.76
2.19
1.57
0.87
0.11
-0.63
-1.18
-1.43
-1.36
-1.16
-1.10
-1.45
-2.30
-3.54
-4.91
-6.10
-6.86
-7.14
-7.12
-7.11
-7.52
-8.55
-10.20
-12.08
-13.57
-14.03
-13.08
-10.83
-7.85
-4.96
-2.89
-2.05
-2.38
-3.47
-4.81
-5.93
-6.56
-6.58
-6.04
-4.99
-3.57
-1.96
-0.38
0.91
1.68
1.86
1.51
0.78
-0.10
-0.94
-1.63
-2.09
-2.36
-2.46
-2.47
-2.49
-2.67
-3.11
-3.86
-4.81
-5.72
-6.32
-6.48
-6.26
-5.94
-5.90
-6.42
-7.61
-9.35
-11.35
-13.29
-14.79
-15.53
-15.16
-13.41
-10.19
-5.71
-0.52
4.66
9.13
12.51
14.76
16.14
17.00
17.59
17.94
17.95
17.56
16.83
16.00
15.31
14.98
14.98
15.16
15.24
14.98
14.31
13.28
12.06
10.83
9.65
8.44
7.02
5.18
2.86
0.16
-2.62
-5.11
-7.03
-8.29
-9.01
-9.50
-10.05
-10.93
-12.24
-13.98
-16.01
-18.06
-19.71
-20.38
-19.42
-16.41
-11.26
-4.44
3.16
10.43
16.43
20.66
23.12
24.18
24.30
23.84
22.99
21.79
20.25
18.48
16.68
15.08
13.88
13.15
12.81
12.69
12.59
12.32
11.86
11.22
10.48
9.63
8.57
7.13
5.23
2.92
0.43
-1.90
-3.76
-5.02
-5.78
-6.29
-6.87
-7.77
-9.06
-10.66
-12.36
-13.90
-15.09
-15.86
-16.25
-16.46
-16.74
-17.37
-18.57
-20.39
-22.64
-24.86
-26.34
-26.28
-24.03
-19.33
-12.52
-4.50
3.55
10.46
15.44
18.24
19.21
19.01
18.37
17.81
17.49
17.31
17.04
16.55
15.86
15.12
14.45
13.87
13.28
12.52
11.53
10.33
9.09
7.93
6.90
5.95
4.99
3.95
2.77
1.46
0.01
-1.54
-3.10
-4.51
-5.60
-6.27
-6.50
-6.45
-6.28
-6.19
-6.27
-6.61
-7.21
-8.05
-9.08
-10.09
-10.88
-11.27
-11.26
-11.08
-11.10
-11.65
-12.87
-14.63
-16.49
-17.82
-17.97
-16.44
-13.02
-7.97
-1.91
4.24
9.54
13.36
15.46
16.04
15.59
14.60
13.47
12.40
11.49
10.81
10.47
10.51
10.86
11.33
11.67
11.64
11.19
10.39
9.48
8.65
7.98
7.40
6.73
5.77
4.38
2.60
0.55
-1.55
-3.51
-5.17
-6.46
-7.45
-8.28
-9.09
-9.95
-10.85
-11.67
-12.31
-12.71
-12.94
-13.20
-13.70
-14.61
-15.96
-17.58
-19.08
-19.88
-19.40
-17.13
-13.00
-7.32
-0.87
5.43
10.76
14.61
16.92
17.93
17.99
17.42
16.45
15.27
14.01
12.88
11.98
11.34
10.91
10.57
10.20
9.82
9.44
9.14
8.94
8.78
8.51
7.90
6.74
4.93
2.55
-0.14
-2.74
-4.82
-6.10
-6.58
-6.52
-6.40
-6.68
-7.67
-9.37
-11.50
-13.60
-15.29
-16.31
-16.69
-16.71
-16.74
-17.18
-18.23
-19.80
-21.50
-22.69
-22.65
-20.78
-16.84
-11.06
-4.14
2.95
9.26
14.12
17.31
19.00
19.63
19.69
19.55
19.34
19.08
18.73
18.35
18.07
18.07
18.47
19.24
20.22
21.20
22.00
22.56
22.88
22.96
22.75
22.08
20.76
18.65
15.79
12.35
8.52
4.61
0.84
-2.55
-5.44
-7.82
-9.82
-11.64
-13.45
-15.27
-16.96
-18.27
-18.98
-19.03
-18.51
-17.67
-16.75
-15.91
-15.18
-14.40
-13.39
-11.95
-10.00
-7.59
-4.87
-2.02
0.86
3.64
6.21
8.38
9.84
10.32
9.64
7.75
4.73
0.80
-3.76
-8.64
-13.47
-17.94
-21.86
-25.25
-28.26
-31.10
-33.80
-36.16
-37.81
-38.38
-37.77
-36.25
-34.39
-32.77
-31.76
-31.30
-31.00
-30.44
-29.34
-27.82
-26.25
-25.05
-24.41
-24.15
-23.84
-22.95
-21.19
-18.53
-15.31
-12.04
-9.32
-7.68
-7.37
-8.28
-9.85
-11.23
-11.54
-10.19
-7.10
-2.76
1.98
6.18
9.08
10.34
10.10
8.94
7.71
7.30
8.30
10.89
14.71
19.07
23.18
26.39
28.27
28.62
27.42
24.84
21.34
17.66
14.69
13.19
13.49
15.41
18.22
21.02
22.92
23.38
22.31
19.99
16.95
13.79
11.03
8.99
7.83
7.54
8.02
9.09
10.47
11.82
12.76
13.03
12.59
11.70
10.78
10.23
10.22
10.68
11.36
12.00
12.50
12.90
13.31
13.77
14.27
14.70
14.96
15.00
14.85
14.55
14.18
13.74
13.20
12.51
11.64
10.59
9.48
8.40
7.47
6.70
6.05
5.43
4.76
3.98
3.06
1.98
0.71
-0.72
-2.25
-3.73
-4.98
-5.91
-6.47
-6.73
-6.77
-6.69
-6.55
-6.35
-6.05
-5.63
-5.15
-4.73
-4.53
-4.62
-4.98
-5.38
-5.54
-5.24
-4.46
-3.42
-2.43
-1.83
-1.75
-2.16
-2.82
-3.42
-3.65
-3.22
-2.03
-0.12
2.26
4.71
6.83
8.33
9.16
9.39
9.19
8.65
7.79
6.65
5.31
3.98
2.88
2.18
2.00
2.28
2.89
3.68
4.44
4.97
5.08
4.71
3.94
2.96
2.04
1.39
1.10
1.15
1.46
1.86
2.24
2.44
2.33
1.82
0.91
-0.28
-1.58
-2.86
-4.01
-5.08
-6.12
-7.23
-8.43
-9.74
-11.17
-12.69
-14.27
-15.84
-17.36
-18.78
-20.15
-21.50
-22.86
-24.13
-25.15
-25.72
-25.71
-25.11
-24.06
-22.77
-21.37
-19.86
-18.14
-16.10
-13.71
-11.03
-8.20
-5.38
-2.59
0.19
3.00
5.85
8.63
11.12
13.12
14.46
15.10
15.10
14.54
13.58
12.27
10.72
9.00
7.27
5.68
4.44
3.63
3.27
3.21
3.21
3.06
2.59
1.78
0.72
-0.40
-1.39
-2.11
-2.56
-2.80
-2.98
-3.24
-3.64
-4.21
-4.89
-5.62
-6.37
-7.11
-7.82
-8.46
-8.99
-9.33
-9.37
-8.92
-7.79
-5.82
-3.00
0.44
4.11
7.54
10.34
12.36
13.67
14.52
15.09
15.45
15.53
15.20
14.44
13.36
12.25
11.35
10.88
10.80
10.97
11.14
11.11
10.79
10.25
9.59
8.99
8.51
8.15
7.82
7.42
6.81
5.95
4.83
3.60
2.47
1.63
1.16
0.98
0.82
0.38
-0.51
-1.82
-3.34
-4.80
-5.97
-6.87
-7.63
-8.47
-9.53
-10.84
-12.29
-13.73
-14.89
-15.46
-15.14
-13.69
-11.06
-7.51
-3.51
0.36
3.63
6.04
7.57
8.38
8.68
8.60
8.21
7.50
6.49
5.24
3.94
2.83
2.15
2.03
2.42
3.14
3.92
4.45
4.55
4.10
3.10
1.66
-0.09
-1.97
-3.88
-5.74
-7.61
-9.52
-11.48
-13.43
-15.25
-16.87
-18.35
-19.84
-21.52
-23.48
-25.65
-27.88
-29.95
-31.68
-32.93
-33.44
-32.82
-30.71
-26.79
-21.06
-13.85
-5.73
2.62
10.62
17.87
24.11
29.14
32.80
34.94
35.54
34.72
32.75
29.99
26.79
23.51
20.42
17.74
15.61
14.02
12.86
11.83
10.63
8.95
6.65
3.77
0.52
-2.78
-5.75
-8.08
-9.55
-10.08
-9.77
-8.84
-7.56
-6.19
-4.87
-3.67
-2.60
-1.71
-1.16
-1.16
-1.93
-3.49
-5.65
-7.93
-9.63
-10.02
-8.57
-5.22
-0.36
5.15
10.36
14.40
16.85
17.74
17.48
16.67
15.86
15.42
15.41
15.69
15.92
15.83
15.22
14.10
12.66
11.17
9.85
8.76
7.86
7.07
6.37
5.78
5.32
4.88
4.22
3.10
1.40
-0.75
-3.03
-5.09
-6.72
-8.01
-9.27
-10.83
-12.86
-15.27
-17.74
-19.96
-21.78
-23.24
-24.55
-25.93
-27.49
-29.22
-31.08
-33.15
-35.61
-38.65
-42.19
-45.73
-48.29
-48.68
-45.92
-39.70
-30.59
-19.87
-9.11
0.38
7.94
13.59
17.81
21.16
24.01
26.42
28.24
29.24
29.33
28.61
27.42
26.19
25.30
24.94
25.08
25.50
25.97
26.35
26.64
26.85
26.96
26.75
25.96
24.37
21.97
18.97
15.73
12.58
9.70
7.07
4.61
2.25
0.03
-1.97
-3.74
-5.37
-7.08
-9.15
-11.68
-14.60
-17.67
-20.60
-23.12
-25.15
-26.75
-28.15
-29.65
-31.66
-34.49
-38.20
-42.39
-46.10
-48.04
-46.97
-42.16
-33.77
-22.86
-11.01
0.12
9.32
16.06
20.45
23.06
24.56
25.55
26.34
26.99
27.41
27.45
27.07
26.37
25.56
24.84
24.31
23.91
23.51
23.03
22.50
22.06
21.84
21.81
21.71
21.14
19.76
17.49
14.57
11.44
8.55
6.16
4.25
2.59
0.83
-1.30
-4.00
-7.29
-10.99
-14.78
-18.25
-21.06
-23.11
-24.69
-26.40
-28.96
-32.83
-37.96
-43.60
-48.44
-50.93
-49.82
-44.49
-35.30
-23.47
-10.79
0.95
10.40
16.93
20.66
22.17
22.24
21.52
20.43
19.14
17.66
15.97
14.20
12.62
11.58
11.34
11.98
13.28
14.80
16.07
16.69
16.51
15.63
14.28
12.73
11.14
9.45
7.50
5.08
2.00
-1.70
-5.75
-9.71
-13.13
-15.66
-17.29
-18.29
-19.20
-20.65
-23.15
-26.93
-31.83
-37.23
-42.13
-45.39
-45.93
-43.02
-36.58
-27.22
-16.15
-4.90
5.11
12.99
18.51
22.04
24.21
25.59
26.46
26.83
26.66
25.96
24.91
23.80
22.86
22.21
21.80
21.50
21.23
20.97
20.80
20.80
20.93
20.99
20.61
19.40
17.14
13.93
10.23
6.68
3.80
1.76
0.26
-1.29
-3.44
-6.43
-10.08
-13.84
-17.14
-19.62
-21.32
-22.61
-24.10
-26.41
-30.01
-35.03
-41.12
-47.31
-52.20
-54.22
-52.15
-45.61
-35.27
-22.68
-9.74
1.87
11.22
18.17
23.18
26.87
29.75
32.04
33.79
34.98
35.62
35.80
35.61
35.10
34.33
33.36
32.31
31.32
30.56
30.18
30.21
30.59
31.10
31.48
31.43
30.76
29.44
27.63
25.57
23.54
21.67
19.90
18.08
16.04
13.72
11.29
9.02
7.12
5.58
4.15
2.41
-0.02
-3.26
-7.07
-11.00
-14.61
-17.63
-20.14
-22.46
-25.05
-28.32
-32.60
-38.00
-44.27
-50.71
-56.03
-58.65
-57.08
-50.62
-39.65
-25.79
-11.24
1.86
12.12
19.21
23.66
26.32
27.99
29.10
29.75
29.93
29.67
29.11
28.49
28.01
27.82
27.89
28.12
28.34
28.37
28.18
27.79
27.30
26.76
26.16
25.30
23.96
21.90
19.08
15.66
11.98
8.46
5.46
3.24
1.77
0.86
0.07
-1.05
-2.89
-5.56
-8.87
-12.37
-15.57
-18.17
-20.19
-21.94
-23.88
-26.41
-29.75
-33.90
-38.65
-43.51
-47.65
-49.94
-49.23
-44.72
-36.39
-25.23
-12.97
-1.50
7.72
14.12
17.93
19.90
20.78
21.04
20.86
20.28
19.38
18.39
17.65
17.42
17.77
18.57
19.56
20.49
21.25
21.93
22.73
23.86
25.41
27.27
29.20
30.79
31.70
31.69
30.77
29.19
27.42
25.86
24.75
23.99
23.21
21.96
19.98
17.33
14.38
11.54
9.10
6.95
4.70
1.82
-2.09
-7.21
-13.39
-20.22
-26.99
-32.75
-36.36
-36.73
-33.23
-25.99
-16.00
-4.92
5.49
13.90
19.72
23.13
24.72
25.11
24.69
23.57
21.85
19.67
17.38
15.38
13.98
13.24
13.02
13.01
12.95
12.68
12.17
11.39
10.31
8.79
6.71
4.10
1.21
-1.56
-3.80
-5.24
-5.97
-6.29
-6.62
-7.26
-8.25
-9.48
-10.73
-11.94
-13.15
-14.53
-16.12
-17.80
-19.29
-20.30
-20.70
-20.62
-20.38
-20.41
-20.97
-22.18
-23.93
-25.99
-28.05
-29.65
-30.23
-29.13
-25.77
-19.93
-11.98
-2.84
6.16
13.74
19.08
22.03
23.00
22.74
21.89
20.75
19.32
17.44
15.06
12.32
9.56
7.13
5.28
4.04
3.29
2.82
2.45
2.07
1.67
1.24
0.81
0.33
-0.22
-0.93
-1.87
-3.07
-4.51
-6.06
-7.52
-8.71
-9.49
-9.85
-9.99
-10.25
-11.02
-12.60
-14.99
-17.90
-20.81
-23.24
-24.91
-25.90
-26.54
-27.27
-28.45
-30.26
-32.72
-35.66
-38.86
-41.87
-43.96
-44.29
-42.00
-36.71
-28.63
-18.69
-8.22
1.52
9.62
15.77
20.11
22.97
24.68
25.47
25.46
24.78
23.65
22.31
21.03
19.92
19.03
18.30
17.66
17.03
16.37
15.73
15.13
14.58
14.01
13.25
12.10
10.34
7.96
5.06
1.96
-1.02
-3.63
-5.78
-7.55
-9.14
-10.71
-12.36
-14.12
-15.89
-17.52
-18.81
-19.63
-19.95
-19.93
-19.90
-20.26
-21.38
-23.41
-26.24
-29.44
-32.31
-34.01
-33.76
-31.02
-25.74
-18.47
-10.20
-2.17
4.58
9.48
12.53
14.15
14.91
15.25
15.33
15.12
14.45
13.30
11.78
10.15
8.74
7.78
7.39
7.51
7.98
8.63
9.26
9.72
9.85
9.49
8.50
6.86
4.67
2.18
-0.27
-2.44
-4.25
-5.80
-7.33
-9.07
-11.19
-13.65
-16.35
-19.04
-21.49
-23.51
-25.01
-26.08
-27.03
-28.31
-30.42
-33.60
-37.62
-41.70
-44.62
-45.00
-41.87
-35.00
-25.02
-13.30
-1.49
9.00
17.28
23.17
27.02
29.46
31.14
32.53
33.88
35.25
36.60
37.80
38.74
39.36
39.63
39.65
39.55
39.46
39.41
39.39
39.29
38.97
38.33
37.32
35.95
34.25
32.27
30.05
27.59
24.83
21.69
18.13
14.17
10.01
5.86
1.95
-1.66
-5.07
-8.47
-12.05
-15.83
-19.73
-23.53
-27.10
-30.38
-33.39
-36.17
-38.74
-41.17
-43.63
-46.48
-50.05
-54.37
-58.90
-62.46
-63.55
-60.87
-53.98
-43.48
-30.97
-18.44
-7.62
0.47
5.67
8.48
9.61
9.74
9.39
8.90
8.56
8.60
9.12
10.05
11.15
12.17
12.99
13.71
14.60
15.95
17.84
20.10
22.34
24.09
25.03
25.06
24.38
23.36
22.36
21.63
21.16
20.69
19.87
18.37
16.09
13.12
9.72
6.14
2.49
-1.28
-5.26
-9.47
-13.73
-17.79
-21.40
-24.44
-26.98
-29.27
-31.62
-34.31
-37.51
-41.23
-45.20
-48.87
-51.40
-51.81
-49.28
-43.51
-34.91
-24.58
-13.95
-4.35
3.43
9.27
13.56
16.93
19.89
22.71
25.40
27.79
29.76
31.14
31.84
31.81
31.05
29.70
27.99
26.18
24.54
23.20
22.21
21.52
21.06
20.67
20.13
19.15
17.43
14.84
11.54
7.96
4.62
1.88
-0.23
-2.07
-4.13
-6.82
-10.22
-14.01
-17.70
-20.79
-23.04
-24.53
-25.66
-27.01
-29.17
-32.56
-37.24
-42.68
-47.78
-51.02
-50.85
-46.23
-37.09
-24.44
-10.17
3.59
15.07
23.37
28.49
31.07
31.88
31.56
30.43
28.63
26.34
23.81
21.43
19.51
18.27
17.75
17.84
18.33
19.00
19.63
20.11
20.47
20.83
21.28
21.74
21.85
21.10
19.06
15.68
11.36
6.86
2.88
-0.20
-2.48
-4.43
-6.56
-9.19
-12.34
-15.82
-19.35
-22.70
-25.70
-28.26
-30.35
-32.02
-33.51
-35.24
-37.73
-41.35
-46.10
-51.42
-56.12
-58.69
-57.68
-52.24
-42.47
-29.46
-15.03
-1.19
10.42
18.94
24.36
27.27
28.52
28.89
28.86
28.66
28.33
27.84
27.21
26.49
25.70
24.82
23.81
22.65
21.39
20.23
19.36
18.97
19.07
19.46
19.78
19.63
18.73
16.97
14.50
11.60
8.60
5.77
3.24
1.07
-0.78
-2.41
-3.95
-5.57
-7.47
-9.79
-12.57
-15.68
-18.87
-21.86
-24.46
-26.65
-28.65
-30.90
-33.90
-38.01
-43.24
-48.96
-53.96
-56.65
-55.51
-49.68
-39.34
-25.74
-10.88
3.11
14.64
22.99
28.32
31.36
32.97
33.82
34.24
34.37
34.25
34.02
33.79
33.66
33.61
33.48
33.10
32.39
31.42
30.41
29.59
29.09
28.84
28.55
27.79
26.18
23.54
19.94
15.76
11.50
7.63
4.43
1.82
-0.53
-3.05
-6.05
-9.64
-13.60
-17.57
-21.18
-24.21
-26.71
-28.96
-31.39
-34.48
-38.64
-44.02
-50.34
-56.75
-61.91
-64.24
-62.38
-55.74
-44.82
-31.07
-16.57
-3.32
7.25
14.64
19.18
21.68
23.04
23.85
24.36
24.50
24.12
23.19
21.88
20.53
19.49
18.98
19.02
19.46
20.06
20.61
20.90
20.83
20.31
19.30
17.72
15.55
12.74
9.28
5.18
0.54
-4.39
-9.27
-13.71
-17.41
-20.31
-22.63
-24.73
-27.06
-30.04
-33.90
-38.75
-44.40
-50.36
-55.71
-59.20
-59.49
-55.62
-47.42
-35.68
-22.03
-8.44
3.40
12.51
18.76
22.69
25.05
26.49
27.30
27.57
27.30
26.61
25.75
25.03
24.68
24.77
25.22
25.87
26.62
27.36
28.02
28.44
28.38
27.59
25.86
23.17
19.70
15.82
11.94
8.43
5.40
2.72
0.04
-3.03
-6.70
-10.93
-15.41
-19.72
-23.48
-26.60
-29.25
-31.91
-35.24
-39.82
-45.87
-52.99
-59.98
-65.04
-66.25
-62.28
-52.98
-39.53
-24.05
-8.94
3.97
13.79
20.60
25.11
28.15
30.38
32.13
33.52
34.60
35.41
36.03
36.52
36.92
37.20
37.37
37.44
37.43
37.43
37.47
37.58
37.72
37.77
37.56
36.91
35.66
33.74
31.13
27.93
24.32
20.59
17.01
13.84
11.18
8.98
7.02
4.96
2.46
-0.72
-4.61
-9.06
-13.73
-18.28
-22.42
-26.06
-29.23
-32.19
-35.31
-39.11
-44.06
-50.35
-57.59
-64.68
-69.85
-71.14
-67.07
-57.31
-42.89
-25.98
-9.15
5.36
16.29
23.43
27.44
29.34
30.13
30.51
30.84
31.22
31.60
31.90
32.12
32.27
32.41
32.52
32.55
32.42
32.16
31.86
31.72
31.83
32.09
32.12
31.48
29.77
26.85
22.94
18.54
14.27
10.67
7.96
5.99
4.26
2.16
-0.75
-4.57
-9.00
-13.46
-17.38
-20.47
-22.79
-24.76
-26.98
-30.06
-34.42
-40.16
-46.90
-53.62
-58.81
-60.73
-58.00
-50.13
-37.88
-23.12
-8.21
4.76
14.53
20.95
24.63
26.56
27.55
28.02
28.06
27.70
27.02
26.28
25.78
25.69
25.97
26.37
26.62
26.58
26.37
26.26
26.47
26.98
27.43
27.23
25.83
23.01
18.96
14.32
9.82
6.08
3.31
1.29
-0.51
-2.67
-5.59
-9.28
-13.44
-17.57
-21.20
-24.09
-26.36
-28.47
-31.08
-34.88
-40.24
-47.03
-54.37
-60.69
-64.13
-63.00
-56.44
-44.83
-29.70
-13.38
1.76
13.93
22.39
27.42
30.04
31.47
32.75
34.46
36.67
39.10
41.35
43.07
44.17
44.80
45.29
46.03
47.28
49.12
51.34
53.52
55.08
55.48
54.38
51.71
47.79
43.15
38.33
33.71
29.38
25.18
20.88
16.35
11.62
6.91
2.44
-1.61
-5.19
-8.37
-11.30
-14.17
-17.22
-20.65
-24.53
-28.73
-32.92
-36.66
-39.64
-41.82
-43.50
-45.24
-47.55
-50.57
-53.77
-55.94
-55.47
-50.94
-41.67
-28.23
-12.34
3.63
17.39
27.44
33.40
35.88
36.00
34.89
33.34
31.74
30.22
28.78
27.41
26.05
24.65
23.12
21.35
19.33
17.07
14.76
12.59
10.78
9.42
8.43
7.52
6.34
4.57
2.06
-1.05
-4.47
-7.88
-11.05
-13.93
-16.56
-18.98
-21.10
-22.84
-24.15
-25.16
-26.15
-27.46
-29.31
-31.64
-34.18
-36.53
-38.36
-39.60
-40.42
-41.23
-42.52
-44.73
-48.15
-52.58
-57.26
-60.77
-61.36
-57.49
-48.54
-35.15
-19.22
-3.26
10.45
20.50
26.67
29.60
30.36
29.89
28.77
27.34
25.81
24.42
23.43
23.05
23.25
23.74
24.10
23.97
23.30
22.33
21.60
21.58
22.43
23.81
25.05
25.32
24.12
21.47
17.94
14.40
11.54
9.56
8.07
6.29
3.47
-0.77
-6.20
-12.15
-17.73
-22.29
-25.53
-27.60
-28.98
-30.38
-32.55
-36.10
-41.14
-47.03
-52.27
-54.80
-52.72
-45.03
-32.22
-16.23
0.24
14.63
25.32
31.95
35.16
36.00
35.39
33.86
31.57
28.63
25.21
21.71
18.60
16.30
15.00
14.63
14.90
15.37
15.67
15.52
14.86
13.76
12.37
10.77
8.96
6.78
4.07
0.67
-3.40
-7.97
-12.73
-17.35
-21.52
-25.08
-28.00
-30.48
-32.82
-35.41
-38.69
-42.92
-48.14
-53.93
-59.33
-62.96
-63.28
-59.16
-50.30
-37.54
-22.67
-7.86
5.04
15.04
22.11
26.90
30.27
32.83
34.84
36.32
37.19
37.48
37.25
36.62
35.62
34.27
32.61
30.78
29.00
27.56
26.60
26.14
25.97
25.73
24.96
23.29
20.54
16.86
12.61
8.33
4.42
1.00
-2.12
-5.39
-9.26
-13.92
-19.17
-24.54
-29.42
-33.37
-36.33
-38.68
-41.19
-44.72
-49.99
-57.11
-65.40
-73.29
-78.68
-79.50
-74.36
-63.13
-47.07
-28.50
-10.07
5.97
18.31
26.77
31.98
34.94
36.58
37.48
37.87
37.82
37.39
36.69
35.94
35.28
34.79
34.39
33.96
33.40
32.72
32.02
31.45
31.11
30.91
30.59
29.78
28.16
25.60
22.21
18.38
14.57
11.20
8.47
6.35
4.58
2.81
0.63
-2.22
-5.89
-10.26
-14.97
-19.55
-23.53
-26.69
-29.20
-31.57
-34.55
-38.83
-44.77
-52.15
-60.10
-67.06
-71.18
-70.76
-64.87
-53.73
-38.81
-22.40
-6.87
5.98
15.37
21.54
25.32
27.63
29.15
30.23
31.00
31.50
31.78
31.88
31.83
31.61
31.22
30.70
30.19
29.84
29.77
30.06
30.65
31.36
31.86
31.71
30.49
27.94
24.10
19.40
14.51
10.10
6.53
3.74
1.24
-1.51
-4.90
-8.92
-13.23
-17.32
-20.78
-23.48
-25.62
-27.69
-30.32
-34.05
-39.18
-45.51
-52.18
-57.70
-60.29
-58.40
-51.36
-39.70
-25.11
-9.92
3.73
14.40
21.74
26.19
28.60
29.72
29.96
29.48
28.32
26.68
24.92
23.48
22.65
22.49
22.80
23.24
23.48
23.32
22.71
21.69
20.35
18.77
17.04
15.14
13.00
10.50
7.50
3.87
-0.32
-4.83
-9.29
-13.26
-16.46
-18.90
-20.87
-22.96
-25.84
-30.05
-35.79
-42.73
-49.87
-55.68
-58.44
-56.73
-49.98
-38.76
-24.66
-9.84
3.65
14.44
22.09
26.92
29.69
31.14
31.81
32.00
31.88
31.60
31.27
30.94
30.55
29.97
29.11
28.04
26.95
26.10
25.69
25.70
25.84
25.62
24.56
22.34
18.96
14.78
10.37
6.31
2.98
0.43
-1.63
-3.69
-6.26
-9.58
-13.59
-17.90
-21.99
-25.40
-27.98
-29.98
-31.99
-34.79
-39.06
-45.10
-52.60
-60.53
-67.20
-70.69
-69.30
-62.25
-50.03
-34.36
-17.70
-2.49
9.66
18.24
23.75
27.23
29.66
31.64
33.33
34.64
35.47
35.81
35.80
35.59
35.31
34.99
34.57
34.00
33.30
32.60
32.10
32.03
32.42
33.02
33.32
32.72
30.78
27.41
22.96
18.04
13.35
9.39
6.28
3.80
1.48
-1.18
-4.46
-8.36
-12.59
-16.65
-20.17
-23.01
-25.36
-27.67
-30.55
-34.56
-40.08
-47.07
-54.93
-62.40
-67.71
-69.00
-64.94
-55.37
-41.44
-25.36
-9.63
3.79
13.97
21.03
25.73
28.87
30.91
32.01
32.21
31.68
30.82
30.14
29.99
30.37
30.99
31.43
31.46
31.15
30.82
30.78
31.15
31.70
31.93
31.32
29.53
26.59
22.85
18.79
14.85
11.27
8.05
4.94
1.67
-2.04
-6.21
-10.64
-14.94
-18.67
-21.58
-23.68
-25.32
-27.13
-29.80
-33.91
-39.67
-46.74
-54.06
-60.01
-62.73
-60.74
-53.47
-41.60
-26.95
-11.84
1.57
11.88
18.76
22.72
24.70
25.59
25.91
25.82
25.28
24.22
22.75
21.17
19.90
19.28
19.43
20.23
21.31
22.26
22.77
22.69
22.08
21.09
19.79
18.08
15.75
12.52
8.26
3.15
-2.35
-7.64
-12.17
-15.68
-18.31
-20.52
-22.93
-26.10
-30.46
-36.16
-43.00
-50.34
-57.07
-61.66
-62.54
-58.59
-49.58
-36.44
-21.05
-5.64
7.86
18.29
25.47
29.86
32.24
33.32
33.60
33.41
32.94
32.37
31.81
31.33
30.95
30.64
30.44
30.38
30.51
30.89
31.46
32.11
32.60
32.60
31.73
29.66
26.27
21.76
16.66
11.61
7.21
3.74
1.04
-1.39
-4.14
-7.70
-12.17
-17.25
-22.40
-27.01
-30.68
-33.40
-35.51
-37.75
-40.94
-45.77
-52.45
-60.39
-68.16
-73.69
-74.82
-70.05
-59.15
-43.37
-25.14
-7.32
7.70
18.66
25.48
29.02
30.53
31.08
31.35
31.63
31.96
32.34
32.81
33.42
34.20
35.06
35.86
36.43
36.67
36.61
36.41
36.26
36.33
36.55
36.72
36.41
35.24
32.93
29.43
24.99
20.12
15.40
11.41
8.43
6.36
4.72
2.83
0.08
-3.76
-8.46
-13.43
-17.99
-21.72
-24.53
-26.77
-28.95
-31.69
-35.52
-40.81
-47.60
-55.34
-62.79
-68.04
-69.04
-64.27
-53.44
-37.68
-19.27
-0.78
15.72
29.12
39.28
46.60
51.59
54.64
56.08
56.33
55.98
55.61
55.61
55.99
56.43
56.54
56.00
54.69
52.66
49.95
46.62
42.78
38.63
34.50
30.70
27.34
24.24
20.98
17.11
12.41
7.06
1.55
-3.51
-7.79
-11.37
-14.76
-18.63
-23.47
-29.27
-35.51
-41.33
-46.00
-49.18
-51.09
-52.33
-53.63
-55.49
-58.16
-61.55
-65.22
-68.26
-69.35
-67.01
-59.98
-47.91
-31.65
-13.28
4.58
19.51
30.06
36.00
38.05
37.39
35.12
31.99
28.44
24.74
21.12
17.82
15.03
12.88
11.40
10.58
10.31
10.46
10.80
11.03
10.83
9.99
8.42
6.21
3.51
0.53
-2.62
-5.91
-9.34
-12.88
-16.41
-19.77
-22.75
-25.21
-27.11
-28.52
-29.59
-30.55
-31.69
-33.35
-35.88
-39.52
-44.21
-49.37
-53.74
-55.62
-53.33
-45.85
-33.41
-17.56
-0.73
14.45
26.04
33.25
36.46
36.73
35.24
32.89
30.18
27.36
24.59
22.10
20.14
18.86
18.22
18.02
18.04
18.10
18.14
18.16
18.12
17.82
16.96
15.24
12.51
8.87
4.70
0.53
-3.23
-6.44
-9.32
-12.35
-15.96
-20.28
-25.02
-29.62
-33.50
-36.41
-38.55
-40.49
-43.01
-46.77
-52.11
-58.82
-66.00
-72.05
-74.85
-72.32
-63.21
-47.76
-27.82
-6.41
13.29
28.89
39.46
45.42
47.99
48.49
47.85
46.49
44.59
42.32
40.03
38.14
37.02
36.70
36.92
37.18
36.97
36.04
34.51
32.75
31.24
30.20
29.47
28.48
26.53
23.07
17.98
11.73
5.20
-0.64
-5.18
-8.32
-10.58
-12.76
-15.55
-19.26
-23.66
-28.19
-32.19
-35.27
-37.35
-38.75
-39.98
-41.66
-44.35
-48.43
-53.91
-60.14
-65.74
-68.70
-66.97
-59.16
-45.22
-26.67
-6.18
13.20
29.07
40.17
46.55
49.11
49.06
47.41
44.83
41.74
38.49
35.42
32.86
31.03
29.89
29.24
28.70
27.92
26.69
25.03
23.17
21.43
20.02
18.93
17.89
16.43
14.14
10.88
6.85
2.57
-1.37
-4.56
-6.98
-9.02
-11.31
-14.44
-18.73
-24.07
-29.94
-35.66
-40.57
-44.35
-47.10
-49.33
-51.83
-55.30
-60.15
-66.13
-72.26
-76.90
-78.15
-74.42
-65.08
-50.78
-33.41
-15.48
0.67
13.50
22.58
28.36
31.66
33.17
33.26
32.04
29.66
26.48
23.06
19.98
17.68
16.27
15.63
15.44
15.37
15.18
14.68
13.76
12.31
10.18
7.24
3.34
-1.58
-7.54
-14.36
-21.70
-29.04
-35.80
-41.53
-46.12
-49.89
-53.53
-57.82
-63.40
-70.39
-78.28
-85.94
-91.77
-94.13
-91.73
-84.08
-71.74
-56.21
-39.55
-23.81
-10.46
-0.10
7.50
13.05
17.34
20.88
23.84
26.15
27.72
28.64
29.16
29.65
30.37
31.43
32.69
33.90
34.84
35.40
35.63
35.61
35.43
35.03
34.28
32.94
30.78
27.68
23.65
18.95
13.96
9.16
4.94
1.40
-1.67
-4.80
-8.70
-14.01
-20.98
-29.31
-38.02
-45.53
-50.05
-50.08
-44.88
-34.78
-21.07
-5.69
9.36
22.53
32.99
40.63
45.82
49.15
51.16
52.18
52.35
51.73
50.40
48.56
46.54
44.72
43.37
42.55
42.07
41.66
41.06
40.20
39.14
37.97
36.66
34.96
32.45
28.76
23.69
17.43
10.45
3.35
-3.33
-9.25
-14.37
-18.87
-23.13
-27.60
-32.78
-39.13
-46.85
-55.67
-64.62
-72.06
-76.02
-74.83
-67.71
-55.17
-38.98
-21.62
-5.54
7.52
16.87
22.77
26.10
27.82
28.75
29.39
30.05
30.96
32.39
34.60
37.76
41.88
46.72
51.85
56.75
60.94
64.06
65.82
66.03
64.58
61.44
56.75
50.82
44.12
37.13
30.20
23.43
16.78
10.06
3.20
-3.71
-10.37
-16.41
-21.55
-25.77
-29.43
-33.18
-37.78
-43.86
-51.52
-60.13
-68.28
-74.08
-75.65
-71.77
-62.35
-48.46
-32.08
-15.43
-0.42
11.77
20.71
26.59
29.87
31.09
30.72
29.24
27.13
24.88
22.92
21.58
20.93
20.89
21.23
21.70
22.20
22.69
23.26
23.92
24.49
24.61
23.75
21.47
17.56
12.22
6.02
-0.26
-5.87
-10.41
-13.95
-17.02
-20.49
-25.18
-31.55
-39.39
-47.66
-54.71
-58.61
-57.75
-51.44
-40.20
-25.69
-10.21
4.01
15.49
23.79
29.30
32.79
34.95
36.08
36.19
35.21
33.27
30.80
28.41
26.68
25.95
26.22
27.15
28.23
28.94
28.95
28.17
26.77
25.00
23.02
20.75
17.88
14.08
9.18
3.30
-3.12
-9.54
-15.47
-20.68
-25.18
-29.20
-33.06
-37.16
-41.94
-47.80
-54.89
-62.92
-70.91
-77.30
-80.23
-78.16
-70.40
-57.53
-41.19
-23.66
-7.19
6.62
17.10
24.37
29.10
32.11
34.11
35.55
36.61
37.29
37.56
37.42
36.94
36.32
35.80
35.56
35.68
36.10
36.64
37.05
37.05
36.43
35.05
32.86
29.97
26.57
22.87
19.01
15.00
10.67
5.85
0.48
-5.26
-10.95
-16.05
-20.24
-23.48
-26.18
-29.04
-32.79
-37.96
-44.69
-52.52
-60.33
-66.50
-69.24
-67.16
-59.76
-47.76
-32.88
-17.35
-3.15
8.49
17.26
23.50
27.83
30.76
32.67
33.86
34.57
35.07
35.53
35.94
36.19
36.16
35.85
35.46
35.21
35.30
35.68
36.12
36.29
35.91
34.80
32.97
30.48
27.40
23.73
19.49
14.69
9.44
3.96
-1.49
-6.66
-11.40
-15.63
-19.41
-22.91
-26.41
-30.30
-35.01
-40.88
-47.84
-55.22
-61.65
-65.32
-64.54
-58.38
-47.15
-32.35
-16.28
-1.24
11.15
20.26
26.36
30.20
32.48
33.61
33.68
32.72
30.93
28.71
26.66
25.27
24.77
25.07
25.88
26.81
27.57
28.00
28.04
27.66
26.85
25.55
23.66
21.03
17.47
12.89
7.38
1.30
-4.78
-10.25
-14.69
-18.10
-20.83
-23.54
-26.90
-31.41
-37.25
-44.17
-51.45
-57.90
-62.03
-62.37
-58.02
-48.95
-36.26
-21.83
-7.78
4.15
13.09
19.07
22.67
24.63
25.43
25.31
24.37
22.83
21.11
19.75
19.14
19.39
20.23
21.20
21.87
22.04
21.81
21.44
21.13
20.85
20.24
18.73
15.83
11.33
5.51
-0.96
-7.21
-12.56
-16.70
-19.90
-22.86
-26.47
-31.46
-38.05
-45.80
-53.57
-59.74
-62.57
-60.77
-53.86
-42.48
-28.20
-13.15
0.66
11.80
19.83
25.05
28.31
30.47
32.08
33.33
34.12
34.30
33.82
32.85
31.70
30.67
29.99
29.77
29.96
30.43
30.96
31.27
31.06
30.08
28.18
25.39
21.92
18.09
14.23
10.51
6.96
3.39
-0.44
-4.65
-9.22
-13.90
-18.37
-22.37
-25.82
-28.97
-32.33
-36.56
-42.17
-49.28
-57.34
-65.04
-70.56
-72.06
-68.24
-58.92
-45.16
-28.96
-12.65
1.84
13.38
21.83
27.70
31.80
34.77
36.97
38.43
39.06
38.85
37.95
36.74
35.64
34.96
34.80
35.01
35.33
35.52
35.52
35.44
35.45
35.56
35.54
34.97
33.39
30.60
26.73
22.21
17.64
13.52
10.07
7.17
4.49
1.61
-1.77
-5.77
-10.23
-14.84
-19.24
-23.17
-26.53
-29.45
-32.23
-35.27
-39.01
-43.85
-50.01
-57.31
-65.00
-71.65
-75.38
-74.45
-67.90
-56.06
-40.52
-23.67
-7.89
5.21
15.02
21.89
26.61
29.98
32.48
34.33
35.57
36.30
36.66
36.87
37.09
37.40
37.81
38.28
38.77
39.24
39.71
40.17
40.63
41.09
41.47
41.65
41.47
40.75
39.37
37.32
34.76
31.92
29.08
26.46
24.19
22.27
20.55
18.87
17.06
14.99
12.59
9.87
6.83
3.50
-0.11
-4.00
-8.27
-13.09
-18.80
-25.80
-34.27
-43.87
-53.38
-60.84
-63.94
-60.93
-51.37
-36.43
-18.69
-1.22
13.43
23.94
30.32
33.54
34.79
34.99
34.57
33.60
32.05
29.97
27.60
25.21
23.05
21.26
19.93
19.07
18.67
18.67
18.90
19.04
18.67
17.37
14.83
11.10
6.52
1.66
-2.93
-7.00
-10.65
-14.26
-18.20
-22.57
-27.12
-31.37
-34.87
-37.41
-39.20
-40.74
-42.72
-45.80
-50.51
-56.98
-64.75
-72.53
-78.33
-79.88
-75.42
-64.42
-48.02
-28.67
-9.43
7.13
19.54
27.61
32.08
34.03
34.37
33.69
32.32
30.51
28.53
26.66
25.12
23.99
23.20
22.56
21.90
21.05
20.00
18.80
17.58
16.40
15.20
13.78
11.78
8.92
5.02
0.23
-5.02
-10.14
-14.54
-17.92
-20.37
-22.37
-24.60
-27.63
-31.60
-36.13
-40.48
-43.89
-45.98
-46.93
-47.40
-48.31
-50.44
-54.16
-59.32
-65.20
-70.52
-73.55
-72.50
-65.95
-53.42
-35.77
-15.11
5.73
24.06
38.09
47.28
52.26
54.23
54.39
53.54
52.04
49.97
47.42
44.70
42.23
40.41
39.44
39.18
39.21
39.10
38.57
37.64
36.54
35.51
34.70
33.99
33.12
31.73
29.51
26.31
22.25
17.66
13.05
8.90
5.46
2.59
-0.14
-3.32
-7.32
-12.11
-17.27
-22.19
-26.37
-29.64
-32.20
-34.54
-37.24
-40.84
-45.84
-52.47
-60.65
-69.61
-77.77
-82.94
-82.82
-75.83
-61.77
-42.19
-19.89
1.80
20.13
33.58
42.02
46.28
47.60
47.08
45.48
43.27
40.78
38.32
36.19
34.59
33.55
32.92
32.48
32.01
31.37
30.58
29.73
28.99
28.43
28.02
27.52
26.54
24.71
21.74
17.60
12.55
7.12
1.89
-2.62
-6.17
-8.88
-11.17
-13.58
-16.62
-20.53
-25.19
-30.20
-35.04
-39.29
-42.80
-45.72
-48.48
-51.63
-55.74
-61.23
-68.12
-75.87
-83.22
-88.38
-89.46
-85.03
-74.80
-59.78
-42.09
-24.30
-8.62
3.58
11.94
16.92
19.25
19.67
18.76
16.94
14.68
12.44
10.69
9.82
10.02
11.31
13.55
16.54
19.99
23.61
27.10
30.20
32.72
34.48
35.31
34.95
33.15
29.81
25.10
19.57
13.94
8.91
4.84
1.61
-1.30
-4.50
-8.41
-13.05
-18.08
-22.95
-27.21
-30.68
-33.52
-36.19
-39.32
-43.53
-49.23
-56.34
-64.14
-71.21
-75.78
-76.06
-70.97
-60.52
-45.89
-29.15
-12.58
1.91
13.30
21.43
26.81
30.22
32.34
33.62
34.29
34.44
34.18
33.67
33.09
32.62
32.40
32.49
32.84
33.37
33.95
34.47
34.84
34.97
34.78
34.08
32.67
30.30
26.85
22.36
17.15
11.73
6.65
2.37
-1.03
-3.75
-6.29
-9.22
-12.91
-17.46
-22.57
-27.71
-32.29
-35.95
-38.74
-41.09
-43.77
-47.58
-53.14
-60.55
-69.26
-77.99
-84.92
-88.05
-85.79
-77.46
-63.65
-46.13
-27.33
-9.64
5.17
16.37
24.08
28.98
31.86
33.41
34.11
34.31
34.29
34.25
34.32
34.51
34.76
34.99
35.17
35.31
35.52
35.90
36.52
37.38
38.32
39.08
39.24
38.35
36.10
32.41
27.58
22.23
17.06
12.64
9.15
6.37
3.72
0.63
-3.31
-8.10
-13.43
-18.77
-23.66
-27.86
-31.45
-34.82
-38.54
-43.26
-49.40
-57.01
-65.48
-73.46
-79.11
-80.49
-76.23
-66.01
-50.83
-32.74
-14.23
2.50
16.04
25.94
32.53
36.54
38.73
39.70
39.84
39.39
38.52
37.39
36.15
34.98
34.08
33.60
33.69
34.41
35.71
37.33
38.92
40.03
40.23
39.27
37.11
34.00
30.29
26.35
22.39
18.37
14.07
9.22
3.71
-2.35
-8.59
-14.50
-19.62
-23.78
-27.12
-30.13
-33.52
-38.06
-44.26
-52.11
-60.81
-68.78
-73.92
-74.25
-68.62
-57.16
-41.41
-23.77
-6.78
7.63
18.56
26.05
30.70
33.23
34.14
33.73
32.19
29.79
26.94
24.20
22.07
20.89
20.68
21.18
22.00
22.73
23.15
23.23
23.02
22.57
21.77
20.32
17.86
14.12
9.07
2.96
-3.68
-10.24
-16.23
-21.40
-25.81
-29.85
-34.04
-38.98
-45.16
-52.72
-61.32
-69.95
-77.01
-80.68
-79.41
-72.47
-60.29
-44.36
-26.84
-9.89
4.80
16.39
24.78
30.47
34.14
36.45
37.81
38.43
38.42
37.88
37.08
36.33
35.94
36.07
36.66
37.44
38.07
38.25
37.84
36.84
35.31
33.33
30.88
27.83
24.01
19.28
13.60
7.16
0.30
-6.50
-12.82
-18.37
-23.09
-27.18
-31.06
-35.28
-40.49
-47.19
-55.56
-65.17
-74.80
-82.62
-86.52
-84.80
-76.81
-63.21
-45.90
-27.39
-10.04
4.57
15.90
24.31
30.57
35.48
39.48
42.75
45.29
47.11
48.37
49.28
50.02
50.67
51.14
51.37
51.35
51.23
51.27
51.64
52.31
52.92
52.87
51.55
48.53
43.83
37.92
31.58
25.61
20.49
16.26
12.52
8.68
4.17
-1.19
-7.22
-13.44
-19.27
-24.31
-28.53
-32.25
-36.13
-41.01
-47.64
-56.32
-66.59
-77.07
-85.58
-89.75
-87.75
-78.99
-64.42
-46.27
-27.28
-9.83
4.60
15.65
23.75
29.67
34.09
37.44
39.89
41.53
42.51
43.03
43.39
43.81
44.41
45.14
45.88
46.47
46.88
47.17
47.45
47.74
47.89
47.51
46.12
43.32
38.98
33.40
27.20
21.17
15.98
11.93
8.86
6.21
3.32
-0.38
-5.04
-10.42
-16.01
-21.23
-25.71
-29.43
-32.71
-36.07
-40.12
-45.34
-51.88
-59.43
-67.05
-73.24
-76.23
-74.44
-67.00
-54.24
-37.58
-19.20
-1.42
14.02
26.24
35.29
41.79
46.49
49.93
52.34
53.71
54.06
53.49
52.36
51.11
50.17
49.78
49.97
50.52
51.15
51.55
51.51
50.82
49.31
46.83
43.29
38.81
33.65
28.20
22.76
17.48
12.27
6.88
1.13
-5.02
-11.31
-17.32
-22.61
-26.93
-30.39
-33.45
-36.91
-41.63
-48.25
-56.77
-66.34
-75.23
-81.22
-82.29
-77.31
-66.55
-51.60
-34.85
-18.70
-4.87
5.90
13.78
19.46
23.70
27.06
29.82
32.03
33.69
34.80
35.41
35.66
35.69
35.67
35.76
36.03
36.51
37.14
37.80
38.31
38.45
38.00
36.78
34.72
31.95
28.67
25.14
21.52
17.88
14.18
10.40
6.63
3.08
-0.04
-2.61
-4.80
-7.01
-9.67
-13.08
-17.24
-21.85
-26.48
-30.76
-34.57
-38.00
-41.39
-45.21
-49.97
-56.06
-63.52
-71.77
-79.47
-84.73
-85.56
-80.62
-69.78
-54.30
-36.48
-18.92
-3.65
8.28
16.91
22.98
27.43
30.98
33.99
36.58
38.73
40.44
41.73
42.66
43.26
43.50
43.38
42.95
42.29
41.55
40.83
40.22
39.67
39.04
38.13
36.72
34.59
31.67
27.98
23.65
18.98
14.28
9.85
5.91
2.51
-0.43
-3.19
-6.07
-9.36
-13.18
-17.43
-21.82
-25.91
-29.31
-31.88
-33.76
-35.40
-37.43
-40.43
-44.78
-50.40
-56.71
-62.51
-66.14
-65.86
-60.32
-49.17
-33.25
-14.55
4.43
21.38
34.87
44.58
51.12
55.53
58.77
61.43
63.63
65.24
66.07
66.02
65.16
63.66
61.78
59.74
57.71
55.85
54.27
53.04
52.10
51.22
49.94
47.69
43.94
38.42
31.24
22.93
14.22
5.77
-2.08
-9.38
-16.50
-23.82
-31.43
-39.08
-46.20
-52.25
-56.95
-60.54
-63.68
-67.28
-72.23
-78.98
-87.28
-95.97
-102.98
-105.73
-101.91
-90.35
-71.69
-48.34
-23.87
-1.82
15.43
27.13
34.03
37.65
39.49
40.45
40.82
40.54
39.51
37.88
36.01
34.35
33.27
32.85
32.95
33.23
33.40
33.32
33.14
33.13
33.48
34.09
34.43
33.67
31.05
26.21
19.44
11.63
3.97
-2.55
-7.52
-11.24
-14.55
-18.46
-23.62
-30.09
-37.27
-44.22
-50.03
-54.24
-56.97
-58.89
-60.97
-64.23
-69.46
-77.00
-86.54
-96.90
-105.97
-111.02
-109.39
-99.44
-81.29
-57.09
-30.44
-5.28
15.32
30.03
39.19
44.25
46.88
48.35
49.24
49.71
49.75
49.40
48.85
48.23
47.61
46.92
46.05
44.99
43.88
42.96
42.45
42.37
42.48
42.31
41.34
39.22
35.91
31.73
27.16
22.64
18.39
14.37
10.32
6.05
1.50
-3.12
-7.48
-11.30
-14.53
-17.40
-20.37
-23.92
-28.27
-33.34
-38.71
-43.85
-48.35
-52.09
-55.32
-58.59
-62.61
-68.06
-75.27
-83.91
-92.73
-99.58
-101.85
-97.31
-85.09
-66.14
-43.16
-19.74
0.86
16.63
27.22
33.57
37.14
39.22
40.55
41.44
41.96
42.25
42.49
42.80
43.19
43.43
43.29
42.63
41.59
40.51
39.80
39.74
40.27
40.98
41.20
40.33
37.99
34.29
29.74
25.05
20.92
17.64
15.05
12.63
9.78
6.14
1.80
-2.69
-6.64
-9.54
-11.40
-12.74
-14.38
-17.09
-21.17
-26.39
-32.12
-37.59
-42.28
-46.02
-49.04
-51.90
-55.29
-59.96
-66.46
-74.79
-84.08
-92.41
-97.11
-95.58
-86.32
-69.63
-47.74
-24.12
-2.32
15.15
27.34
34.71
38.56
40.23
40.71
40.55
39.97
39.13
38.22
37.46
36.99
36.87
37.05
37.44
37.92
38.43
38.95
39.45
39.94
40.39
40.73
40.83
40.46
39.33
37.14
33.63
28.76
22.73
15.99
9.13
2.71
-2.94
-7.78
-12.08
-16.22
-20.58
-25.32
-30.34
-35.36
-39.98
-43.93
-47.18
-50.02
-53.00
-56.85
-62.26
-69.60
-78.59
-87.98
-95.60
-98.72
-94.94
-83.10
-63.95
-40.10
-15.27
6.94
24.11
35.50
41.88
44.77
45.73
45.82
45.55
45.04
44.29
43.31
42.21
41.11
40.20
39.64
39.58
40.12
41.27
42.88
44.73
46.48
47.78
48.33
47.84
46.11
42.98
38.32
32.17
24.73
16.47
8.05
0.22
-6.35
-11.31
-14.75
-17.18
-19.39
-22.22
-26.22
-31.42
-37.37
-43.27
-48.40
-52.38
-55.35
-57.96
-61.16
-65.93
-72.94
-82.27
-93.03
-103.29
-110.16
-110.60
-102.37
-85.06
-60.46
-32.17
-4.46
19.08
36.45
47.46
53.31
55.70
56.19
55.90
55.40
54.96
54.64
54.37
53.95
53.14
51.77
49.81
47.47
45.08
43.00
41.49
40.57
40.00
39.30
37.98
35.59
31.97
27.15
21.42
15.14
8.65
2.19
-4.14
-10.28
-16.20
-21.85
-27.18
-32.25
-37.26
-42.62
-48.93
-56.73
-66.24
-76.97
-87.58
-95.96
-99.74
-97.12
-87.60
-72.29
-53.63
-34.60
-17.72
-4.39
5.22
11.83
16.40
19.75
22.37
24.56
26.59
28.75
31.18
33.85
36.43
38.43
39.45
39.32
38.20
36.40
34.35
32.39
30.67
29.18
27.69
25.85
23.23
19.51
14.57
8.65
2.31
-3.77
-8.97
-13.01
-16.09
-18.78
-21.92
-26.27
-32.33
-39.96
-48.31
-55.76
-60.30
-60.03
-53.84
-41.94
-25.91
-8.29
8.22
21.50
30.56
35.50
37.11
36.36
33.89
30.02
24.81
18.49
11.59
5.00
-0.28
-3.47
-4.37
-3.40
-1.46
0.42
1.50
1.51
0.66
-0.60
-1.91
-3.21
-4.79
-7.14
-10.70
-15.59
-21.55
-27.95
-34.02
-39.16
-43.06
-45.93
-48.40
-51.35
-55.67
-61.97
-70.27
-79.83
-89.10
-95.99
-98.37
-94.69
-84.60
-69.05
-50.12
-30.32
-11.90
3.69
15.99
25.30
32.20
37.27
40.84
43.06
44.09
44.24
43.95
43.81
44.27
45.55
47.55
49.90
52.11
53.76
54.59
54.57
53.81
52.48
50.68
48.37
45.36
41.40
36.31
30.10
23.07
15.76
8.78
2.59
-2.67
-7.26
-11.74
-16.78
-22.96
-30.66
-39.87
-50.09
-60.14
-68.23
-72.26
-70.38
-61.72
-46.86
-27.81
-7.42
11.48
26.87
37.97
45.09
49.14
51.10
51.68
51.25
49.99
48.12
45.91
43.77
42.07
41.08
40.87
41.39
42.43
43.71
44.84
45.40
44.88
42.84
38.98
33.32
26.29
18.59
10.98
4.05
-2.08
-7.76
-13.75
-20.84
-29.51
-39.53
-49.78
-58.40
-63.18
-62.25
-54.86
-41.70
-24.86
-7.15
8.81
21.35
30.08
35.59
38.83
40.52
40.83
39.54
36.41
31.62
25.88
20.29
16.03
13.84
13.85
15.49
17.73
19.47
19.88
18.60
15.73
11.63
6.72
1.27
-4.62
-11.01
-18.01
-25.71
-34.18
-43.27
-52.52
-60.93
-67.02
-69.11
-65.84
-56.79
-42.79
-25.77
-8.26
7.50
20.05
29.05
34.95
38.51
40.25
40.28
38.46
34.75
29.55
23.73
18.47
14.76
13.05
13.11
14.12
15.09
15.22
14.16
11.95
8.94
5.43
1.52
-2.87
-7.93
-13.86
-20.81
-28.81
-37.85
-47.66
-57.65
-66.61
-72.88
-74.61
-70.42
-59.97
-44.26
-25.47
-6.30
10.85
24.50
34.28
40.73
44.78
47.35
49.04
50.05
50.40
50.00
48.84
47.04
44.85
42.62
40.70
39.32
38.57
38.32
38.19
37.70
36.25
33.36
28.68
22.22
14.42
6.03
-2.07
-9.13
-14.95
-19.91
-24.96
-31.20
-39.37
-49.39
-60.10
-69.42
-74.86
-74.30
-66.72
-52.72
-34.39
-14.70
3.45
18.08
28.65
35.82
40.91
45.17
49.25
53.16
56.57
59.10
60.68
61.50
61.92
62.19
62.43
62.63
62.76
62.88
63.11
63.58
64.28
64.95
65.08
64.10
61.58
57.45
52.10
46.24
40.66
35.84
31.84
28.35
24.84
20.91
16.45
11.68
6.96
2.62
-1.28
-4.94
-8.81
-13.31
-18.67
-24.80
-31.30
-37.60
-43.25
-48.04
-52.16
-56.13
-60.73
-66.72
-74.51
-83.83
-93.54
-101.61
-105.65
-103.58
-94.47
-78.94
-59.12
-37.93
-18.20
-1.85
10.46
19.15
25.19
29.62
33.18
36.25
39.00
41.53
43.90
46.15
48.23
49.98
51.18
51.68
51.51
50.91
50.27
49.93
50.01
50.30
50.29
49.43
47.36
44.05
39.84
35.26
30.78
26.66
22.86
19.18
15.42
11.54
7.67
4.03
0.75
-2.20
-5.09
-8.32
-12.21
-16.86
-22.12
-27.55
-32.68
-37.14
-40.84
-44.07
-47.40
-51.53
-57.07
-64.20
-72.33
-80.09
-85.46
-86.42
-81.61
-70.94
-55.73
-38.31
-21.29
-6.70
4.49
12.40
17.85
21.86
25.22
28.28
31.10
33.55
35.51
36.90
37.70
38.00
37.89
37.53
37.08
36.69
36.46
36.42
36.55
36.70
36.69
36.29
35.26
33.42
30.68
27.12
22.99
18.65
14.46
10.72
7.53
4.84
2.47
0.21
-2.17
-4.80
-7.74
-10.95
-14.36
-17.80
-21.08
-24.07
-26.68
-29.01
-31.35
-34.15
-37.93
-43.03
-49.32
-56.02
-61.67
-64.47
-62.77
-55.70
-43.52
-27.62
-10.14
6.70
21.18
32.44
40.47
45.85
49.38
51.77
53.52
54.92
56.05
56.89
57.36
57.35
56.82
55.82
54.52
53.23
52.18
51.48
51.01
50.46
49.48
47.83
45.46
42.50
39.12
35.44
31.45
27.04
22.08
16.52
10.54
4.42
-1.40
-6.55
-10.84
-14.35
-17.48
-20.71
-24.46
-28.80
-33.48
-38.02
-42.03
-45.41
-48.46
-51.78
-56.08
-62.00
-69.84
-79.41
-89.73
-99.00
-104.82
-104.84
-97.55
-83.03
-63.02
-40.53
-18.81
-0.44
13.29
22.34
27.54
29.96
30.55
30.01
28.85
27.46
26.16
25.11
24.34
23.78
23.30
22.84
22.43
22.13
21.98
21.96
21.94
21.75
21.17
20.03
18.17
15.45
11.80
7.25
1.97
-3.65
-9.12
-13.92
-17.73
-20.47
-22.40
-23.94
-25.57
-27.60
-30.16
-33.13
-36.24
-39.21
-41.78
-43.93
-45.82
-47.81
-50.45
-54.29
-59.70
-66.48
-73.69
-79.56
-81.84
-78.53
-68.63
-52.74
-33.00
-12.47
5.88
20.02
29.30
34.28
36.14
36.10
35.00
33.26
31.07
28.60
26.09
23.80
21.93
20.54
19.52
18.69
17.89
17.12
16.51
16.27
16.53
17.23
18.04
18.44
17.94
16.33
13.74
10.67
7.78
5.60
4.25
3.37
2.24
0.14
-3.32
-8.02
-13.29
-18.28
-22.28
-25.08
-27.03
-29.01
-32.03
-36.95
-44.07
-52.86
-61.84
-68.79
-71.28
-67.42
-56.66
-40.12
-20.38
-0.63
16.29
28.67
36.23
39.75
40.43
39.41
37.41
34.86
32.05
29.31
27.06
25.64
25.26
25.85
27.13
28.71
30.24
31.53
32.53
33.31
33.97
34.51
34.84
34.69
33.72
31.62
28.24
23.76
18.68
13.74
9.70
7.04
5.74
5.20
4.48
2.65
-0.84
-5.98
-12.26
-18.90
-25.18
-30.65
-35.30
-39.45
-43.66
-48.66
-55.06
-63.14
-72.45
-81.53
-88.06
-89.37
-83.49
-70.02
-50.52
-28.09
-6.37
11.74
24.73
32.64
36.45
37.44
36.66
34.83
32.41
29.80
27.29
25.08
23.21
21.60
20.23
19.16
18.56
18.62
19.44
21.01
23.15
25.57
27.85
29.48
29.96
28.94
26.34
22.42
17.71
12.77
8.06
3.78
-0.08
-3.66
-7.15
-10.68
-14.40
-18.40
-22.72
-27.28
-31.87
-36.22
-40.10
-43.46
-46.45
-49.42
-52.82
-57.12
-62.73
-69.80
-77.96
-86.17
-92.69
-95.44
-92.66
-83.64
-69.09
-50.99
-31.97
-14.46
-0.02
10.84
18.44
23.46
26.60
28.35
29.10
29.21
29.02
28.84
28.86
29.13
29.61
30.19
30.81
31.41
31.98
32.51
33.04
33.57
34.06
34.36
34.25
33.41
31.60
28.74
24.97
20.64
16.18
11.96
8.19
4.82
1.67
-1.60
-5.27
-9.58
-14.53
-19.96
-25.47
-30.62
-35.09
-38.78
-41.95
-45.18
-49.20
-54.69
-62.03
-70.98
-80.57
-89.11
-94.46
-94.60
-88.31
-75.61
-57.90
-37.58
-17.33
0.63
14.99
25.43
32.33
36.42
38.44
38.99
38.58
37.62
36.47
35.45
34.76
34.46
34.55
34.99
35.71
36.75
38.17
39.97
42.03
44.00
45.30
45.31
43.62
40.17
35.32
29.71
24.01
18.68
13.79
9.13
4.33
-0.93
-6.70
-12.78
-18.76
-24.21
-28.82
-32.61
-35.92
-39.41
-43.92
-50.17
-58.47
-68.40
-78.62
-87.05
-91.39
-89.75
-81.40
-67.04
-48.64
-28.82
-10.13
5.62
17.63
25.89
30.90
33.27
33.55
32.22
29.76
26.77
23.92
21.83
20.88
21.16
22.37
24.03
25.60
26.75
27.42
27.75
27.85
27.58
26.51
24.01
19.60
13.21
5.35
-2.98
-10.76
-17.23
-22.24
-26.25
-30.13
-34.89
-41.29
-49.56
-59.24
-69.03
-77.03
-81.12
-79.64
-71.88
-58.47
-41.18
-22.40
-4.49
10.89
22.94
31.66
37.55
41.23
43.25
44.04
43.96
43.37
42.64
42.14
42.19
42.96
44.46
46.55
48.96
51.45
53.74
55.58
56.65
56.63
55.20
52.24
47.86
42.41
36.38
30.17
23.94
17.65
11.13
4.28
-2.78
-9.77
-16.33
-22.19
-27.31
-31.96
-36.65
-42.05
-48.84
-57.42
-67.58
-78.32
-87.72
-93.35
-92.93
-85.16
-70.25
-50.02
-27.38
-5.44
13.32
27.60
37.38
43.52
47.25
49.72
51.67
53.43
55.01
56.35
57.39
58.20
58.89
59.58
60.34
61.15
61.99
62.86
63.74
64.53
64.96
64.65
63.24
60.53
56.61
51.83
46.66
41.46
36.43
31.57
26.80
22.07
17.44
13.06
9.04
5.38
1.92
-1.64
-5.61
-10.23
-15.48
-21.18
-26.99
-32.56
-37.68
-42.38
-46.91
-51.80
-57.68
-65.12
-74.30
-84.70
-94.84
-102.46
-105.02
-100.55
-88.53
-70.16
-48.17
-25.88
-6.18
9.35
20.54
28.32
33.98
38.55
42.56
46.07
48.99
51.28
53.11
54.67
56.09
57.34
58.29
58.83
58.99
58.97
58.98
59.15
59.39
59.39
58.73
57.03
54.13
50.16
45.48
40.52
35.69
31.16
26.94
22.86
18.77
14.61
10.53
6.74
3.42
0.50
-2.35
-5.56
-9.48
-14.20
-19.46
-24.83
-29.83
-34.17
-37.86
-41.17
-44.65
-48.95
-54.71
-62.27
-71.29
-80.58
-88.05
-91.32
-88.46
-78.77
-63.17
-43.99
-24.16
-6.29
8.01
18.37
25.35
29.90
32.91
34.91
36.18
36.83
37.01
36.92
36.80
36.84
37.09
37.49
37.91
38.27
38.51
38.75
39.09
39.55
39.94
39.80
38.63
36.00
31.83
26.50
20.75
15.39
11.04
7.87
5.58
3.54
1.09
-2.14
-6.17
-10.63
-14.96
-18.70
-21.69
-24.16
-26.68
-30.02
-34.87
-41.56
-49.90
-58.98
-67.21
-72.62
-73.35
-68.24
-57.36
-42.09
-24.80
-8.09
6.05
16.68
23.99
28.88
32.39
35.24
37.69
39.63
40.90
41.52
41.70
41.89
42.53
43.91
46.11
48.88
51.82
54.43
56.32
57.32
57.54
57.25
56.79
56.37
56.04
55.69
55.15
54.32
53.27
52.18
51.38
51.17
51.73
52.95
54.44
55.44
54.96
52.03
45.93
36.44
23.96
9.31
-6.42
-22.28
-37.60
-52.10
-65.85
-78.94
-91.19
-101.84
-109.38
-111.83
-107.40
-95.32
-76.48
-53.44
-29.78
-8.97
6.79
17.02
22.77
25.78
27.63
29.18
30.62
31.79
32.64
33.36
34.23
35.42
36.78
37.88
38.15
37.21
35.08
32.16
29.13
26.61
24.87
23.66
22.34
20.13
16.54
11.56
5.75
-0.00
-4.87
-8.45
-10.91
-12.90
-15.14
-18.08
-21.59
-25.04
-27.61
-28.70
-28.37
-27.32
-26.70
-27.59
-30.57
-35.42
-41.32
-47.14
-51.98
-55.45
-57.83
-59.90
-62.71
-67.32
-74.44
-84.18
-95.66
-106.83
-114.68
-115.97
-108.32
-91.30
-66.82
-38.69
-11.43
11.18
27.14
36.38
40.26
40.68
39.28
37.17
34.98
33.04
31.58
30.73
30.46
30.50
30.51
30.15
29.32
28.28
27.55
27.72
29.14
31.70
34.76
37.34
38.52
37.82
35.44
32.18
29.03
26.76
25.53
24.85
23.81
21.58
17.84
12.95
7.86
3.61
0.84
-0.57
-1.51
-3.19
-6.57
-11.85
-18.42
-25.06
-30.54
-34.16
-35.95
-36.73
-37.85
-40.90
-47.32
-58.05
-72.92
-90.22
-106.56
-117.52
-118.90
-108.34
-86.46
-56.94
-25.37
2.69
23.49
35.89
41.15
41.71
39.94
37.30
34.29
30.94
27.31
23.80
21.04
19.56
19.47
20.43
21.81
23.04
23.92
24.61
25.58
27.26
29.82
33.03
36.31
38.91
40.14
39.54
37.04
32.92
27.74
22.16
16.79
11.97
7.69
3.73
-0.28
-4.62
-9.33
-14.22
-18.99
-23.38
-27.33
-31.07
