1657523567.00
64.000000
-0.00
-0.00
-0.00
-0.00
-0.00
-0.00
-0.00
-0.00
-0.00
-0.00
0.00
0.01
0.01
-0.00
-0.03
-0.05
-0.05
0.00
0.13
0.36
0.66
1.01
1.37
1.72
2.06
2.40
2.79
3.24
3.80
4.44
5.09
5.73
6.33
6.90
7.50
8.21
9.08
10.22
11.53
12.92
14.26
15.51
16.72
18.05
19.70
21.81
24.56
27.74
31.08
34.31
37.28
40.13
43.20
46.92
51.61
57.62
64.57
71.96
79.23
86.10
92.71
99.60
107.47
116.81
128.12
140.83
154.15
167.28
179.78
191.83
204.16
218.08
232.19
248.56
267.64
289.49
313.05
335.67
353.32
361.54
356.92
338.30
307.64
268.47
224.98
180.61
137.37
96.02
56.68
19.44
-15.53
-47.97
-78.30
-107.15
-135.04
-162.10
-187.92
-211.87
-233.44
-252.68
-270.17
-287.15
-305.22
-325.90
-349.81
-375.95
-401.37
-421.72
-432.60
-431.01
-416.77
-392.43
-362.25
-330.50
-300.08
-272.04
-246.08
-221.56
-198.22
-176.46
-156.85
-139.62
-124.30
-109.96
-95.69
-81.13
-66.54
-52.80
-40.76
-30.90
-23.08
-16.63
-10.71
-4.71
1.51
7.62
13.08
17.44
20.53
22.53
23.87
25.03
26.33
27.87
29.51
30.97
32.00
32.44
32.33
31.85
31.21
30.59
30.07
29.64
29.24
28.79
28.21
27.49
26.64
25.74
24.85
24.02
23.26
22.55
21.87
21.23
20.67
20.20
19.80
19.41
18.99
18.50
17.92
17.28
16.62
15.98
15.39
14.92
14.61
14.50
14.55
14.65
14.66
14.43
13.92
13.13
12.20
11.26
10.46
9.86
9.43
9.08
8.67
8.11
7.38
6.57
5.84
5.31
5.03
4.91
4.77
4.43
3.76
2.77
1.55
0.27
-0.92
-1.93
-2.79
-3.59
-4.43
-5.37
-6.40
-7.42
-8.34
-9.12
-9.77
-10.34
-10.87
-11.33
-11.64
-11.74
-11.63
-11.39
-11.16
-11.08
-11.18
-11.39
-11.59
-11.66
-11.50
-11.09
-10.44
-9.65
-8.83
-8.12
-7.61
-7.32
-7.23
-7.23
-7.19
-6.96
-6.41
-5.48
-4.22
-2.77
-1.35
-0.16
0.68
1.20
1.52
1.78
2.06
2.37
2.66
2.90
3.09
3.31
3.63
4.09
4.67
5.27
5.78
6.09
6.13
5.94
5.63
5.39
5.36
5.61
6.11
6.68
7.16
7.43
7.46
7.36
7.24
7.21
7.30
7.48
7.68
7.83
7.92
7.98
8.04
8.14
8.26
8.40
8.55
8.72
8.92
9.12
9.27
9.26
9.05
8.65
8.16
7.72
7.42
7.28
7.23
7.15
6.97
6.68
6.31
5.96
5.69
5.52
5.39
5.26
5.05
4.78
4.53
4.42
4.51
4.77
5.07
5.23
5.14
4.77
4.24
3.70
3.26
2.94
2.70
2.49
2.31
2.20
2.20
2.29
2.42
2.49
2.45
2.31
2.17
2.09
2.16
2.35
2.61
2.82
2.89
2.76
2.45
2.05
1.69
1.48
1.48
1.64
1.86
2.05
2.16
2.18
2.16
2.11
2.02
1.84
1.52
1.09
0.64
0.32
0.21
0.33
0.55
0.70
0.69
0.52
0.36
0.38
0.68
1.18
1.70
2.06
2.15
2.03
1.81
1.59
1.45
1.36
1.29
1.22
1.14
1.08
1.10
1.20
1.43
1.75
2.12
2.43
2.55
2.43
2.11
1.73
1.44
1.33
1.37
1.43
1.41
1.23
0.93
0.59
0.28
0.04
-0.13
-0.23
-0.23
-0.11
0.12
0.42
0.69
0.86
0.88
0.80
0.69
0.66
0.77
0.97
1.17
1.28
1.22
1.04
0.82
0.70
0.71
0.84
0.99
1.05
0.98
0.81
0.67
0.63
0.72
0.92
1.13
1.27
1.30
1.21
1.04
0.85
0.69
0.61
0.60
0.62
0.60
0.49
0.26
-0.00
-0.18
-0.19
-0.01
0.27
0.48
0.52
0.39
0.23
0.21
0.45
0.93
1.50
1.92
2.04
1.80
1.28
0.64
0.03
-0.46
-0.77
-0.90
-0.88
-0.74
-0.51
-0.25
-0.04
0.06
-0.01
-0.19
-0.41
-0.56
-0.53
-0.29
0.12
0.60
1.01
1.26
1.29
1.10
0.76
0.35
0.01
-0.16
-0.10
0.16
0.53
0.89
1.12
1.22
1.20
1.15
1.13
1.15
1.17
1.12
0.96
0.67
0.32
0.02
-0.14
-0.14
-0.01
0.19
0.40
0.61
0.83
1.05
1.26
1.39
1.42
1.37
1.29
1.22
1.17
1.08
0.88
0.51
0.02
-0.46
-0.81
-0.92
-0.79
-0.48
-0.10
0.26
0.51
0.60
0.52
0.30
-0.03
-0.39
-0.69
-0.85
-0.84
-0.67
-0.42
-0.18
-0.02
0.02
-0.00
-0.02
0.02
0.14
0.27
0.33
0.26
0.04
-0.25
-0.51
-0.59
-0.39
0.10
0.81
1.55
2.10
2.29
2.07
1.51
0.82
0.21
-0.17
-0.30
-0.21
0.00
0.27
0.56
0.81
0.96
0.96
0.76
0.40
-0.00
-0.34
-0.52
-0.53
-0.44
-0.33
-0.25
-0.22
-0.20
-0.15
-0.06
0.03
0.09
0.12
0.12
0.12
0.16
0.26
0.41
0.57
0.67
0.66
0.52
0.32
0.13
0.03
0.07
0.20
0.33
0.36
0.27
0.08
-0.11
-0.23
-0.23
-0.15
-0.07
-0.05
-0.12
-0.25
-0.38
-0.47
-0.52
-0.51
-0.44
-0.29
-0.06
0.24
0.54
0.76
0.83
0.71
0.44
0.13
-0.13
-0.24
-0.18
0.03
0.31
0.58
0.78
0.88
0.86
0.75
0.57
0.37
0.19
0.08
0.05
0.09
0.17
0.24
0.25
0.18
0.06
-0.06
-0.14
-0.15
-0.08
0.06
0.25
0.44
0.57
0.59
0.46
0.19
-0.16
-0.47
-0.65
-0.64
-0.49
-0.28
-0.14
-0.15
-0.29
-0.47
-0.56
-0.48
-0.24
0.09
0.40
0.56
0.52
0.30
-0.02
-0.29
-0.43
-0.37
-0.17
0.09
0.33
0.48
0.60
0.72
0.90
1.11
1.26
1.27
1.12
0.85
0.56
0.32
0.17
0.06
-0.07
-0.25
-0.45
-0.58
-0.58
-0.46
-0.31
-0.26
-0.36
-0.59
-0.81
-0.86
-0.67
-0.31
0.01
0.12
-0.06
-0.44
-0.80
-0.98
-0.92
-0.72
-0.52
-0.43
-0.44
-0.44
-0.34
-0.11
0.18
0.43
0.58
0.63
0.65
0.71
0.85
1.02
1.18
1.27
1.26
1.16
1.01
0.88
0.78
0.70
0.57
0.32
-0.08
-0.56
-0.97
-1.16
-1.02
-0.55
0.11
0.74
1.15
1.23
1.03
0.66
0.29
0.02
-0.11
-0.14
-0.16
-0.23
-0.39
-0.58
-0.68
-0.60
-0.30
0.12
0.49
0.62
0.45
0.04
-0.41
-0.68
-0.70
-0.50
-0.23
-0.03
0.04
0.05
0.09
0.23
0.43
0.62
0.67
0.56
0.30
-0.01
-0.29
-0.48
-0.57
-0.59
-0.58
-0.57
-0.54
-0.49
-0.37
-0.17
0.14
0.51
0.85
1.09
1.15
1.03
0.79
0.52
0.27
0.09
-0.04
-0.16
-0.27
-0.34
-0.32
-0.18
0.08
0.40
0.71
0.91
0.92
0.73
0.37
-0.07
-0.46
-0.69
-0.73
-0.63
-0.44
-0.24
-0.08
0.04
0.13
0.17
0.15
0.07
-0.05
-0.16
-0.20
-0.12
0.07
0.30
0.48
0.54
0.44
0.23
-0.03
-0.26
-0.42
-0.52
-0.57
-0.60
-0.55
-0.39
-0.10
0.26
0.56
0.63
0.41
-0.06
-0.61
-1.05
-1.27
-1.23
-1.01
-0.73
-0.52
-0.42
-0.40
-0.40
-0.33
-0.16
0.12
0.43
0.69
0.79
0.68
0.39
0.00
-0.34
-0.51
-0.46
-0.18
0.25
0.72
1.10
1.30
1.25
0.95
0.45
-0.10
-0.52
-0.68
-0.54
-0.23
0.09
0.27
0.24
0.11
0.02
0.09
0.32
0.63
0.90
1.04
1.07
1.02
0.92
0.79
0.58
0.27
-0.10
-0.45
-0.69
-0.78
-0.73
-0.57
-0.35
-0.09
0.18
0.45
0.67
0.78
0.77
0.64
0.48
0.34
0.28
0.28
0.27
0.19
-0.00
-0.28
-0.57
-0.79
-0.87
-0.79
-0.59
-0.34
-0.13
-0.06
-0.13
-0.30
-0.49
-0.61
-0.64
-0.59
-0.54
-0.58
-0.76
-1.02
-1.27
-1.41
-1.40
-1.26
-1.07
-0.89
-0.73
-0.54
-0.23
0.22
0.77
1.29
1.65
1.80
1.72
1.50
1.21
0.91
0.60
0.25
-0.11
-0.44
-0.69
-0.78
-0.69
-0.45
-0.12
0.20
0.44
0.60
0.72
0.82
0.93
1.02
1.03
0.90
0.66
0.39
0.20
0.18
0.32
0.54
0.70
0.71
0.60
0.47
0.44
0.55
0.70
0.73
0.52
0.07
-0.46
-0.82
-0.88
-0.62
-0.24
0.04
0.04
-0.22
-0.61
-0.97
-1.18
-1.24
-1.19
-1.08
-0.93
-0.73
-0.48
-0.23
-0.04
0.05
0.04
-0.04
-0.13
-0.19
-0.23
-0.27
-0.33
-0.42
-0.52
-0.59
-0.58
-0.47
-0.27
-0.01
0.26
0.51
0.68
0.76
0.75
0.67
0.58
0.52
0.49
0.47
0.43
0.35
0.25
0.18
0.21
0.39
0.66
0.89
0.96
0.79
0.43
0.02
-0.25
-0.29
-0.10
0.20
0.46
0.56
0.46
0.22
-0.08
-0.37
-0.62
-0.79
-0.85
-0.77
-0.53
-0.19
0.15
0.37
0.41
0.28
0.10
0.02
0.14
0.44
0.80
1.05
1.07
0.81
0.35
-0.13
-0.50
-0.68
-0.71
-0.72
-0.79
-0.93
-1.04
-0.99
-0.73
-0.35
-0.03
0.05
-0.15
-0.51
-0.82
-0.91
-0.74
-0.45
-0.23
-0.19
-0.31
-0.46
-0.51
-0.43
-0.28
-0.16
-0.10
-0.05
0.05
0.23
0.42
0.55
0.56
0.44
0.26
0.10
-0.01
-0.05
-0.03
0.05
0.24
0.52
0.83
1.07
1.15
1.06
0.86
0.67
0.57
0.60
0.72
0.84
0.87
0.76
0.49
0.12
-0.29
-0.63
-0.82
-0.80
-0.59
-0.24
0.14
0.45
0.64
0.71
0.68
0.62
0.54
0.46
0.36
0.20
0.00
-0.18
-0.29
-0.26
-0.09
0.14
0.32
0.37
0.24
-0.02
-0.32
-0.57
-0.72
-0.76
-0.72
-0.64
-0.58
-0.54
-0.53
-0.53
-0.49
-0.39
-0.22
0.01
0.23
0.35
0.35
0.21
-0.03
-0.30
-0.52
-0.63
-0.60
-0.40
-0.06
0.33
0.66
0.82
0.74
0.47
0.13
-0.14
-0.21
-0.07
0.19
0.46
0.62
0.61
0.44
0.15
-0.19
-0.55
-0.87
-1.09
-1.16
-1.02
-0.68
-0.19
0.33
0.73
0.92
0.88
0.68
0.44
0.28
0.23
0.28
0.36
0.40
0.40
0.37
0.33
0.29
0.24
0.17
0.10
0.04
0.01
0.02
0.02
-0.03
-0.14
-0.28
-0.37
-0.38
-0.32
-0.23
-0.20
-0.26
-0.40
-0.56
-0.70
-0.76
-0.73
-0.64
-0.53
-0.44
-0.39
-0.40
-0.44
-0.44
-0.37
-0.19
0.10
0.45
0.80
1.08
1.23
1.19
0.98
0.64
0.23
-0.10
-0.23
-0.11
0.23
0.64
0.94
0.96
0.67
0.16
-0.38
-0.75
-0.83
-0.63
-0.28
0.05
0.22
0.21
0.11
0.02
0.01
0.05
0.06
-0.06
-0.29
-0.52
-0.60
-0.46
-0.09
0.34
0.66
0.74
0.59
0.31
0.05
-0.12
-0.18
-0.16
-0.14
-0.16
-0.24
-0.35
-0.47
-0.54
-0.51
-0.37
-0.12
0.19
0.46
0.62
0.63
0.49
0.26
0.03
-0.17
-0.30
-0.35
-0.35
-0.32
-0.27
-0.22
-0.19
-0.16
-0.14
-0.13
-0.11
-0.07
-0.03
0.01
0.04
0.08
0.16
0.27
0.43
0.56
0.60
0.48
0.21
-0.13
-0.43
-0.61
-0.64
-0.57
-0.48
-0.43
-0.40
-0.34
-0.24
-0.13
-0.07
-0.12
-0.26
-0.41
-0.44
-0.26
0.07
0.45
0.71
0.75
0.57
0.28
0.02
-0.10
-0.02
0.17
0.38
0.52
0.58
0.61
0.68
0.84
1.02
1.14
1.09
0.84
0.45
0.03
-0.31
-0.50
-0.54
-0.47
-0.37
-0.26
-0.17
-0.13
-0.14
-0.21
-0.33
-0.47
-0.59
-0.67
-0.71
-0.73
-0.72
-0.67
-0.54
-0.32
-0.01
0.32
0.62
0.82
0.87
0.80
0.62
0.42
0.25
0.15
0.13
0.17
0.22
0.23
0.17
0.02
-0.20
-0.41
-0.55
-0.58
-0.47
-0.25
0.02
0.27
0.42
0.46
0.38
0.23
0.07
-0.06
-0.13
-0.15
-0.15
-0.15
-0.15
-0.13
-0.03
0.17
0.43
0.66
0.73
0.56
0.18
-0.31
-0.74
-0.97
-0.97
-0.80
-0.57
-0.37
-0.24
-0.17
-0.11
-0.02
0.10
0.22
0.29
0.32
0.28
0.22
0.16
0.12
0.08
0.01
-0.11
-0.27
-0.41
-0.47
-0.40
-0.21
0.06
0.31
0.50
0.63
0.74
0.86
0.98
1.03
0.96
0.76
0.49
0.23
0.06
-0.03
-0.10
-0.21
-0.38
-0.54
-0.61
-0.55
-0.40
-0.25
-0.19
-0.27
-0.44
-0.56
-0.57
-0.43
-0.21
0.01
0.18
0.28
0.30
0.24
0.06
-0.22
-0.54
-0.81
-0.92
-0.86
-0.67
-0.48
-0.36
-0.31
-0.25
-0.08
0.21
0.56
0.85
0.99
0.95
0.81
0.67
0.59
0.55
0.52
0.45
0.34
0.22
0.17
0.18
0.26
0.34
0.38
0.35
0.26
0.13
0.03
-0.04
-0.11
-0.18
-0.26
-0.32
-0.34
-0.31
-0.25
-0.21
-0.23
-0.31
-0.38
-0.40
-0.34
-0.24
-0.18
-0.24
-0.45
-0.73
-0.97
-1.07
-0.98
-0.74
-0.44
-0.18
0.00
0.08
0.09
0.06
0.02
-0.00
0.01
0.08
0.19
0.32
0.42
0.44
0.41
0.37
0.38
0.41
0.42
0.33
0.12
-0.15
-0.37
-0.46
-0.42
-0.30
-0.21
-0.17
-0.14
-0.03
0.21
0.54
0.86
1.05
1.07
0.96
0.80
0.65
0.57
0.57
0.62
0.72
0.81
0.87
0.81
0.61
0.26
-0.16
-0.56
-0.84
-0.92
-0.82
-0.60
-0.36
-0.19
-0.14
-0.15
-0.15
-0.07
0.08
0.24
0.29
0.17
-0.09
-0.37
-0.51
-0.43
-0.16
0.18
0.44
0.56
0.57
0.57
0.63
0.70
0.65
0.38
-0.10
-0.66
-1.03
-1.04
-0.65
-0.04
0.52
0.79
0.66
0.21
-0.39
-0.96
-1.36
-1.55
-1.57
-1.44
-1.19
-0.87
-0.51
-0.15
0.14
0.34
0.43
0.44
0.41
0.38
0.37
0.38
0.44
0.51
0.58
0.59
0.51
0.33
0.08
-0.17
-0.34
-0.40
-0.32
-0.15
0.05
0.19
0.21
0.09
-0.14
-0.39
-0.56
-0.59
-0.50
-0.33
-0.14
0.03
0.17
0.33
0.51
0.68
0.76
0.67
0.41
0.10
-0.13
-0.15
0.06
0.44
0.84
1.13
1.25
1.20
1.05
0.86
0.65
0.47
0.32
0.20
0.12
0.08
0.06
0.06
0.08
0.12
0.20
0.28
0.33
0.29
0.13
-0.14
-0.42
-0.64
-0.74
-0.72
-0.65
-0.59
-0.58
-0.61
-0.61
-0.54
-0.39
-0.21
-0.05
0.06
0.14
0.22
0.29
0.32
0.25
0.03
-0.28
-0.61
-0.85
-0.94
-0.87
-0.73
-0.57
-0.46
-0.38
-0.31
-0.21
-0.09
0.03
0.09
0.10
0.08
0.07
0.12
0.24
0.38
0.49
0.48
0.35
0.09
-0.21
-0.46
-0.59
-0.57
-0.45
-0.27
-0.08
0.10
0.28
0.44
0.57
0.59
0.46
0.18
-0.18
-0.52
-0.72
-0.69
-0.43
-0.03
0.36
0.60
0.62
0.48
0.30
0.22
0.30
0.48
0.63
0.61
0.42
0.15
-0.04
-0.05
0.12
0.33
0.42
0.33
0.11
-0.09
-0.18
-0.12
0.01
0.11
0.12
0.05
-0.04
-0.09
-0.08
-0.03
-0.02
-0.09
-0.26
-0.47
-0.64
-0.69
-0.61
-0.44
-0.28
-0.18
-0.17
-0.20
-0.17
-0.07
0.09
0.23
0.26
0.19
0.06
-0.02
0.01
0.12
0.24
0.27
0.18
-0.02
-0.25
-0.43
-0.48
-0.39
-0.18
0.12
0.42
0.68
0.81
0.75
0.51
0.12
-0.34
-0.75
-1.02
-1.12
-1.07
-0.92
-0.71
-0.47
-0.23
0.02
0.26
0.46
0.63
0.78
0.91
1.02
1.08
1.05
0.94
0.75
0.52
0.25
-0.07
-0.44
-0.81
-1.07
-1.11
-0.86
-0.40
0.12
0.50
0.64
0.56
0.39
0.26
0.28
0.41
0.56
0.64
0.57
0.36
0.08
-0.18
-0.34
-0.36
-0.24
-0.01
0.27
0.55
0.77
0.89
0.84
0.60
0.18
-0.33
-0.80
-1.09
-1.11
-0.85
-0.42
0.03
0.37
0.52
0.50
0.36
0.18
0.03
-0.05
-0.06
-0.04
-0.04
-0.10
-0.22
-0.32
-0.33
-0.22
-0.04
0.09
0.07
-0.11
-0.36
-0.51
-0.45
-0.23
0.05
0.19
0.14
-0.05
-0.21
-0.20
0.03
0.38
0.68
0.78
0.64
0.33
-0.01
-0.25
-0.32
-0.25
-0.11
0.03
0.11
0.13
0.13
0.11
0.08
0.01
-0.11
-0.27
-0.42
-0.51
-0.50
-0.40
-0.25
-0.11
-0.01
0.04
0.07
0.09
0.09
0.05
-0.04
-0.19
-0.38
-0.60
-0.81
-0.95
-0.95
-0.76
-0.39
0.08
0.53
0.82
0.87
0.67
0.33
-0.02
-0.27
-0.37
-0.33
-0.21
-0.08
0.04
0.13
0.18
0.15
-0.00
-0.25
-0.52
-0.67
-0.60
-0.29
0.15
0.54
0.71
0.60
0.33
0.08
0.02
0.24
0.66
1.13
1.51
1.72
1.73
1.57
1.27
0.86
0.40
-0.04
-0.37
-0.51
-0.46
-0.29
-0.13
-0.09
-0.23
-0.52
-0.85
-1.06
-1.04
-0.75
-0.27
0.26
0.64
0.75
0.53
0.10
-0.36
-0.66
-0.66
-0.39
0.03
0.44
0.68
0.71
0.59
0.41
0.24
0.09
-0.05
-0.22
-0.40
-0.57
-0.66
-0.66
-0.61
-0.54
-0.50
-0.49
-0.50
-0.50
-0.51
-0.55
-0.62
-0.68
-0.62
-0.37
0.07
0.60
1.06
1.32
1.34
1.21
1.02
0.85
0.70
0.51
0.23
-0.17
-0.60
-0.97
-1.18
-1.21
-1.09
-0.91
-0.75
-0.67
-0.63
-0.58
-0.46
-0.24
0.07
0.39
0.64
0.78
0.83
0.84
0.87
0.94
1.02
1.02
0.86
0.53
0.08
-0.35
-0.64
-0.71
-0.55
-0.28
-0.03
0.11
0.13
0.09
0.11
0.22
0.40
0.54
0.55
0.39
0.15
-0.02
-0.02
0.15
0.38
0.51
0.45
0.22
-0.03
-0.14
-0.04
0.22
0.47
0.55
0.39
0.05
-0.31
-0.55
-0.59
-0.45
-0.25
-0.10
-0.08
-0.16
-0.28
-0.32
-0.19
0.10
0.46
0.74
0.78
0.51
0.02
-0.54
-0.99
-1.22
-1.23
-1.11
-0.99
-0.89
-0.80
-0.64
-0.41
-0.12
0.13
0.27
0.28
0.23
0.22
0.30
0.46
0.64
0.77
0.79
0.71
0.60
0.53
0.55
0.65
0.74
0.73
0.58
0.32
0.03
-0.18
-0.26
-0.19
-0.07
0.03
0.05
-0.04
-0.17
-0.29
-0.34
-0.33
-0.28
-0.22
-0.14
-0.06
0.05
0.17
0.28
0.34
0.32
0.19
-0.03
-0.29
-0.51
-0.58
-0.45
-0.15
0.20
0.42
0.35
-0.02
-0.57
-1.06
-1.27
-1.08
-0.58
0.02
0.44
0.54
0.33
-0.06
-0.41
-0.56
-0.48
-0.22
0.07
0.25
0.26
0.13
-0.04
-0.13
-0.07
0.11
0.30
0.41
0.36
0.17
-0.08
-0.28
-0.35
-0.30
-0.21
-0.17
-0.21
-0.31
-0.40
-0.39
-0.24
0.01
0.28
0.47
0.51
0.40
0.20
-0.02
-0.19
-0.28
-0.25
-0.08
0.22
0.61
0.99
1.28
1.38
1.28
1.01
0.67
0.34
0.08
-0.08
-0.15
-0.14
-0.09
-0.03
0.02
0.06
0.13
0.29
0.55
0.86
1.12
1.18
0.96
0.48
-0.14
-0.71
-1.08
-1.19
-1.06
-0.79
-0.50
-0.29
-0.18
-0.18
-0.25
-0.33
-0.38
-0.39
-0.37
-0.35
-0.33
-0.33
-0.36
-0.42
-0.54
-0.71
-0.90
-1.03
-1.03
-0.86
-0.55
-0.21
0.09
0.27
0.33
0.33
0.34
0.41
0.55
0.70
0.82
0.86
0.79
0.61
0.38
0.17
0.06
0.14
0.39
0.75
1.08
1.25
1.19
0.94
0.59
0.27
0.03
-0.10
-0.16
-0.21
-0.29
-0.38
-0.48
-0.52
-0.48
-0.35
-0.18
-0.02
0.07
0.03
-0.10
-0.28
-0.40
-0.41
-0.30
-0.09
0.15
0.36
0.49
0.51
0.39
0.15
-0.19
-0.55
-0.84
-0.98
-0.94
-0.72
-0.41
-0.10
0.15
0.31
0.40
0.45
0.46
0.41
0.29
0.08
-0.15
-0.30
-0.27
-0.05
0.28
0.57
0.67
0.56
0.28
-0.01
-0.17
-0.17
-0.03
0.18
0.38
0.52
0.57
0.52
0.33
0.03
-0.36
-0.73
-1.00
-1.10
-1.05
-0.91
-0.75
-0.62
-0.52
-0.46
-0.42
-0.39
-0.31
-0.16
0.08
0.40
0.71
0.92
0.98
0.89
0.71
0.50
0.31
0.17
0.11
0.12
0.21
0.40
0.62
0.81
0.88
0.81
0.61
0.34
0.05
-0.21
-0.42
-0.55
-0.58
-0.49
-0.29
-0.07
0.11
0.15
0.02
-0.24
-0.56
-0.85
-1.03
-1.08
-0.99
-0.81
-0.56
-0.31
-0.08
0.08
0.16
0.12
-0.04
-0.28
-0.51
-0.64
-0.56
-0.26
0.22
0.71
1.08
1.23
1.13
0.88
0.57
0.32
0.17
0.12
0.12
0.11
0.05
-0.07
-0.23
-0.38
-0.46
-0.44
-0.34
-0.22
-0.11
-0.04
0.02
0.11
0.26
0.43
0.57
0.58
0.44
0.20
-0.07
-0.25
-0.29
-0.17
0.03
0.23
0.38
0.45
0.45
0.41
0.33
0.22
0.06
-0.12
-0.30
-0.41
-0.45
-0.41
-0.34
-0.28
-0.27
-0.30
-0.33
-0.32
-0.26
-0.16
-0.04
0.08
0.21
0.36
0.55
0.77
0.97
1.09
1.09
0.92
0.66
0.37
0.15
0.05
0.07
0.11
0.07
-0.12
-0.42
-0.74
-0.94
-0.95
-0.80
-0.58
-0.41
-0.35
-0.36
-0.37
-0.33
-0.25
-0.19
-0.23
-0.36
-0.51
-0.57
-0.41
-0.01
0.57
1.18
1.64
1.82
1.66
1.19
0.53
-0.16
-0.72
-1.02
-1.00
-0.70
-0.23
0.23
0.50
0.43
0.03
-0.59
-1.18
-1.51
-1.45
-1.05
-0.52
-0.07
0.13
0.10
-0.07
-0.22
-0.28
-0.28
-0.29
-0.37
-0.45
-0.46
-0.35
-0.16
0.00
0.04
-0.05
-0.17
-0.17
0.04
0.40
0.77
1.03
1.10
1.05
0.98
0.99
1.06
1.10
1.04
0.86
0.61
0.41
0.32
0.35
0.43
0.44
0.34
0.10
-0.21
-0.50
-0.73
-0.88
-0.99
-1.09
-1.17
-1.17
-1.01
-0.65
-0.14
0.44
0.94
1.26
1.37
1.28
1.06
0.75
0.38
0.01
-0.31
-0.50
-0.52
-0.39
-0.17
0.03
0.16
0.21
0.24
0.29
0.38
0.46
0.46
0.35
0.10
-0.25
-0.62
-0.94
-1.15
-1.24
-1.20
-1.09
-0.94
-0.80
-0.71
-0.67
-0.66
-0.63
-0.54
-0.36
-0.12
0.14
0.36
0.51
0.60
0.63
0.61
0.54
0.40
0.20
-0.02
-0.17
-0.19
-0.06
0.18
0.42
0.57
0.57
0.47
0.35
0.28
0.27
0.28
0.22
0.05
-0.21
-0.49
-0.67
-0.71
-0.58
-0.34
-0.04
0.26
0.51
0.66
0.70
0.64
0.54
0.46
0.46
0.52
0.60
0.61
0.51
0.34
0.17
0.07
0.08
0.17
0.26
0.28
0.19
0.05
-0.08
-0.13
-0.07
0.04
0.12
0.08
-0.09
-0.38
-0.68
-0.90
-0.96
-0.85
-0.65
-0.47
-0.41
-0.51
-0.73
-0.98
-1.12
-1.08
-0.81
-0.35
0.23
0.83
1.35
1.68
1.73
1.47
0.93
0.25
-0.35
-0.69
-0.66
-0.32
0.17
0.58
0.74
0.62
0.36
0.15
0.12
0.31
0.61
0.84
0.90
0.73
0.42
0.07
-0.21
-0.41
-0.55
-0.72
-0.93
-1.12
-1.21
-1.07
-0.69
-0.17
0.32
0.59
0.56
0.31
0.01
-0.16
-0.13
0.05
0.25
0.34
0.28
0.14
0.01
-0.06
-0.07
-0.07
-0.06
-0.03
0.08
0.26
0.45
0.53
0.44
0.19
-0.10
-0.28
-0.30
-0.19
-0.07
-0.07
-0.24
-0.52
-0.79
-0.90
-0.79
-0.46
-0.02
0.42
0.76
0.94
0.99
0.98
0.93
0.87
0.73
0.45
0.02
-0.49
-0.95
-1.18
-1.10
-0.73
-0.22
0.20
0.39
0.30
0.05
-0.18
-0.28
-0.23
-0.14
-0.13
-0.26
-0.48
-0.67
-0.75
-0.68
-0.53
-0.39
-0.32
-0.31
-0.30
-0.24
-0.07
0.20
0.53
0.85
1.06
1.06
0.83
0.40
-0.12
-0.55
-0.78
-0.80
-0.66
-0.48
-0.34
-0.25
-0.14
0.04
0.31
0.59
0.77
0.77
0.58
0.30
0.08
0.05
0.24
0.55
0.85
1.00
0.95
0.75
0.51
0.29
0.12
-0.06
-0.30
-0.60
-0.88
-1.01
-0.92
-0.61
-0.17
0.25
0.53
0.62
0.55
0.35
0.07
-0.26
-0.62
-0.93
-1.10
-1.05
-0.79
-0.41
-0.02
0.26
0.39
0.37
0.28
0.17
0.10
0.09
0.18
0.33
0.53
0.73
0.86
0.89
0.81
0.64
0.40
0.17
-0.02
-0.13
-0.16
-0.15
-0.14
-0.15
-0.19
-0.23
-0.24
-0.21
-0.15
-0.08
0.03
0.20
0.42
0.65
0.80
0.75
0.48
0.05
-0.41
-0.76
-0.94
-0.94
-0.82
-0.62
-0.38
-0.16
0.02
0.09
0.02
-0.17
-0.42
-0.65
-0.78
-0.80
-0.74
-0.62
-0.46
-0.28
-0.08
0.11
0.24
0.33
0.38
0.42
0.49
0.60
0.72
0.82
0.89
0.90
0.85
0.72
0.51
0.27
0.05
-0.06
0.01
0.24
0.53
0.73
0.73
0.47
0.04
-0.42
-0.74
-0.80
-0.64
-0.34
-0.08
0.03
-0.06
-0.31
-0.59
-0.80
-0.87
-0.81
-0.65
-0.46
-0.29
-0.16
-0.05
0.05
0.20
0.40
0.64
0.89
1.05
1.06
0.89
0.54
0.13
-0.24
-0.44
-0.45
-0.28
-0.04
0.17
0.29
0.27
0.17
0.04
-0.08
-0.17
-0.25
-0.35
-0.47
-0.55
-0.53
-0.35
-0.02
0.38
0.74
0.93
0.92
0.78
0.60
0.45
0.38
0.33
0.24
0.10
-0.07
-0.22
-0.31
-0.33
-0.29
-0.22
-0.14
-0.08
-0.03
-0.03
-0.09
-0.23
-0.41
-0.59
-0.68
-0.66
-0.54
-0.34
-0.10
0.15
0.36
0.50
0.51
0.37
0.08
-0.28
-0.61
-0.82
-0.86
-0.73
-0.47
-0.11
0.29
0.66
0.89
0.88
0.56
0.01
-0.58
-1.01
-1.14
-0.99
-0.70
-0.42
-0.24
-0.13
-0.02
0.17
0.39
0.54
0.50
0.24
-0.16
-0.53
-0.73
-0.66
-0.37
0.05
0.45
0.72
0.82
0.77
0.68
0.62
0.64
0.72
0.77
0.72
0.54
0.28
0.04
-0.07
-0.05
0.08
0.23
0.29
0.23
0.09
-0.08
-0.20
-0.23
-0.20
-0.13
-0.08
-0.08
-0.12
-0.21
-0.31
-0.43
-0.51
-0.56
-0.54
-0.44
-0.26
-0.03
0.19
0.35
0.40
0.32
0.14
-0.09
-0.29
-0.38
-0.31
-0.12
0.15
0.40
0.57
0.67
0.75
0.83
0.87
0.82
0.61
0.27
-0.08
-0.28
-0.22
0.08
0.45
0.69
0.67
0.38
-0.04
-0.43
-0.67
-0.73
-0.67
-0.59
-0.58
-0.64
-0.76
-0.85
-0.89
-0.85
-0.76
-0.68
-0.64
-0.62
-0.60
-0.53
-0.39
-0.22
-0.07
0.03
0.05
0.05
0.09
0.21
0.38
0.56
0.68
0.72
0.70
0.66
0.60
0.51
0.34
0.10
-0.18
-0.41
-0.52
-0.46
-0.26
0.05
0.38
0.70
0.96
1.11
1.12
0.97
0.71
0.39
0.07
-0.20
-0.42
-0.59
-0.69
-0.74
-0.74
-0.73
-0.76
-0.83
-0.89
-0.88
-0.72
-0.37
0.09
0.56
0.93
1.12
1.12
0.98
0.79
0.61
0.52
0.54
0.66
0.83
0.98
1.05
1.01
0.86
0.63
0.36
0.10
-0.13
-0.29
-0.39
-0.45
-0.51
-0.60
-0.75
-0.94
-1.08
-1.09
-0.89
-0.47
0.05
0.51
0.75
0.73
0.50
0.22
0.03
-0.03
0.01
0.04
0.02
-0.01
0.03
0.22
0.53
0.85
1.06
1.06
0.87
0.58
0.30
0.11
0.02
-0.02
-0.08
-0.23
-0.48
-0.79
-1.07
-1.21
-1.17
-0.96
-0.68
-0.43
-0.32
-0.35
-0.45
-0.53
-0.49
-0.31
-0.01
0.32
0.61
0.80
0.88
0.87
0.81
0.72
0.61
0.45
0.26
0.03
-0.18
-0.34
-0.46
-0.56
-0.65
-0.75
-0.80
-0.72
-0.49
-0.11
0.30
0.60
0.71
0.61
0.33
-0.04
-0.42
-0.77
-1.04
-1.22
-1.27
-1.18
-0.94
-0.58
-0.15
0.28
0.60
0.75
0.66
0.37
-0.01
-0.34
-0.46
-0.36
-0.10
0.18
0.39
0.50
0.53
0.51
0.43
0.25
-0.06
-0.46
-0.81
-0.98
-0.90
-0.61
-0.25
0.03
0.17
0.19
0.21
0.33
0.55
0.83
1.07
1.20
1.24
1.23
1.25
1.31
1.37
1.32
1.08
0.66
0.15
-0.26
-0.44
-0.35
-0.09
0.17
0.23
0.04
-0.35
-0.79
-1.14
-1.32
-1.32
-1.24
-1.12
-0.99
-0.82
-0.59
-0.30
-0.04
0.11
0.12
-0.00
-0.19
-0.35
-0.43
-0.42
-0.34
-0.23
-0.07
0.14
0.41
0.69
0.89
0.92
0.75
0.42
0.03
-0.26
-0.36
-0.30
-0.14
-0.03
-0.03
-0.12
-0.22
-0.22
-0.08
0.16
0.40
0.55
0.58
0.53
0.45
0.38
0.32
0.23
0.09
-0.09
-0.27
-0.37
-0.33
-0.18
0.04
0.25
0.38
0.41
0.39
0.37
0.40
0.48
0.58
0.64
0.62
0.50
0.29
0.05
-0.19
-0.38
-0.49
-0.47
-0.34
-0.09
0.23
0.53
0.74
0.79
0.65
0.34
-0.05
-0.38
-0.55
-0.52
-0.33
-0.10
0.05
0.07
-0.02
-0.13
-0.22
-0.27
-0.33
-0.42
-0.56
-0.66
-0.68
-0.59
-0.45
-0.31
-0.23
-0.23
-0.27
-0.32
-0.36
-0.38
-0.37
-0.35
-0.29
-0.19
-0.08
-0.03
-0.10
-0.31
-0.62
-0.92
-1.11
-1.09
-0.85
-0.48
-0.10
0.15
0.24
0.18
0.09
0.08
0.19
0.42
0.67
0.86
0.93
0.86
0.69
0.45
0.22
0.06
0.00
0.08
0.26
0.48
0.63
0.65
0.55
0.39
0.27
0.23
0.26
0.32
0.35
0.33
0.29
0.26
0.27
0.31
0.36
0.42
0.46
0.46
0.40
0.26
0.07
-0.12
-0.26
-0.30
-0.23
-0.11
0.03
0.16
0.24
0.28
0.26
0.18
0.07
-0.02
-0.06
-0.04
-0.04
-0.10
-0.29
-0.57
-0.82
-0.93
-0.81
-0.51
-0.16
0.08
0.12
-0.02
-0.23
-0.38
-0.40
-0.32
-0.21
-0.11
-0.05
0.00
0.08
0.19
0.28
0.29
0.20
0.01
-0.22
-0.43
-0.57
-0.61
-0.54
-0.38
-0.14
0.11
0.31
0.41
0.41
0.37
0.39
0.57
0.91
1.30
1.58
1.56
1.19
0.56
-0.12
-0.65
-0.90
-0.91
-0.79
-0.69
-0.66
-0.69
-0.76
-0.81
-0.86
-0.92
-0.96
-0.94
-0.82
-0.54
-0.14
0.31
0.77
1.16
1.46
1.63
1.61
1.39
0.96
0.41
-0.12
-0.53
-0.74
-0.74
-0.61
-0.40
-0.17
0.05
0.24
0.42
0.56
0.66
0.68
0.61
0.44
0.19
-0.10
-0.37
-0.57
-0.66
-0.63
-0.51
-0.35
-0.22
-0.15
-0.18
-0.29
-0.45
-0.61
-0.71
-0.73
-0.66
-0.53
-0.36
-0.14
0.11
0.41
0.71
0.92
1.00
0.90
0.69
0.46
0.31
0.27
0.30
0.31
0.24
0.11
-0.03
-0.10
-0.07
0.02
0.10
0.08
-0.05
-0.28
-0.55
-0.77
-0.87
-0.82
-0.60
-0.24
0.16
0.53
0.79
0.90
0.82
0.57
0.22
-0.17
-0.49
-0.67
-0.68
-0.55
-0.35
-0.14
0.04
0.20
0.35
0.46
0.47
0.34
0.09
-0.21
-0.43
-0.48
-0.37
-0.23
-0.16
-0.23
-0.40
-0.53
-0.51
-0.28
0.09
0.46
0.69
0.75
0.65
0.46
0.25
0.03
-0.22
-0.49
-0.77
-1.00
-1.10
-1.03
-0.80
-0.47
-0.11
0.21
0.46
0.60
0.64
0.61
0.53
0.46
0.45
0.52
0.69
0.90
1.07
1.11
0.96
0.64
0.24
-0.14
-0.42
-0.56
-0.59
-0.53
-0.42
-0.28
-0.15
-0.05
0.00
-0.02
-0.08
-0.13
-0.10
0.04
0.29
0.57
0.79
0.88
0.77
0.51
0.17
-0.15
-0.33
-0.36
-0.25
-0.10
0.01
0.05
0.01
-0.04
-0.08
-0.10
-0.13
-0.20
-0.32
-0.43
-0.49
-0.46
-0.38
-0.34
-0.39
-0.55
-0.74
-0.84
-0.77
-0.51
-0.16
0.16
0.34
0.37
0.30
0.21
0.15
0.12
0.12
0.11
0.14
0.21
0.34
0.48
0.55
0.49
0.31
0.06
-0.14
-0.21
-0.14
0.01
0.14
0.18
0.11
-0.00
-0.05
0.07
0.36
0.76
1.13
1.31
1.23
0.92
0.52
0.17
0.00
0.02
0.15
0.27
0.30
0.22
0.09
-0.04
-0.11
-0.15
-0.19
-0.26
-0.36
-0.47
-0.53
-0.50
-0.41
-0.31
-0.28
-0.41
-0.68
-1.00
-1.25
-1.30
-1.15
-0.87
-0.59
-0.39
-0.26
-0.14
0.05
0.29
0.50
0.57
0.44
0.21
0.05
0.13
0.48
0.99
1.43
1.57
1.35
0.86
0.34
0.01
-0.05
0.11
0.30
0.36
0.22
-0.04
-0.27
-0.35
-0.25
-0.06
0.08
0.08
-0.08
-0.32
-0.53
-0.60
-0.53
-0.38
-0.23
-0.15
-0.14
-0.14
-0.11
-0.04
0.04
0.05
-0.03
-0.16
-0.25
-0.20
0.04
0.38
0.67
0.77
0.59
0.19
-0.30
-0.71
-0.90
-0.85
-0.64
-0.35
-0.06
0.24
0.58
0.96
1.32
1.50
1.39
0.96
0.32
-0.32
-0.74
-0.83
-0.63
-0.29
0.04
0.26
0.36
0.37
0.32
0.21
0.03
-0.22
-0.50
-0.73
-0.82
-0.74
-0.52
-0.25
-0.02
0.09
0.07
-0.06
-0.27
-0.52
-0.79
-1.02
-1.11
-1.02
-0.70
-0.19
0.38
0.88
1.20
1.29
1.17
0.91
0.58
0.24
-0.03
-0.20
-0.24
-0.20
-0.16
-0.22
-0.40
-0.66
-0.90
-1.04
-1.06
-1.00
-0.92
-0.85
-0.76
-0.62
-0.40
-0.16
0.03
0.10
0.07
0.02
0.05
0.25
0.58
0.93
1.18
1.26
1.19
1.06
0.94
0.84
0.69
0.40
-0.03
-0.51
-0.85
-0.90
-0.63
-0.17
0.30
0.60
0.67
0.55
0.39
0.29
0.29
0.36
0.45
0.53
0.60
0.67
0.71
0.66
0.46
0.07
-0.46
-1.01
-1.40
-1.50
-1.26
-0.75
-0.12
0.45
0.84
0.99
0.95
0.81
0.64
0.48
0.30
0.09
-0.18
-0.47
-0.72
-0.89
-0.96
-0.92
-0.78
-0.59
-0.38
-0.20
-0.14
-0.21
-0.42
-0.68
-0.83
-0.76
-0.43
0.09
0.63
1.02
1.15
1.06
0.83
0.61
0.51
0.54
0.64
0.70
0.61
0.37
0.00
-0.39
-0.71
-0.90
-0.95
-0.91
-0.82
-0.73
-0.63
-0.52
-0.38
-0.22
-0.05
0.08
0.13
0.09
-0.03
-0.17
-0.25
-0.22
-0.09
0.11
0.29
0.40
0.42
0.39
0.37
0.36
0.37
0.34
0.25
0.11
-0.01
-0.07
-0.03
0.08
0.17
0.20
0.14
0.00
-0.18
-0.37
-0.50
-0.56
-0.51
-0.35
-0.12
0.12
0.32
0.42
0.40
0.28
0.12
-0.04
-0.12
-0.07
0.11
0.40
0.70
0.93
1.01
0.94
0.79
0.64
0.55
0.55
0.63
0.76
0.88
0.93
0.90
0.79
0.67
0.59
0.57
0.55
0.44
0.16
-0.25
-0.64
-0.82
-0.65
-0.21
0.29
0.60
0.52
0.09
-0.56
-1.19
-1.65
-1.86
-1.83
-1.61
-1.23
-0.72
-0.18
0.28
0.54
0.52
0.26
-0.11
-0.40
-0.48
-0.33
-0.04
0.22
0.30
0.16
-0.15
-0.48
-0.70
-0.72
-0.54
-0.22
0.17
0.57
0.93
1.19
1.29
1.18
0.86
0.42
-0.05
-0.40
-0.57
-0.55
-0.43
-0.27
-0.15
-0.09
-0.09
-0.13
-0.21
-0.31
-0.38
-0.38
-0.28
-0.12
0.04
0.11
0.02
-0.17
-0.38
-0.47
-0.36
-0.10
0.18
0.34
0.28
0.02
-0.30
-0.51
-0.50
-0.28
0.07
0.42
0.66
0.75
0.71
0.57
0.36
0.11
-0.14
-0.35
-0.46
-0.41
-0.21
0.08
0.38
0.59
0.66
0.59
0.40
0.12
-0.21
-0.55
-0.85
-1.07
-1.16
-1.11
-0.93
-0.69
-0.45
-0.27
-0.20
-0.21
-0.28
-0.36
-0.41
-0.41
-0.32
-0.10
0.25
0.67
1.06
1.30
1.30
1.08
0.72
0.36
0.09
-0.06
-0.15
-0.21
-0.23
-0.17
0.03
0.39
0.81
1.15
1.26
1.09
0.68
0.16
-0.32
-0.67
-0.80
-0.72
-0.46
-0.08
0.32
0.62
0.75
0.69
0.49
0.26
0.08
-0.01
-0.02
0.00
0.02
0.02
0.03
0.05
0.06
0.02
-0.08
-0.23
-0.37
-0.47
-0.49
-0.46
-0.40
-0.33
-0.25
-0.14
-0.01
0.15
0.30
0.40
0.42
0.37
0.26
0.14
0.06
0.01
-0.01
-0.03
-0.06
-0.09
-0.09
-0.01
0.10
0.20
0.21
0.10
-0.07
-0.24
-0.30
-0.25
-0.12
0.00
0.08
0.13
0.18
0.23
0.23
0.13
-0.12
-0.45
-0.76
-0.92
-0.88
-0.67
-0.40
-0.16
0.00
0.10
0.15
0.16
0.13
0.02
-0.16
-0.34
-0.48
-0.53
-0.50
-0.43
-0.36
-0.29
-0.23
-0.20
-0.20
-0.27
-0.41
-0.57
-0.67
-0.63
-0.42
-0.11
0.19
0.37
0.40
0.34
0.32
0.41
0.62
0.88
1.05
1.05
0.84
0.50
0.13
-0.14
-0.21
-0.06
0.22
0.51
0.69
0.68
0.49
0.22
-0.03
-0.14
-0.09
0.11
0.39
0.66
0.87
0.95
0.90
0.75
0.55
0.35
0.18
0.02
-0.17
-0.40
-0.65
-0.85
-0.91
-0.81
-0.56
-0.24
0.06
0.30
0.45
0.52
0.52
0.49
0.42
0.32
0.20
0.06
-0.11
-0.31
-0.51
-0.68
-0.74
-0.67
-0.48
-0.25
-0.08
-0.03
-0.12
-0.27
-0.39
-0.37
-0.20
0.08
0.35
0.51
0.48
0.29
0.02
-0.25
-0.46
-0.60
-0.65
-0.63
-0.52
-0.32
-0.06
0.20
0.39
0.49
0.48
0.43
0.37
0.31
0.24
0.14
0.04
0.01
0.11
0.36
0.65
0.88
0.92
0.77
0.48
0.18
-0.02
-0.09
-0.05
0.05
0.16
0.24
0.26
0.22
0.11
-0.06
-0.23
-0.31
-0.27
-0.12
0.06
0.17
0.15
0.05
-0.06
-0.09
-0.02
0.11
0.20
0.18
0.06
-0.08
-0.17
-0.18
-0.13
-0.11
-0.21
-0.45
-0.77
-1.10
-1.31
-1.37
-1.25
-1.02
-0.76
-0.57
-0.50
-0.55
-0.67
-0.74
-0.70
-0.52
-0.30
-0.10
-0.02
-0.03
-0.05
0.01
0.17
0.36
0.51
0.54
0.46
0.36
0.33
0.40
0.50
0.52
0.35
0.03
-0.33
-0.59
-0.64
-0.50
-0.22
0.11
0.41
0.67
0.88
1.02
1.07
1.00
0.85
0.68
0.58
0.61
0.75
0.89
0.94
0.80
0.52
0.18
-0.07
-0.15
-0.03
0.21
0.46
0.65
0.73
0.75
0.73
0.72
0.67
0.48
0.10
-0.46
-1.07
-1.55
-1.71
-1.49
-0.96
-0.33
0.19
0.42
0.31
-0.06
-0.53
-0.90
-1.03
-0.92
-0.67
-0.45
-0.38
-0.46
-0.60
-0.67
-0.58
-0.36
-0.09
0.13
0.28
0.41
0.59
0.84
1.05
1.11
0.96
0.64
0.31
0.09
0.07
0.19
0.34
0.38
0.28
0.08
-0.12
-0.25
-0.30
-0.28
-0.21
-0.14
-0.07
-0.03
-0.03
-0.06
-0.12
-0.17
-0.20
-0.22
-0.25
-0.33
-0.46
-0.59
-0.68
-0.69
-0.62
-0.48
-0.29
-0.05
0.24
0.53
0.73
0.78
0.66
0.44
0.24
0.14
0.16
0.21
0.20
0.09
-0.07
-0.21
-0.25
-0.20
-0.13
-0.10
-0.13
-0.18
-0.18
-0.09
0.06
0.21
0.27
0.20
0.05
-0.10
-0.16
-0.08
0.10
0.31
0.48
0.55
0.55
0.49
0.42
0.36
0.28
0.20
0.14
0.16
0.29
0.52
0.75
0.87
0.79
0.50
0.11
-0.24
-0.42
-0.42
-0.27
-0.08
0.05
0.07
-0.03
-0.21
-0.42
-0.60
-0.68
-0.65
-0.53
-0.41
-0.35
-0.39
-0.51
-0.63
-0.69
-0.64
-0.48
-0.27
-0.06
0.14
0.29
0.41
0.45
0.39
0.21
-0.07
-0.43
-0.79
-1.08
-1.25
-1.23
-1.00
-0.61
-0.14
0.32
0.67
0.86
0.93
0.94
0.91
0.86
0.75
0.55
0.26
-0.01
-0.15
-0.08
0.19
0.58
0.91
1.06
0.98
0.74
0.46
0.23
0.10
0.02
-0.09
-0.26
-0.45
-0.56
-0.52
-0.30
0.03
0.34
0.51
0.51
0.37
0.18
0.05
-0.01
-0.02
-0.04
-0.10
-0.24
-0.41
-0.59
-0.72
-0.77
-0.71
-0.56
-0.35
-0.13
0.02
0.04
-0.06
-0.27
-0.50
-0.65
-0.66
-0.53
-0.32
-0.10
0.08
0.20
0.29
0.34
0.38
0.39
0.37
0.35
0.38
0.45
0.56
0.64
0.62
0.46
0.20
-0.08
-0.27
-0.34
-0.28
-0.19
-0.15
-0.21
-0.37
-0.53
-0.59
-0.48
-0.20
0.14
0.42
0.51
0.38
0.11
-0.17
-0.31
-0.21
0.12
0.57
0.99
1.25
1.28
1.07
0.71
0.29
-0.08
-0.38
-0.62
-0.82
-0.95
-0.97
-0.84
-0.58
-0.30
-0.14
-0.24
-0.59
-1.05
-1.41
-1.48
-1.19
-0.61
0.07
0.71
1.17
1.43
1.49
1.40
1.18
0.88
0.56
0.29
0.12
0.05
0.10
0.23
0.44
0.65
0.80
0.81
0.63
0.31
-0.07
-0.39
-0.59
-0.63
-0.58
-0.50
-0.45
-0.41
-0.37
-0.31
-0.23
-0.18
-0.21
-0.32
-0.47
-0.59
-0.58
-0.42
-0.13
0.18
0.40
0.47
0.38
0.20
0.00
-0.13
-0.18
-0.14
-0.05
0.08
0.20
0.30
0.32
0.26
0.11
-0.09
-0.31
-0.50
-0.61
-0.58
-0.40
-0.11
0.21
0.43
0.48
0.36
0.15
-0.01
-0.06
-0.01
0.05
0.06
0.02
-0.02
-0.00
0.06
0.11
0.05
-0.14
-0.40
-0.62
-0.73
-0.72
-0.66
-0.62
-0.61
-0.61
-0.58
-0.50
-0.37
-0.24
-0.12
0.00
0.15
0.33
0.52
0.66
0.72
0.70
0.64
0.61
0.61
0.66
0.70
0.73
0.74
0.73
0.72
0.67
0.58
0.46
0.34
0.28
0.33
0.47
0.68
0.86
0.95
0.91
0.75
0.53
0.31
0.10
-0.11
-0.31
-0.51
-0.67
-0.78
-0.82
-0.81
-0.81
-0.84
-0.87
-0.84
-0.70
-0.43
-0.11
0.16
0.27
0.21
0.02
-0.18
-0.32
-0.38
-0.37
-0.35
-0.35
-0.35
-0.33
-0.26
-0.12
0.06
0.23
0.35
0.38
0.30
0.12
-0.10
-0.31
-0.45
-0.47
-0.36
-0.16
0.03
0.11
0.03
-0.18
-0.43
-0.58
-0.55
-0.35
-0.05
0.24
0.45
0.58
0.64
0.68
0.69
0.67
0.57
0.41
0.22
0.05
-0.02
-0.01
0.10
0.26
0.43
0.53
0.50
0.32
0.01
-0.32
-0.55
-0.57
-0.35
0.01
0.40
0.66
0.73
0.60
0.36
0.11
-0.07
-0.15
-0.15
-0.12
-0.09
-0.06
-0.01
0.14
0.41
0.75
1.05
1.18
1.10
0.82
0.49
0.20
0.04
-0.01
-0.03
-0.06
-0.13
-0.22
-0.30
-0.37
-0.44
-0.52
-0.58
-0.61
-0.58
-0.52
-0.50
-0.55
-0.71
-0.91
-1.07
-1.11
-0.99
-0.77
-0.53
-0.36
-0.26
-0.21
-0.16
-0.09
-0.01
0.03
0.02
-0.00
0.04
0.20
0.41
0.57
0.57
0.38
0.12
-0.05
-0.02
0.18
0.40
0.45
0.22
-0.21
-0.65
-0.92
-0.91
-0.68
-0.37
-0.13
-0.00
0.03
0.06
0.14
0.28
0.45
0.58
0.64
0.63
0.58
0.49
0.37
0.23
0.07
-0.08
-0.21
-0.27
-0.28
-0.24
-0.19
-0.18
-0.21
-0.28
-0.35
-0.40
-0.44
-0.46
-0.46
-0.42
-0.28
-0.02
0.35
0.76
1.09
1.28
1.29
1.16
0.95
0.67
0.34
-0.03
-0.39
-0.62
-0.65
-0.45
-0.11
0.20
0.34
0.26
-0.01
-0.36
-0.66
-0.84
-0.85
-0.73
-0.50
-0.23
0.03
0.23
0.33
0.34
0.27
0.14
-0.03
-0.22
-0.39
-0.48
-0.41
-0.16
0.22
0.58
0.77
0.67
0.30
-0.21
-0.64
-0.85
-0.76
-0.46
-0.10
0.16
0.26
0.27
0.29
0.42
0.64
0.82
0.82
0.60
0.20
-0.22
-0.48
-0.49
-0.29
-0.02
0.19
0.29
0.28
0.26
0.25
0.25
0.23
0.15
0.06
0.02
0.12
0.34
0.58
0.70
0.58
0.23
-0.23
-0.65
-0.88
-0.87
-0.70
-0.45
-0.22
-0.02
0.16
0.39
0.67
0.94
1.10
1.09
0.90
0.59
0.27
0.02
-0.12
-0.15
-0.15
-0.14
-0.18
-0.28
-0.45
-0.65
-0.85
-0.97
-0.95
-0.80
-0.56
-0.31
-0.11
0.04
0.18
0.35
0.54
0.71
0.75
0.64
0.39
0.07
-0.24
-0.46
-0.57
-0.56
-0.43
-0.21
0.08
0.35
0.51
0.51
0.36
0.12
-0.11
-0.27
-0.34
-0.33
-0.27
-0.17
-0.02
0.16
0.34
0.43
0.41
0.29
0.14
0.06
0.06
0.10
0.11
0.04
-0.13
-0.36
-0.56
-0.69
-0.75
-0.72
-0.60
-0.39
-0.07
0.31
0.68
0.95
1.09
1.07
0.92
0.68
0.40
0.16
0.03
0.02
0.12
0.27
0.38
0.39
0.27
0.07
-0.14
-0.29
-0.32
-0.25
-0.14
-0.07
-0.11
-0.27
-0.51
-0.71
-0.74
-0.55
-0.20
0.15
0.31
0.19
-0.17
-0.60
-0.91
-1.00
-0.89
-0.71
-0.56
-0.47
-0.38
-0.17
0.18
0.61
0.97
1.14
1.08
0.86
0.58
0.35
0.21
0.13
0.09
0.08
0.10
0.19
0.32
0.42
0.39
0.19
-0.17
-0.55
-0.82
-0.89
-0.76
-0.49
-0.21
0.01
0.16
0.25
0.31
0.37
0.41
0.43
0.42
0.42
0.41
0.39
0.30
0.14
-0.08
-0.27
-0.38
-0.39
-0.34
-0.30
-0.31
-0.37
-0.43
-0.45
-0.42
-0.37
-0.35
-0.39
-0.45
-0.49
-0.47
-0.37
-0.22
-0.06
0.05
0.11
0.18
0.31
0.57
0.95
1.37
1.71
1.83
1.68
1.29
0.76
0.25
-0.14
-0.34
-0.41
-0.37
-0.28
-0.14
0.05
0.27
0.44
0.48
0.32
-0.05
-0.55
-1.06
-1.48
-1.71
-1.74
-1.59
-1.30
-0.92
-0.55
-0.23
-0.04
0.03
0.01
-0.04
-0.05
-0.02
0.04
0.11
0.17
0.21
0.23
0.23
0.20
0.13
0.07
0.07
0.18
0.38
0.61
0.76
0.75
0.60
0.35
0.12
-0.02
-0.01
0.13
0.36
0.62
0.84
0.97
0.93
0.71
0.35
-0.06
-0.43
-0.66
-0.72
-0.63
-0.48
-0.35
-0.29
-0.31
-0.38
-0.45
-0.50
-0.55
-0.62
-0.71
-0.79
-0.81
-0.74
-0.56
-0.31
-0.04
0.20
0.39
0.53
0.60
0.60
0.52
0.38
0.24
0.18
0.22
0.39
0.61
0.85
1.04
1.16
1.18
1.07
0.80
0.38
-0.09
-0.49
-0.67
-0.57
-0.22
0.23
0.62
0.81
0.78
0.61
0.39
0.20
0.08
-0.01
-0.12
-0.27
-0.46
-0.65
-0.79
-0.87
-0.88
-0.83
-0.76
-0.71
-0.67
-0.65
-0.61
-0.52
-0.32
-0.03
0.31
0.61
0.78
0.77
0.60
0.35
0.12
0.01
0.05
0.20
0.39
0.53
0.60
0.56
0.42
0.19
-0.11
-0.41
-0.65
-0.73
-0.63
-0.38
-0.06
0.23
0.40
0.43
0.36
0.21
0.03
-0.13
-0.21
-0.20
-0.09
0.08
0.22
0.26
0.16
-0.07
-0.39
-0.73
-1.02
-1.20
-1.21
-1.03
-0.70
-0.29
0.08
0.32
0.40
0.36
0.26
0.17
0.10
0.06
0.03
0.04
0.10
0.24
0.42
0.58
0.65
0.56
0.33
0.03
-0.25
-0.43
-0.47
-0.36
-0.14
0.19
0.56
0.90
1.11
1.12
0.95
0.65
0.37
0.20
0.15
0.17
0.12
-0.06
-0.34
-0.63
-0.79
-0.76
-0.57
-0.32
-0.13
-0.08
-0.15
-0.28
-0.37
-0.35
-0.23
-0.05
0.13
0.26
0.33
0.37
0.35
0.28
0.13
-0.11
-0.39
-0.65
-0.81
-0.85
-0.76
-0.57
-0.32
-0.05
0.18
0.29
0.23
0.00
-0.32
-0.62
-0.79
-0.76
-0.55
-0.22
0.13
0.47
0.75
0.98
1.16
1.25
1.25
1.15
0.94
0.64
0.28
-0.06
-0.26
-0.26
-0.03
0.36
0.74
0.95
0.91
0.64
0.27
-0.04
-0.20
-0.18
-0.08
0.01
0.01
-0.07
-0.20
-0.35
-0.48
-0.60
-0.70
-0.76
-0.75
-0.67
-0.51
-0.32
-0.15
-0.00
0.09
0.14
0.13
0.08
-0.02
-0.16
-0.28
-0.34
-0.29
-0.18
-0.06
0.01
0.02
0.00
0.03
0.13
0.27
0.33
0.20
-0.12
-0.56
-0.92
-1.04
-0.83
-0.36
0.20
0.65
0.84
0.76
0.50
0.20
-0.01
-0.09
-0.05
0.04
0.17
0.29
0.41
0.52
0.54
0.47
0.28
0.02
-0.22
-0.35
-0.35
-0.25
-0.12
-0.07
-0.14
-0.30
-0.47
-0.54
-0.43
-0.12
0.31
0.72
0.96
0.97
0.77
0.46
0.16
-0.06
-0.20
-0.32
-0.42
-0.49
-0.49
-0.42
-0.29
-0.18
-0.16
-0.24
-0.41
-0.61
-0.75
-0.81
-0.77
-0.66
-0.51
-0.30
-0.04
0.29
0.67
1.02
1.23
1.20
0.90
0.44
-0.02
-0.31
-0.36
-0.23
-0.07
0.02
0.03
0.03
0.07
0.17
0.26
0.26
0.15
0.02
-0.03
0.06
0.27
0.48
0.55
0.44
0.18
-0.10
-0.35
-0.50
-0.58
-0.61
-0.62
-0.59
-0.53
-0.45
-0.34
-0.21
-0.05
0.13
0.30
0.43
0.48
0.46
0.40
0.35
0.37
0.45
0.55
0.62
0.60
0.48
0.29
0.07
-0.14
-0.29
-0.35
-0.32
-0.18
0.04
0.26
0.41
0.40
0.20
-0.12
-0.46
-0.66
-0.65
-0.45
-0.21
-0.05
-0.06
-0.16
-0.19
0.00
0.45
1.01
1.48
1.69
1.58
1.21
0.74
0.26
-0.19
-0.64
-1.10
-1.48
-1.69
-1.63
-1.30
-0.81
-0.32
0.01
0.14
0.13
0.07
0.09
0.21
0.38
0.50
0.46
0.26
-0.04
-0.30
-0.39
-0.26
0.03
0.38
0.64
0.74
0.68
0.52
0.33
0.12
-0.11
-0.37
-0.62
-0.80
-0.84
-0.71
-0.47
-0.21
-0.06
-0.07
-0.18
-0.27
-0.19
0.09
0.49
0.83
0.95
0.78
0.42
0.05
-0.16
-0.17
-0.03
0.13
0.17
0.09
-0.03
-0.08
-0.01
0.17
0.35
0.43
0.34
0.12
-0.14
-0.30
-0.31
-0.19
-0.03
0.06
0.01
-0.15
-0.31
-0.36
-0.24
0.01
0.26
0.41
0.38
0.19
-0.08
-0.34
-0.52
-0.60
-0.58
-0.45
-0.19
0.20
0.70
1.20
1.53
1.58
1.28
0.69
-0.01
-0.65
-1.09
-1.28
-1.25
-1.03
-0.70
-0.29
0.13
0.50
0.74
0.79
0.67
0.41
0.11
-0.15
-0.33
-0.42
-0.43
-0.41
-0.36
-0.31
-0.29
-0.28
-0.29
-0.28
-0.23
-0.13
-0.01
0.09
0.11
0.01
-0.19
-0.43
-0.65
-0.75
-0.72
-0.56
-0.33
-0.10
0.04
0.05
-0.05
-0.20
-0.28
-0.22
-0.01
0.26
0.45
0.48
0.33
0.09
-0.14
-0.26
-0.28
-0.25
-0.22
-0.25
-0.26
-0.19
-0.01
0.26
0.49
0.55
0.39
0.05
-0.31
-0.54
-0.53
-0.27
0.13
0.52
0.80
0.91
0.86
0.72
0.56
0.41
0.30
0.22
0.20
0.23
0.29
0.36
0.42
0.42
0.34
0.20
0.02
-0.11
-0.16
-0.14
-0.09
-0.06
-0.10
-0.18
-0.26
-0.26
-0.15
0.05
0.30
0.51
0.64
0.67
0.59
0.45
0.27
0.08
-0.08
-0.20
-0.29
-0.36
-0.42
-0.47
-0.51
-0.53
-0.53
-0.51
-0.46
-0.35
-0.16
0.11
0.43
0.73
0.92
0.96
0.86
0.68
0.51
0.37
0.29
0.23
0.15
0.06
-0.02
-0.05
0.01
0.17
0.38
0.58
0.73
0.80
0.79
0.75
0.69
0.59
0.42
0.14
-0.22
-0.60
-0.90
-1.05
-1.06
-1.02
-1.06
-1.23
-1.52
-1.82
-2.02
-2.03
-1.87
-1.55
-1.18
-0.79
-0.43
-0.09
0.21
0.45
0.60
0.64
0.56
0.42
0.25
0.12
0.08
0.13
0.27
0.45
0.61
0.70
0.72
0.69
0.61
0.54
0.45
0.36
0.27
0.20
0.18
0.20
0.25
0.29
0.27
0.19
0.08
-0.02
-0.09
-0.13
-0.16
-0.21
-0.26
-0.29
-0.23
-0.08
0.16
0.44
0.71
0.89
0.98
0.95
0.81
0.58
0.30
-0.01
-0.26
-0.39
-0.32
-0.07
0.28
0.61
0.78
0.76
0.57
0.30
0.06
-0.13
-0.27
-0.42
-0.57
-0.69
-0.75
-0.70
-0.60
-0.53
-0.54
-0.64
-0.77
-0.85
-0.82
-0.69
-0.51
-0.33
-0.18
-0.05
0.10
0.28
0.48
0.67
0.80
0.87
0.86
0.81
0.72
0.59
0.42
0.23
0.07
-0.03
-0.03
0.05
0.16
0.25
0.28
0.28
0.27
0.27
0.27
0.21
0.06
-0.19
-0.49
-0.80
-1.03
-1.16
-1.18
-1.08
-0.91
-0.70
-0.48
-0.31
-0.21
-0.19
-0.24
-0.33
-0.39
-0.43
-0.42
-0.39
-0.36
-0.32
-0.25
-0.14
0.02
0.21
0.40
0.54
0.57
0.51
0.41
0.33
0.33
0.41
0.51
0.55
0.47
0.25
-0.04
-0.32
-0.49
-0.53
-0.44
-0.24
0.03
0.37
0.73
1.05
1.25
1.25
1.02
0.64
0.21
-0.14
-0.34
-0.39
-0.32
-0.18
-0.03
0.08
0.12
0.09
0.03
-0.04
-0.03
0.08
0.29
0.52
0.68
0.69
0.53
0.28
0.05
-0.06
-0.04
0.03
0.06
-0.04
-0.26
-0.52
-0.69
-0.69
-0.50
-0.16
0.18
0.42
0.47
0.32
0.02
-0.33
-0.62
-0.79
-0.84
-0.77
-0.64
-0.48
-0.25
0.05
0.41
0.78
1.06
1.15
0.99
0.61
0.13
-0.34
-0.67
-0.83
-0.82
-0.73
-0.60
-0.48
-0.37
-0.28
-0.21
-0.17
-0.18
-0.19
-0.19
-0.10
0.07
0.26
0.36
0.31
0.08
-0.24
-0.51
-0.65
-0.61
-0.46
-0.27
-0.12
0.02
0.16
0.36
0.59
0.83
0.99
1.03
0.92
0.68
0.38
0.07
-0.16
-0.25
-0.21
-0.09
0.01
-0.00
-0.16
-0.40
-0.60
-0.67
-0.56
-0.36
-0.14
0.00
0.08
0.13
0.20
0.26
0.29
0.23
0.12
0.04
0.08
0.28
0.57
0.83
0.94
0.84
0.59
0.28
0.02
-0.11
-0.10
-0.01
0.08
0.10
0.01
-0.17
-0.36
-0.44
-0.33
-0.06
0.29
0.59
0.72
0.67
0.50
0.29
0.15
0.09
0.08
0.08
0.08
0.07
0.06
0.06
0.06
0.05
0.04
0.04
0.05
0.05
0.03
-0.03
-0.13
-0.21
-0.27
-0.32
-0.39
-0.55
-0.80
-1.10
-1.38
-1.55
-1.56
-1.44
-1.25
-1.12
-1.10
-1.21
-1.41
-1.59
-1.67
-1.56
-1.24
-0.73
-0.07
0.64
1.32
1.85
2.15
2.18
1.99
1.69
1.39
1.18
1.06
1.01
0.99
0.99
1.02
1.06
1.04
0.89
0.58
0.16
-0.23
-0.45
-0.45
-0.30
-0.12
-0.03
-0.08
-0.19
-0.27
-0.27
-0.17
-0.01
0.19
0.41
0.63
0.82
0.90
0.78
0.47
0.04
-0.39
-0.72
-0.91
-1.00
-1.04
-1.05
-1.00
-0.85
-0.61
-0.35
-0.17
-0.15
-0.29
-0.50
-0.65
-0.66
-0.51
-0.26
0.01
0.23
0.37
0.48
0.58
0.68
0.79
0.86
0.86
0.79
0.64
0.43
0.20
-0.05
-0.30
-0.52
-0.73
-0.88
-0.95
-0.91
-0.75
-0.51
-0.25
-0.02
0.13
0.25
0.35
0.48
0.59
0.64
0.58
0.43
0.26
0.19
0.29
0.53
0.83
1.09
1.24
1.28
1.23
1.11
0.90
0.61
0.24
-0.15
-0.54
-0.85
-1.06
-1.17
-1.14
-0.96
-0.66
-0.30
0.00
0.15
0.08
-0.13
-0.39
-0.55
-0.56
-0.44
-0.27
-0.15
-0.13
-0.22
-0.40
-0.61
-0.79
-0.88
-0.87
-0.74
-0.56
-0.37
-0.24
-0.19
-0.24
-0.33
-0.44
-0.51
-0.50
-0.37
-0.12
0.23
0.60
0.89
1.00
0.90
0.65
0.38
0.22
0.21
0.34
0.48
0.53
0.44
0.23
-0.03
-0.24
-0.35
-0.36
-0.29
-0.20
-0.13
-0.08
-0.03
0.06
0.22
0.46
0.73
0.98
1.12
1.10
0.92
0.63
0.29
-0.02
-0.24
-0.37
-0.41
-0.40
-0.35
-0.28
-0.21
-0.13
-0.04
0.06
0.15
0.22
0.24
0.20
0.11
-0.03
-0.15
-0.20
-0.14
0.03
0.24
0.42
0.48
0.39
0.20
-0.03
-0.23
-0.33
-0.33
-0.25
-0.15
-0.09
-0.09
-0.17
-0.30
-0.43
-0.50
-0.49
-0.42
-0.33
-0.27
-0.28
-0.32
-0.35
-0.33
-0.26
-0.18
-0.12
-0.10
-0.08
0.02
0.23
0.53
0.84
1.04
1.03
0.81
0.45
0.04
-0.31
-0.56
-0.67
-0.68
-0.59
-0.42
-0.17
0.16
0.54
0.92
1.22
1.33
1.22
0.92
0.55
0.25
0.13
0.20
0.37
0.51
0.53
0.41
0.23
0.09
0.08
0.15
0.25
0.27
0.18
0.02
-0.16
-0.28
-0.34
-0.36
-0.37
-0.40
-0.46
-0.52
-0.54
-0.53
-0.50
-0.48
-0.53
-0.67
-0.89
-1.11
-1.24
-1.20
-0.96
-0.59
-0.19
0.14
0.33
0.39
0.32
0.13
-0.15
-0.48
-0.78
-0.94
-0.90
-0.66
-0.32
-0.01
0.18
0.24
0.24
0.25
0.32
0.46
0.59
0.66
0.65
0.59
0.52
0.49
0.48
0.48
0.43
0.33
0.23
0.16
0.16
0.23
0.33
0.38
0.36
0.32
0.33
0.46
0.73
1.07
1.36
1.49
1.45
1.24
0.98
0.76
0.63
0.60
0.57
0.45
0.20
-0.19
-0.62
-1.00
-1.21
-1.20
-1.00
-0.71
-0.43
-0.25
-0.20
-0.26
-0.36
-0.47
-0.53
-0.52
-0.42
-0.27
-0.10
-0.02
-0.08
-0.31
-0.65
-0.98
-1.13
-1.02
-0.68
-0.22
0.17
0.34
0.25
-0.06
-0.48
-0.89
-1.16
-1.22
-1.03
-0.63
-0.12
0.37
0.70
0.84
0.82
0.75
0.73
0.76
0.81
0.78
0.63
0.33
-0.03
-0.37
-0.64
-0.79
-0.82
-0.73
-0.53
-0.25
0.05
0.29
0.40
0.34
0.14
-0.12
-0.34
-0.47
-0.49
-0.44
-0.39
-0.36
-0.33
-0.24
-0.06
0.21
0.47
0.59
0.50
0.22
-0.12
-0.37
-0.40
-0.21
0.11
0.40
0.56
0.57
0.48
0.41
0.43
0.53
0.66
0.71
0.65
0.51
0.37
0.32
0.42
0.59
0.73
0.70
0.43
-0.01
-0.48
-0.81
-0.91
-0.80
-0.60
-0.46
-0.48
-0.66
-0.91
-1.11
-1.15
-1.00
-0.72
-0.42
-0.20
-0.12
-0.19
-0.31
-0.41
-0.40
-0.22
0.10
0.51
0.92
1.26
1.47
1.52
1.40
1.11
0.71
0.25
-0.14
-0.36
-0.38
-0.21
0.03
0.19
0.18
-0.01
-0.29
-0.50
-0.54
-0.39
-0.12
0.15
0.27
0.20
-0.01
-0.26
-0.39
-0.35
-0.12
0.18
0.42
0.46
0.26
-0.08
-0.41
-0.53
-0.34
0.12
0.69
1.16
1.38
1.31
1.03
0.68
0.40
0.25
0.21
0.23
0.25
0.24
0.23
0.22
0.22
0.21
0.17
0.06
-0.14
-0.41
-0.74
-1.05
-1.26
-1.30
-1.14
-0.85
-0.51
-0.25
-0.11
-0.12
-0.22
-0.32
-0.36
-0.30
-0.16
0.04
0.22
0.34
0.31
0.12
-0.19
-0.50
-0.70
-0.69
-0.49
-0.20
0.08
0.23
0.22
0.10
-0.08
-0.23
-0.33
-0.36
-0.30
-0.15
0.11
0.44
0.79
1.06
1.16
1.04
0.73
0.32
-0.09
-0.39
-0.53
-0.52
-0.40
-0.24
-0.07
0.07
0.16
0.18
0.11
-0.02
-0.18
-0.28
-0.24
-0.04
0.31
0.70
1.02
1.19
1.13
0.85
0.42
-0.03
-0.34
-0.39
-0.19
0.17
0.53
0.73
0.72
0.55
0.30
0.08
-0.09
-0.24
-0.39
-0.54
-0.64
-0.62
-0.48
-0.29
-0.13
-0.06
-0.06
-0.08
-0.03
0.09
0.24
0.34
0.34
0.22
0.05
-0.11
-0.20
-0.22
-0.20
-0.19
-0.23
-0.33
-0.46
-0.60
-0.71
-0.77
-0.74
-0.63
-0.45
-0.25
-0.09
-0.03
-0.06
-0.13
-0.16
-0.09
0.06
0.24
0.33
0.26
0.03
-0.28
-0.58
-0.79
-0.86
-0.81
-0.67
-0.45
-0.21
0.05
0.28
0.47
0.61
0.71
0.78
0.84
0.89
0.94
1.01
1.07
1.11
1.08
0.94
0.65
0.27
-0.13
-0.44
-0.58
-0.50
-0.23
0.17
0.58
0.90
1.01
0.90
0.60
0.17
-0.28
-0.70
-1.04
-1.29
-1.39
-1.31
-1.03
-0.59
-0.10
0.29
0.47
0.45
0.27
0.07
-0.08
-0.15
-0.16
-0.14
-0.10
-0.04
0.06
0.19
0.31
0.41
0.51
0.61
0.75
0.89
0.97
0.91
0.66
0.27
-0.17
-0.52
-0.67
-0.58
-0.30
0.04
0.33
0.48
0.48
0.39
0.27
0.18
0.12
0.05
-0.09
-0.35
-0.67
-0.97
-1.12
-1.07
-0.85
-0.58
-0.40
-0.38
-0.50
-0.70
-0.85
-0.90
-0.81
-0.64
-0.42
-0.21
-0.03
0.09
0.13
0.11
0.08
0.10
0.21
0.39
0.60
0.73
0.73
0.61
0.43
0.30
0.25
0.29
0.34
0.33
0.23
0.12
0.07
0.18
0.42
0.70
0.86
0.79
0.48
0.02
-0.43
-0.75
-0.89
-0.90
-0.87
-0.87
-0.89
-0.84
-0.67
-0.38
-0.05
0.20
0.29
0.19
-0.01
-0.22
-0.35
-0.36
-0.28
-0.15
-0.01
0.12
0.25
0.39
0.50
0.58
0.56
0.42
0.19
-0.09
-0.31
-0.36
-0.21
0.13
0.53
0.85
0.96
0.81
0.45
0.03
-0.29
-0.39
-0.25
0.09
0.50
0.86
1.06
1.09
0.96
0.77
0.58
0.47
0.45
0.48
0.51
0.52
0.50
0.48
0.44
0.36
0.20
-0.08
-0.44
-0.83
-1.15
-1.33
-1.34
-1.23
-1.03
-0.81
-0.64
-0.57
-0.63
-0.80
-1.00
-1.11
-1.00
-0.66
-0.17
0.30
0.60
0.67
0.54
0.33
0.15
0.05
0.03
0.06
0.14
0.26
0.41
0.59
0.79
0.95
1.04
1.03
0.85
0.52
0.07
-0.41
-0.77
-0.89
-0.75
-0.39
0.05
0.42
0.63
0.66
0.56
0.36
0.12
-0.15
-0.40
-0.60
-0.68
-0.63
-0.46
-0.26
-0.08
0.03
0.08
0.10
0.11
0.10
0.01
-0.19
-0.47
-0.74
-0.88
-0.84
-0.63
-0.34
-0.11
0.03
0.08
0.11
0.17
0.28
0.42
0.51
0.52
0.45
0.30
0.14
0.02
-0.02
0.02
0.12
0.20
0.18
0.00
-0.33
-0.73
-1.06
-1.20
-1.10
-0.79
-0.41
-0.08
0.11
0.14
0.02
-0.18
-0.40
-0.58
-0.67
-0.66
-0.55
-0.38
-0.19
-0.02
0.13
0.25
0.36
0.43
0.44
0.36
0.23
0.10
0.04
0.07
0.18
0.30
0.39
0.41
0.38
0.34
0.34
0.39
0.49
0.59
0.66
0.69
0.66
0.61
0.56
0.53
0.49
0.44
0.35
0.22
0.08
-0.05
-0.15
-0.19
-0.16
-0.06
0.10
0.27
0.42
0.47
0.41
0.26
0.09
-0.04
-0.09
-0.09
-0.11
-0.19
-0.31
-0.40
-0.37
-0.15
0.21
0.59
0.85
0.89
0.69
0.32
-0.07
-0.36
-0.48
-0.45
-0.36
-0.28
-0.30
-0.41
-0.56
-0.67
-0.67
-0.54
-0.31
-0.05
0.18
0.35
0.45
0.46
0.41
0.30
0.16
0.01
-0.10
-0.12
-0.06
0.03
0.11
0.11
0.02
-0.13
-0.27
-0.37
-0.40
-0.39
-0.35
-0.30
-0.26
-0.20
-0.16
-0.13
-0.15
-0.21
-0.30
-0.38
-0.40
-0.36
-0.27
-0.17
-0.11
-0.13
-0.21
-0.36
-0.53
-0.67
-0.73
-0.68
-0.48
-0.16
0.24
0.66
0.99
1.18
1.19
1.04
0.79
0.51
0.26
0.06
-0.05
-0.06
0.06
0.34
0.72
1.15
1.48
1.59
1.39
0.89
0.22
-0.45
-0.92
-1.05
-0.83
-0.33
0.27
0.79
1.08
1.07
0.79
0.32
-0.23
-0.71
-1.03
-1.10
-0.93
-0.60
-0.22
0.07
0.20
0.15
0.02
-0.08
-0.07
0.10
0.38
0.68
0.91
0.98
0.88
0.62
0.24
-0.21
-0.67
-1.07
-1.34
-1.43
-1.30
-1.02
-0.68
-0.41
-0.34
-0.49
-0.81
-1.14
-1.29
-1.19
-0.82
-0.29
0.27
0.77
1.20
1.57
1.86
2.01
1.92
1.56
1.00
0.40
-0.06
-0.31
-0.40
-0.45
-0.53
-0.65
-0.76
-0.77
-0.67
-0.48
-0.22
0.06
0.36
0.65
0.89
1.01
0.97
0.76
0.44
0.07
-0.32
-0.68
-0.99
-1.21
-1.30
-1.28
-1.16
-0.99
-0.80
-0.56
-0.22
0.23
0.75
1.23
1.52
1.54
1.29
0.86
0.37
-0.02
-0.22
-0.20
-0.00
0.24
0.43
0.45
0.32
0.10
-0.13
-0.27
-0.32
-0.30
-0.28
-0.31
-0.40
-0.46
-0.40
-0.15
0.26
0.67
0.92
0.89
0.58
0.11
-0.33
-0.57
-0.55
-0.33
0.00
0.35
0.63
0.80
0.80
0.56
0.08
-0.56
-1.17
-1.57
-1.64
-1.40
-1.02
-0.68
-0.51
-0.51
-0.60
-0.66
-0.63
-0.50
-0.31
-0.14
0.02
0.14
0.25
0.34
0.43
0.51
0.57
0.62
0.63
0.59
0.48
0.31
0.14
0.02
-0.04
-0.01
0.08
0.22
0.39
0.57
0.71
0.79
0.76
0.64
0.46
0.29
0.17
0.10
0.08
0.05
0.03
-0.00
-0.03
-0.05
-0.09
-0.16
-0.23
-0.26
-0.21
-0.10
0.04
0.09
0.01
-0.21
-0.48
-0.68
-0.72
-0.59
-0.32
0.00
0.33
0.60
0.82
0.94
0.96
0.89
0.79
0.68
0.61
0.58
0.54
0.45
0.30
0.12
-0.05
-0.17
-0.28
-0.44
-0.67
-0.97
-1.26
-1.45
-1.48
-1.36
-1.13
-0.86
-0.59
-0.37
-0.20
-0.12
-0.11
-0.15
-0.21
-0.19
-0.05
0.20
0.49
0.73
0.82
0.75
0.56
0.34
0.15
0.05
-0.01
-0.08
-0.22
-0.46
-0.71
-0.86
-0.78
-0.42
0.15
0.77
1.23
1.37
1.17
0.76
0.29
-0.08
-0.31
-0.43
-0.48
-0.45
-0.29
0.03
0.48
0.94
1.26
1.32
1.10
0.71
0.28
-0.06
-0.30
-0.46
-0.57
-0.64
-0.66
-0.59
-0.44
-0.28
-0.19
-0.21
-0.31
-0.40
-0.39
-0.23
0.02
0.28
0.49
0.61
0.67
0.69
0.68
0.58
0.38
0.12
-0.14
-0.29
-0.29
-0.18
-0.08
-0.07
-0.17
-0.31
-0.40
-0.38
-0.29
-0.18
-0.11
-0.10
-0.10
-0.05
0.05
0.18
0.29
0.32
0.24
0.07
-0.16
-0.36
-0.42
-0.29
0.02
0.38
0.63
0.62
0.28
-0.26
-0.82
-1.22
-1.35
-1.23
-0.93
-0.55
-0.13
0.31
0.74
1.07
1.23
1.15
0.85
0.44
0.08
-0.13
-0.16
-0.07
0.05
0.09
0.05
-0.05
-0.15
-0.23
-0.28
-0.34
-0.40
-0.45
-0.41
-0.26
-0.06
0.13
0.20
0.15
0.06
0.05
0.17
0.38
0.54
0.52
0.30
-0.04
-0.32
-0.36
-0.16
0.19
0.52
0.68
0.63
0.46
0.30
0.24
0.31
0.41
0.47
0.41
0.25
0.04
-0.13
-0.25
-0.36
-0.52
-0.78
-1.07
-1.28
-1.25
-0.91
-0.32
0.31
0.77
0.92
0.75
0.44
0.18
0.11
0.24
0.42
0.48
0.28
-0.17
-0.74
-1.24
-1.50
-1.45
-1.14
-0.70
-0.30
-0.03
0.09
0.14
0.21
0.34
0.50
0.58
0.50
0.21
-0.18
-0.51
-0.64
-0.52
-0.20
0.20
0.55
0.79
0.91
0.93
0.91
0.85
0.73
0.50
0.13
-0.36
-0.89
-1.32
-1.53
-1.46
-1.14
-0.70
-0.28
-0.00
0.09
0.05
-0.03
-0.06
0.02
0.21
0.47
0.71
0.90
1.02
1.08
1.12
1.13
1.10
0.98
0.73
0.38
0.02
-0.25
-0.35
-0.27
-0.07
0.15
0.31
0.39
0.42
0.46
0.56
0.67
0.71
0.62
0.36
0.02
-0.28
-0.39
-0.31
-0.11
0.09
0.17
0.08
-0.14
-0.41
-0.64
-0.78
-0.83
-0.79
-0.69
-0.53
-0.36
-0.19
-0.06
0.01
0.03
0.02
0.00
-0.04
-0.13
-0.28
-0.47
-0.66
-0.80
-0.86
-0.87
-0.84
-0.80
-0.72
-0.58
-0.35
-0.04
0.31
0.64
0.89
1.05
1.12
1.11
1.02
0.85
0.64
0.39
0.17
0.02
0.02
0.18
0.51
0.91
1.23
1.29
0.99
0.37
-0.39
-1.03
-1.36
-1.31
-1.00
-0.61
-0.26
-0.00
0.19
0.36
0.50
0.53
0.41
0.14
-0.19
-0.45
-0.56
-0.50
-0.37
-0.28
-0.29
-0.42
-0.59
-0.69
-0.67
-0.54
-0.36
-0.25
-0.25
-0.32
-0.35
-0.25
0.00
0.30
0.49
0.42
0.10
-0.35
-0.71
-0.81
-0.61
-0.22
0.19
0.45
0.53
0.46
0.35
0.30
0.37
0.55
0.82
1.10
1.33
1.44
1.37
1.11
0.71
0.25
-0.17
-0.50
-0.70
-0.78
-0.74
-0.63
-0.46
-0.31
-0.25
-0.32
-0.48
-0.64
-0.69
-0.59
-0.41
-0.24
-0.20
-0.30
-0.45
-0.53
-0.45
-0.24
0.03
0.23
0.28
0.22
0.11
0.06
0.15
0.38
0.67
0.95
1.12
1.12
0.95
0.69
0.41
0.22
0.14
0.16
0.19
0.15
0.01
-0.18
-0.34
-0.38
-0.27
-0.07
0.12
0.19
0.13
-0.02
-0.18
-0.30
-0.33
-0.30
-0.20
-0.04
0.18
0.42
0.62
0.65
0.47
0.10
-0.33
-0.67
-0.81
-0.70
-0.42
-0.07
0.24
0.46
0.58
0.61
0.58
0.47
0.29
0.04
-0.23
-0.47
-0.61
-0.60
-0.46
-0.27
-0.13
-0.12
-0.25
-0.46
-0.64
-0.72
-0.69
-0.58
-0.45
-0.29
-0.11
0.14
0.42
0.66
0.76
0.69
0.50
0.32
0.27
0.37
0.56
0.71
0.70
0.52
0.29
0.15
0.21
0.47
0.77
0.93
0.80
0.36
-0.24
-0.83
-1.23
-1.41
-1.40
-1.29
-1.12
-0.91
-0.62
-0.27
0.09
0.34
0.40
0.26
0.00
-0.26
-0.44
-0.52
-0.52
-0.53
-0.55
-0.60
-0.60
-0.54
-0.40
-0.22
-0.08
-0.02
-0.02
-0.03
0.01
0.18
0.47
0.83
1.19
1.44
1.51
1.36
1.03
0.63
0.27
0.10
0.12
0.29
0.47
0.53
0.44
0.21
-0.02
-0.15
-0.12
0.04
0.23
0.36
0.39
0.32
0.19
0.05
-0.07
-0.17
-0.26
-0.34
-0.41
-0.45
-0.49
-0.50
-0.52
-0.55
-0.58
-0.59
-0.56
-0.49
-0.39
-0.26
-0.11
0.07
0.28
0.47
0.57
0.51
0.27
-0.08
-0.43
-0.66
-0.71
-0.64
-0.53
-0.47
-0.51
-0.57
-0.57
-0.44
-0.17
0.13
0.36
0.43
0.33
0.13
-0.08
-0.24
-0.33
-0.36
-0.32
-0.20
0.00
0.27
0.53
0.71
0.73
0.61
0.43
0.32
0.34
0.49
0.66
0.74
0.67
0.48
0.28
0.16
0.16
0.25
0.34
0.36
0.30
0.20
0.18
0.27
0.47
0.65
0.69
0.53
0.20
-0.18
-0.46
-0.54
-0.44
-0.26
-0.14
-0.17
-0.34
-0.55
-0.70
-0.71
-0.61
-0.49
-0.44
-0.52
-0.67
-0.77
-0.69
-0.38
0.10
0.62
0.99
1.12
1.02
0.78
0.54
0.34
0.19
0.00
-0.25
-0.56
-0.80
-0.86
-0.66
-0.24
0.30
0.78
1.08
1.16
1.05
0.85
0.62
0.43
0.27
0.13
-0.02
-0.17
-0.31
-0.43
-0.50
-0.54
-0.56
-0.61
-0.69
-0.82
-0.98
-1.12
-1.21
-1.23
-1.16
-0.99
-0.75
-0.47
-0.20
0.06
0.28
0.47
0.64
0.78
0.86
0.85
0.73
0.54
0.34
0.19
0.11
0.07
0.04
-0.00
-0.01
0.08
0.30
0.60
0.89
1.06
1.04
0.86
0.61
0.42
0.36
0.43
0.57
0.68
0.68
0.53
0.22
-0.17
-0.56
-0.83
-0.92
-0.79
-0.46
-0.02
0.42
0.74
0.86
0.74
0.42
-0.03
-0.51
-0.91
-1.15
-1.16
-0.95
-0.60
-0.24
0.00
0.04
-0.12
-0.37
-0.60
-0.71
-0.69
-0.56
-0.42
-0.30
-0.20
-0.11
0.03
0.21
0.41
0.61
0.76
0.86
0.89
0.85
0.74
0.56
0.32
0.03
-0.27
-0.53
-0.73
-0.83
-0.87
-0.90
-0.97
-1.11
-1.28
-1.37
-1.30
-0.99
-0.46
0.19
0.80
1.27
1.52
1.59
1.54
1.39
1.18
0.89
0.53
0.14
-0.20
-0.43
-0.52
-0.52
-0.49
-0.47
-0.45
-0.37
-0.17
0.12
0.42
0.61
0.60
0.40
0.06
-0.31
-0.63
-0.84
-0.90
-0.83
-0.64
-0.37
-0.06
0.26
0.52
0.67
0.70
0.61
0.43
0.25
0.11
0.07
0.13
0.26
0.40
0.50
0.52
0.46
0.33
0.17
0.01
-0.13
-0.24
-0.32
-0.34
-0.31
-0.22
-0.07
0.12
0.34
0.52
0.65
0.67
0.57
0.36
0.09
-0.17
-0.35
-0.43
-0.40
-0.31
-0.19
-0.02
0.18
0.40
0.53
0.50
0.24
-0.19
-0.62
-0.89
-0.89
-0.70
-0.48
-0.40
-0.51
-0.71
-0.80
-0.68
-0.34
0.04
0.29
0.29
0.11
-0.09
-0.17
-0.07
0.12
0.24
0.22
0.04
-0.16
-0.27
-0.22
-0.07
0.06
0.05
-0.13
-0.37
-0.51
-0.42
-0.11
0.30
0.63
0.75
0.65
0.41
0.17
0.01
-0.04
-0.03
0.00
0.02
0.02
-0.00
-0.08
-0.25
-0.49
-0.71
-0.82
-0.73
-0.43
-0.02
0.37
0.64
0.75
0.72
0.63
0.55
0.50
0.51
0.58
0.73
0.94
1.16
1.29
1.23
0.91
0.37
-0.25
-0.77
-1.06
-1.06
-0.86
-0.58
-0.35
-0.23
-0.20
-0.21
-0.18
-0.05
0.20
0.56
0.97
1.32
1.52
1.51
1.28
0.94
0.59
0.29
0.05
-0.18
-0.44
-0.72
-1.00
-1.23
-1.39
-1.46
-1.45
-1.35
-1.12
-0.73
-0.24
0.23
0.54
0.60
0.42
0.10
-0.24
-0.48
-0.61
-0.65
-0.67
-0.70
-0.74
-0.76
-0.74
-0.67
-0.54
-0.34
-0.08
0.21
0.49
0.69
0.78
0.76
0.67
0.60
0.60
0.66
0.72
0.69
0.56
0.34
0.12
-0.00
0.00
0.09
0.18
0.18
0.06
-0.16
-0.39
-0.55
-0.59
-0.53
-0.41
-0.34
-0.33
-0.38
-0.42
-0.39
-0.28
-0.10
0.04
0.09
0.00
-0.16
-0.33
-0.41
-0.37
-0.23
-0.04
0.15
0.33
0.51
0.71
0.91
1.08
1.19
1.23
1.19
1.09
0.93
0.69
0.38
0.02
-0.33
-0.61
-0.81
-0.94
-1.01
-1.02
-0.92
-0.67
-0.28
0.17
0.53
0.68
0.58
0.32
0.03
-0.16
-0.20
-0.11
-0.01
0.01
-0.06
-0.18
-0.27
-0.31
-0.33
-0.37
-0.47
-0.58
-0.62
-0.52
-0.27
0.04
0.29
0.37
0.29
0.16
0.14
0.34
0.72
1.19
1.57
1.73
1.65
1.36
0.97
0.57
0.25
0.03
-0.08
-0.10
-0.07
-0.03
-0.02
-0.07
-0.17
-0.30
-0.42
-0.51
-0.58
-0.66
-0.79
-0.97
-1.15
-1.27
-1.27
-1.13
-0.89
-0.60
-0.34
-0.15
-0.04
0.01
0.01
-0.02
-0.04
-0.02
0.08
0.27
0.54
0.83
1.07
1.19
1.18
1.05
0.84
0.60
0.37
0.17
-0.03
-0.22
-0.41
-0.58
-0.71
-0.76
-0.77
-0.75
-0.75
-0.77
-0.81
-0.83
-0.76
-0.57
-0.24
0.19
0.65
1.03
1.26
1.31
1.21
1.02
0.76
0.49
0.20
-0.09
-0.34
-0.48
-0.48
-0.32
-0.10
0.08
0.11
-0.02
-0.24
-0.43
-0.50
-0.42
-0.26
-0.08
0.07
0.20
0.32
0.45
0.58
0.65
0.62
0.47
0.24
-0.02
-0.18
-0.18
-0.02
0.23
0.44
0.50
0.40
0.19
-0.02
-0.11
-0.09
0.01
0.07
0.03
-0.12
-0.31
-0.48
-0.62
-0.73
-0.85
-0.94
-0.96
-0.84
-0.57
-0.22
0.12
0.36
0.45
0.38
0.19
-0.06
-0.33
-0.59
-0.78
-0.88
-0.85
-0.68
-0.44
-0.17
0.06
0.21
0.28
0.31
0.36
0.47
0.66
0.89
1.10
1.23
1.25
1.16
1.00
0.81
0.63
0.49
0.39
0.29
0.20
0.08
-0.06
-0.20
-0.34
-0.47
-0.58
-0.68
-0.77
-0.82
-0.79
-0.65
-0.42
-0.18
-0.03
-0.04
-0.23
-0.51
-0.73
-0.80
-0.73
-0.64
-0.64
-0.80
-1.03
-1.18
-1.09
-0.74
-0.25
0.19
0.43
0.45
0.33
0.20
0.15
0.16
0.19
0.18
0.14
0.12
0.15
0.22
0.29
0.34
0.37
0.40
0.44
0.49
0.52
0.52
0.53
0.60
0.76
0.99
1.18
1.27
1.21
1.07
0.92
0.83
0.76
0.64
0.37
-0.07
-0.59
-1.06
-1.36
-1.42
-1.29
-1.02
-0.70
-0.35
0.02
0.40
0.71
0.90
0.88
0.65
0.30
-0.07
-0.34
-0.44
-0.39
-0.26
-0.09
0.07
0.22
0.36
0.48
0.56
0.59
0.54
0.41
0.18
-0.09
-0.37
-0.57
-0.62
-0.49
-0.20
0.17
0.52
0.77
0.87
0.86
0.77
0.63
0.46
0.24
-0.01
-0.23
-0.34
-0.33
-0.24
-0.16
-0.20
-0.41
-0.72
-1.00
-1.12
-1.00
-0.69
-0.30
0.05
0.29
0.43
0.50
0.52
0.46
0.30
0.00
-0.37
-0.70
-0.89
-0.90
-0.79
-0.67
-0.64
-0.74
-0.90
-1.03
-1.06
-1.00
-0.84
-0.64
-0.41
-0.13
0.18
0.51
0.82
1.07
1.20
1.19
1.03
0.75
0.43
0.15
0.00
0.01
0.13
0.25
0.28
0.15
-0.07
-0.31
-0.47
-0.51
-0.45
-0.34
-0.20
-0.07
0.05
0.19
0.34
0.48
0.60
0.67
0.69
0.63
0.50
0.31
0.10
-0.08
-0.19
-0.21
-0.17
-0.13
-0.13
-0.16
-0.19
-0.17
-0.08
0.03
0.10
0.02
-0.22
-0.57
-0.88
-1.01
-0.87
-0.48
0.05
0.58
1.01
1.27
1.38
1.36
1.23
1.01
0.76
0.54
0.42
0.47
0.68
0.93
1.10
1.08
0.84
0.47
0.08
-0.19
-0.29
-0.22
-0.06
0.06
0.07
-0.09
-0.42
-0.88
-1.34
-1.67
-1.72
-1.45
-0.91
-0.27
0.23
0.43
0.31
-0.02
-0.38
-0.60
-0.65
-0.59
-0.54
-0.58
-0.71
-0.83
-0.85
-0.75
-0.57
-0.39
-0.27
-0.24
-0.22
-0.18
-0.05
0.14
0.34
0.50
0.59
0.62
0.62
0.63
0.65
0.65
0.58
0.42
0.19
-0.05
-0.24
-0.32
-0.28
-0.14
0.04
0.23
0.39
0.48
0.46
0.31
0.08
-0.16
-0.28
-0.23
-0.00
0.30
0.55
0.62
0.48
0.23
-0.04
-0.22
-0.27
-0.23
-0.16
-0.11
-0.11
-0.13
-0.15
-0.15
-0.12
-0.06
0.03
0.12
0.22
0.29
0.29
0.19
0.02
-0.21
-0.42
-0.55
-0.52
-0.34
-0.01
0.40
0.79
1.06
1.11
0.88
0.37
-0.30
-0.96
-1.45
-1.66
-1.55
-1.23
-0.82
-0.47
-0.26
-0.20
-0.26
-0.35
-0.42
-0.43
-0.34
-0.16
0.11
0.40
0.62
0.72
0.66
0.48
0.32
0.27
0.38
0.58
0.73
0.70
0.46
0.11
-0.18
-0.28
-0.17
0.07
0.30
0.39
0.32
0.14
-0.06
-0.20
-0.23
-0.10
0.18
0.54
0.88
1.05
0.96
0.62
0.17
-0.18
-0.26
-0.05
0.35
0.72
0.87
0.74
0.40
0.00
-0.31
-0.48
-0.52
-0.53
-0.59
-0.71
-0.87
-0.99
-1.00
-0.86
-0.62
-0.36
-0.18
-0.12
-0.14
-0.14
-0.04
0.19
0.49
0.77
0.94
0.99
0.94
0.86
0.78
0.65
0.42
0.06
-0.35
-0.64
-0.68
-0.39
0.15
0.73
1.10
1.09
0.68
0.01
-0.70
-1.20
-1.37
-1.18
-0.77
-0.30
0.08
0.30
0.36
0.32
0.22
0.07
-0.15
-0.44
-0.75
-0.98
-1.02
-0.86
-0.53
-0.16
0.14
0.30
0.32
0.27
0.18
0.09
-0.00
-0.09
-0.16
-0.20
-0.22
-0.23
-0.26
-0.31
-0.35
-0.33
-0.19
0.06
0.40
0.73
0.95
0.99
0.85
0.57
0.25
-0.02
-0.17
-0.18
-0.09
0.01
0.04
0.00
-0.07
-0.07
0.03
0.23
0.46
0.58
0.56
0.40
0.18
0.01
-0.07
-0.05
0.01
0.09
0.15
0.21
0.25
0.25
0.17
-0.01
-0.28
-0.58
-0.82
-0.92
-0.83
-0.56
-0.19
0.17
0.44
0.55
0.51
0.39
0.25
0.17
0.15
0.15
0.13
0.05
-0.05
-0.13
-0.15
-0.13
-0.12
-0.16
-0.27
-0.42
-0.58
-0.67
-0.66
-0.54
-0.32
-0.03
0.26
0.46
0.52
0.41
0.19
-0.02
-0.09
0.03
0.29
0.52
0.58
0.42
0.12
-0.16
-0.28
-0.18
0.05
0.28
0.39
0.33
0.18
0.01
-0.12
-0.22
-0.36
-0.58
-0.86
-1.12
-1.26
-1.20
-0.98
-0.68
-0.38
-0.11
0.14
0.43
0.75
1.04
1.23
1.20
0.95
0.52
0.01
-0.44
-0.75
-0.85
-0.74
-0.47
-0.12
0.22
0.48
0.61
0.60
0.50
0.36
0.22
0.11
0.02
-0.04
-0.04
0.02
0.13
0.24
0.32
0.30
0.21
0.08
-0.00
-0.02
0.01
0.04
-0.01
-0.15
-0.33
-0.50
-0.62
-0.69
-0.76
-0.84
-0.91
-0.90
-0.79
-0.61
-0.45
-0.41
-0.51
-0.69
-0.82
-0.78
-0.55
-0.17
0.21
0.50
0.64
0.67
0.71
0.83
1.03
1.26
1.40
1.36
1.14
0.79
0.46
0.23
0.18
0.30
0.50
0.70
0.81
0.76
0.51
0.06
-0.50
-1.01
-1.31
-1.29
-0.94
-0.35
0.31
0.89
1.33
1.60
1.74
1.77
1.67
1.44
1.07
0.63
0.21
-0.13
-0.34
-0.44
-0.47
-0.50
-0.56
-0.65
-0.73
-0.77
-0.73
-0.62
-0.45
-0.28
-0.15
-0.11
-0.17
-0.30
-0.48
-0.67
-0.84
-0.96
-0.98
-0.90
-0.73
-0.51
-0.32
-0.21
-0.18
-0.19
-0.21
-0.18
-0.13
-0.07
-0.04
-0.01
0.03
0.11
0.21
0.27
0.21
0.03
-0.20
-0.33
-0.28
-0.04
0.26
0.44
0.41
0.23
0.05
0.04
0.26
0.58
0.80
0.76
0.46
0.06
-0.25
-0.35
-0.25
-0.07
0.05
0.10
0.11
0.14
0.17
0.13
-0.03
-0.29
-0.51
-0.55
-0.36
-0.00
0.37
0.59
0.62
0.52
0.42
0.43
0.58
0.80
0.99
1.07
1.03
0.89
0.67
0.39
0.07
-0.29
-0.66
-0.99
-1.19
-1.23
-1.08
-0.78
-0.40
-0.02
0.25
0.38
0.34
0.16
-0.08
-0.30
-0.42
-0.43
-0.35
-0.27
-0.26
-0.33
-0.43
-0.46
-0.34
-0.08
0.25
0.54
0.72
0.78
0.75
0.67
0.54
0.34
0.06
-0.28
-0.59
-0.75
-0.68
-0.39
0.05
0.53
0.93
1.16
1.20
1.03
0.70
0.26
-0.20
-0.58
-0.80
-0.85
-0.76
-0.62
-0.49
-0.38
-0.28
-0.17
-0.01
0.17
0.34
0.43
0.41
0.28
0.05
-0.23
-0.51
-0.71
-0.78
-0.69
-0.49
-0.23
0.00
0.20
0.33
0.40
0.39
0.28
0.09
-0.12
-0.24
-0.18
0.07
0.43
0.73
0.84
0.71
0.37
-0.06
-0.44
-0.70
-0.76
-0.64
-0.36
0.00
0.35
0.59
0.65
0.51
0.23
-0.12
-0.44
-0.63
-0.61
-0.36
0.06
0.53
0.87
0.95
0.73
0.26
-0.32
-0.81
-1.10
-1.11
-0.87
-0.46
0.00
0.43
0.74
0.89
0.88
0.77
0.63
0.53
0.51
0.56
0.61
0.58
0.46
0.25
-0.02
-0.28
-0.51
-0.69
-0.85
-0.98
-1.08
-1.17
-1.24
-1.32
-1.40
-1.49
-1.54
-1.49
-1.30
-1.00
-0.62
-0.27
-0.01
0.13
0.15
0.13
0.15
0.29
0.54
0.85
1.11
1.21
1.10
0.80
0.45
0.20
0.15
0.31
0.56
0.77
0.84
0.77
0.67
0.63
0.74
0.97
1.23
1.39
1.37
1.16
0.82
0.43
0.08
-0.18
-0.35
-0.42
-0.45
-0.49
-0.57
-0.69
-0.83
-0.94
-0.99
-0.98
-0.90
-0.76
-0.56
-0.33
-0.08
0.12
0.24
0.24
0.15
0.04
-0.04
-0.03
0.07
0.24
0.41
0.53
0.56
0.47
0.29
0.04
-0.22
-0.48
-0.72
-0.91
-1.03
-1.02
-0.86
-0.53
-0.13
0.24
0.46
0.48
0.34
0.14
-0.02
-0.07
0.00
0.15
0.30
0.35
0.31
0.19
0.07
0.02
0.08
0.19
0.27
0.22
0.03
-0.26
-0.49
-0.54
-0.35
0.01
0.42
0.75
0.92
0.97
0.95
0.94
0.93
0.87
0.73
0.52
0.31
0.17
0.10
0.06
-0.02
-0.17
-0.37
-0.56
-0.67
-0.69
-0.66
-0.64
-0.63
-0.62
-0.58
-0.51
-0.45
-0.43
-0.47
-0.53
-0.56
-0.54
-0.45
-0.34
-0.23
-0.11
0.02
0.14
0.26
0.33
0.36
0.35
0.33
0.32
0.31
0.29
0.24
0.17
0.09
-0.00
-0.11
-0.23
-0.36
-0.47
-0.53
-0.50
-0.40
-0.27
-0.15
-0.06
-0.02
0.02
0.09
0.19
0.31
0.39
0.42
0.38
0.27
0.10
-0.08
-0.26
-0.36
-0.37
-0.24
-0.05
0.11
0.11
-0.14
-0.60
-1.09
-1.41
-1.38
-0.98
-0.35
0.31
0.81
1.06
1.09
1.00
0.86
0.71
0.53
0.28
-0.03
-0.31
-0.49
-0.48
-0.30
-0.07
0.09
0.10
-0.04
-0.21
-0.28
-0.17
0.11
0.44
0.66
0.69
0.54
0.32
0.14
0.06
0.05
0.08
0.12
0.21
0.40
0.68
0.95
1.08
0.95
0.56
0.00
-0.53
-0.85
-0.87
-0.61
-0.18
0.26
0.54
0.61
0.46
0.18
-0.10
-0.29
-0.37
-0.37
-0.36
-0.37
-0.37
-0.30
-0.15
0.06
0.22
0.24
0.12
-0.09
-0.29
-0.38
-0.30
-0.08
0.22
0.51
0.74
0.87
0.91
0.89
0.82
0.70
0.52
0.31
0.12
0.00
0.01
0.13
0.31
0.44
0.47
0.39
0.25
0.11
0.00
-0.05
-0.08
-0.09
-0.11
-0.15
-0.21
-0.31
-0.42
-0.54
-0.62
-0.64
-0.60
-0.51
-0.39
-0.27
-0.17
-0.12
-0.15
-0.26
-0.43
-0.60
-0.72
-0.77
-0.76
-0.73
-0.68
-0.61
-0.49
-0.27
0.03
0.36
0.62
0.74
0.68
0.46
0.18
-0.08
-0.25
-0.30
-0.24
-0.12
-0.02
0.04
0.03
-0.02
-0.04
-0.01
0.08
0.18
0.21
0.14
-0.03
-0.23
-0.39
-0.44
-0.37
-0.19
0.04
0.28
0.48
0.59
0.55
0.38
0.13
-0.13
-0.34
-0.48
-0.57
-0.68
-0.79
-0.87
-0.86
-0.68
-0.38
-0.04
0.20
0.26
0.11
-0.16
-0.42
-0.54
-0.44
-0.15
0.25
0.65
0.95
1.12
1.21
1.24
1.23
1.16
1.01
0.80
0.60
0.50
0.56
0.78
1.04
1.17
1.09
0.77
0.32
-0.12
-0.45
-0.65
-0.81
-0.99
-1.22
-1.44
-1.55
-1.47
-1.22
-0.89
-0.56
-0.29
-0.04
0.28
0.70
1.21
1.68
1.97
1.96
1.62
1.04
0.37
-0.20
-0.56
-0.67
-0.58
-0.41
-0.25
-0.17
-0.16
-0.20
-0.26
-0.34
-0.43
-0.51
-0.54
-0.46
-0.28
-0.05
0.13
0.17
0.01
-0.29
-0.61
-0.79
-0.76
-0.53
-0.19
0.12
0.27
0.25
0.09
-0.10
-0.24
-0.30
-0.30
-0.27
-0.24
-0.18
-0.04
0.19
0.47
0.68
0.70
0.50
0.12
-0.30
-0.62
-0.77
-0.73
-0.57
-0.36
-0.14
0.09
0.35
0.64
0.93
1.15
1.24
1.15
0.89
0.50
0.07
-0.32
-0.60
-0.73
-0.71
-0.61
-0.46
-0.31
-0.14
0.05
0.28
0.53
0.76
0.93
1.00
0.93
0.75
0.47
0.18
-0.05
-0.18
-0.18
-0.09
0.02
0.08
0.05
-0.07
-0.20
-0.25
-0.14
0.13
0.51
0.87
1.09
1.07
0.76
0.24
-0.38
-0.91
-1.19
-1.12
-0.75
-0.21
0.29
0.57
0.55
0.28
-0.09
-0.42
-0.62
-0.70
-0.76
-0.88
-1.09
-1.33
-1.50
-1.50
-1.31
-0.95
-0.50
-0.05
0.32
0.54
0.57
0.41
0.12
-0.22
-0.50
-0.62
-0.57
-0.36
-0.09
0.18
0.38
0.53
0.68
0.87
1.09
1.31
1.47
1.54
1.52
1.42
1.28
1.06
0.76
0.36
-0.13
-0.60
-0.94
-1.04
-0.85
-0.44
0.06
0.47
0.69
0.67
0.47
0.19
-0.11
-0.39
-0.66
-0.95
-1.22
-1.42
-1.46
-1.31
-0.98
-0.57
-0.19
0.09
0.24
0.31
0.31
0.25
0.11
-0.09
-0.31
-0.46
-0.52
-0.49
-0.43
-0.43
-0.48
-0.50
-0.39
-0.07
0.39
0.82
1.06
1.02
0.74
0.40
0.16
0.10
0.21
0.38
0.49
0.50
0.39
0.22
0.04
-0.08
-0.11
-0.03
0.13
0.33
0.48
0.52
0.41
0.18
-0.10
-0.34
-0.48
-0.51
-0.46
-0.40
-0.36
-0.36
-0.36
-0.30
-0.12
0.18
0.52
0.80
0.89
0.75
0.41
-0.05
-0.50
-0.84
-1.02
-1.02
-0.83
-0.49
-0.08
0.30
0.54
0.62
0.55
0.40
0.24
0.13
0.08
0.07
0.07
0.07
0.04
-0.01
-0.05
-0.08
-0.08
-0.05
-0.01
0.02
0.01
-0.02
-0.03
0.00
0.10
0.23
0.30
0.28
0.16
-0.01
-0.13
-0.13
-0.02
0.16
0.34
0.44
0.43
0.30
0.08
-0.19
-0.44
-0.63
-0.66
-0.54
-0.29
-0.01
0.18
0.25
0.20
0.12
0.09
0.14
0.21
0.21
0.08
-0.17
-0.45
-0.64
-0.68
-0.58
-0.40
-0.25
-0.14
-0.07
0.03
0.17
0.34
0.50
0.62
0.68
0.67
0.63
0.56
0.45
0.30
0.11
-0.12
-0.36
-0.54
-0.60
-0.48
-0.14
0.38
0.97
1.45
1.65
1.46
0.92
0.17
-0.58
-1.16
-1.46
-1.48
-1.26
-0.89
-0.46
-0.08
0.18
0.26
0.15
-0.08
-0.37
-0.58
-0.65
-0.54
-0.29
0.02
0.26
0.33
0.19
-0.12
-0.43
-0.60
-0.50
-0.14
0.38
0.89
1.25
1.39
1.33
1.12
0.85
0.54
0.22
-0.09
-0.36
-0.57
-0.69
-0.72
-0.66
-0.52
-0.33
-0.14
-0.00
0.04
0.01
-0.08
-0.14
-0.13
-0.05
0.06
0.15
0.21
0.24
0.29
0.36
0.40
0.34
0.15
-0.10
-0.27
-0.25
-0.02
0.30
0.53
0.50
0.20
-0.28
-0.77
-1.10
-1.19
-1.02
-0.65
-0.17
0.29
0.64
0.79
0.74
0.57
0.39
0.30
0.33
0.42
0.46
0.39
0.22
0.06
-0.03
0.01
0.11
0.19
0.13
-0.09
-0.41
-0.71
-0.85
-0.79
-0.56
-0.30
-0.14
-0.15
-0.28
-0.42
-0.42
-0.27
-0.05
0.10
0.07
-0.15
-0.43
-0.59
-0.53
-0.28
0.03
0.22
0.22
0.02
-0.26
-0.48
-0.56
-0.49
-0.36
-0.27
-0.30
-0.41
-0.52
-0.50
-0.28
0.10
0.52
0.79
0.79
0.52
0.14
-0.15
-0.18
0.06
0.47
0.88
1.13
1.17
1.04
0.80
0.54
0.32
0.16
0.09
0.12
0.23
0.40
0.58
0.71
0.77
0.74
0.60
0.36
0.04
-0.34
-0.70
-0.95
-1.02
-0.87
-0.56
-0.18
0.15
0.33
0.31
0.12
-0.13
-0.33
-0.41
-0.35
-0.23
-0.17
-0.24
-0.43
-0.66
-0.82
-0.81
-0.65
-0.40
-0.15
0.03
0.13
0.18
0.21
0.23
0.24
0.24
0.22
0.20
0.18
0.18
0.20
0.24
0.28
0.30
0.26
0.17
0.03
-0.11
-0.21
-0.25
-0.23
-0.17
-0.10
-0.02
0.09
0.23
0.43
0.65
0.83
0.91
0.87
0.70
0.46
0.23
0.05
-0.05
-0.09
-0.09
-0.10
-0.15
-0.26
-0.41
-0.58
-0.75
-0.85
-0.83
-0.68
-0.43
-0.18
-0.04
-0.10
-0.35
-0.67
-0.93
-0.97
-0.76
-0.36
0.09
0.43
0.57
0.49
0.27
-0.00
-0.23
-0.35
-0.34
-0.17
0.14
0.59
1.10
1.60
1.96
2.08
1.96
1.63
1.20
0.77
0.42
0.14
-0.10
-0.33
-0.57
-0.78
-0.92
-0.95
-0.86
-0.65
-0.39
-0.13
0.03
0.04
-0.09
-0.32
-0.58
-0.79
-0.93
-0.98
-0.94
-0.79
-0.46
0.02
0.59
1.08
1.34
1.26
0.93
0.53
0.28
0.28
0.48
0.69
0.74
0.54
0.13
-0.36
-0.78
-1.07
-1.24
-1.31
-1.34
-1.32
-1.24
-1.08
-0.83
-0.52
-0.19
0.15
0.48
0.77
1.00
1.14
1.17
1.10
0.98
0.88
0.86
0.91
1.00
1.05
1.02
0.90
0.75
0.60
0.47
0.33
0.12
-0.18
-0.56
-0.94
-1.22
-1.33
-1.29
-1.15
-1.01
-0.95
-0.98
-1.03
-1.04
-0.97
-0.83
-0.70
-0.66
-0.73
-0.85
-0.92
-0.84
-0.58
-0.23
0.11
0.32
0.37
0.31
0.22
0.18
0.25
0.41
0.65
0.92
1.21
1.45
1.58
1.54
1.32
0.95
0.55
0.24
0.07
0.02
0.00
-0.09
-0.28
-0.52
-0.67
-0.60
-0.32
0.11
0.52
0.73
0.70
0.45
0.12
-0.14
-0.27
-0.27
-0.23
-0.21
-0.27
-0.36
-0.42
-0.40
-0.31
-0.19
-0.13
-0.19
-0.36
-0.57
-0.72
-0.70
-0.48
-0.09
0.37
0.77
1.01
1.07
0.98
0.85
0.74
0.70
0.70
0.66
0.51
0.22
-0.16
-0.53
-0.78
-0.87
-0.81
-0.66
-0.51
-0.37
-0.26
-0.15
-0.03
0.11
0.24
0.35
0.43
0.48
0.46
0.33
0.09
-0.20
-0.46
-0.56
-0.46
-0.18
0.14
0.39
0.50
0.46
0.33
0.19
0.08
0.01
-0.07
-0.17
-0.32
-0.51
-0.70
-0.85
-0.93
-0.90
-0.77
-0.54
-0.24
0.08
0.34
0.49
0.48
0.31
0.07
-0.12
-0.17
-0.08
0.13
0.35
0.53
0.67
0.78
0.87
0.90
0.82
0.59
0.24
-0.14
-0.42
-0.51
-0.41
-0.16
0.12
0.34
0.44
0.40
0.25
0.04
-0.18
-0.33
-0.38
-0.33
-0.20
-0.05
0.10
0.22
0.32
0.40
0.45
0.42
0.25
-0.05
-0.45
-0.81
-1.02
-1.04
-0.93
-0.79
-0.74
-0.79
-0.89
-0.97
-1.00
-0.99
-1.01
-1.09
-1.17
-1.18
-1.06
-0.88
-0.78
-0.91
-1.28
-1.74
-2.05
-1.96
-1.40
-0.47
0.58
1.46
1.96
2.04
1.76
1.30
0.85
0.51
0.36
0.35
0.46
0.63
0.83
1.03
1.17
1.22
1.12
0.86
0.48
0.09
-0.20
-0.29
-0.20
-0.00
0.17
0.23
0.17
0.05
-0.06
-0.07
0.00
0.13
0.23
0.28
0.29
0.30
0.36
0.48
0.63
0.76
0.84
0.86
0.82
0.74
0.65
0.58
0.55
0.56
0.57
0.54
0.42
0.21
-0.05
-0.30
-0.49
-0.61
-0.63
-0.56
-0.39
-0.14
0.13
0.32
0.32
0.07
-0.36
-0.83
-1.16
-1.25
-1.12
-0.88
-0.68
-0.57
-0.52
-0.41
-0.15
0.28
0.82
1.31
1.65
1.74
1.61
1.31
0.93
0.59
0.34
0.26
0.35
0.56
0.79
0.93
0.89
0.65
0.25
-0.15
-0.43
-0.47
-0.31
-0.04
0.18
0.21
0.03
-0.32
-0.69
-0.97
-1.10
-1.08
-1.02
-0.96
-0.97
-1.01
-1.07
-1.13
-1.18
-1.21
-1.21
-1.17
-1.06
-0.86
-0.59
-0.26
0.07
0.37
0.60
0.75
0.79
0.74
0.62
0.49
0.42
0.43
0.53
0.65
0.73
0.72
0.62
0.47
0.31
0.16
0.00
-0.17
-0.35
-0.46
-0.43
-0.25
0.04
0.30
0.40
0.31
0.06
-0.21
-0.38
-0.38
-0.23
-0.04
0.11
0.16
0.15
0.14
0.20
0.32
0.46
0.55
0.55
0.45
0.30
0.13
-0.03
-0.17
-0.27
-0.30
-0.27
-0.18
-0.09
-0.07
-0.18
-0.41
-0.69
-0.92
-1.01
-0.91
-0.64
-0.30
0.05
0.32
0.50
0.57
0.57
0.53
0.48
0.44
0.43
0.43
0.44
0.43
0.39
0.32
0.27
0.27
0.36
0.53
0.71
0.84
0.87
0.81
0.73
0.67
0.66
0.64
0.55
0.34
0.02
-0.32
-0.61
-0.82
-0.98
-1.15
-1.35
-1.54
-1.62
-1.52
-1.19
-0.69
-0.14
0.33
0.63
0.72
0.62
0.38
0.07
-0.24
-0.48
-0.58
-0.52
-0.33
-0.10
0.08
0.17
0.15
0.08
-0.02
-0.10
-0.16
-0.19
-0.18
-0.11
0.02
0.21
0.39
0.52
0.54
0.46
0.34
0.22
0.15
0.18
0.31
0.50
0.67
0.71
0.57
0.25
-0.14
-0.49
-0.69
-0.70
-0.57
-0.37
-0.18
-0.02
0.09
0.16
0.16
0.09
-0.07
-0.31
-0.58
-0.84
-1.00
-1.04
-0.93
-0.70
-0.42
-0.19
-0.09
-0.14
-0.28
-0.42
-0.44
-0.28
0.06
0.46
0.82
0.99
0.94
0.70
0.40
0.19
0.16
0.34
0.63
0.89
1.02
0.99
0.86
0.71
0.61
0.56
0.53
0.49
0.44
0.39
0.37
0.38
0.38
0.36
0.33
0.30
0.27
0.19
0.03
-0.23
-0.54
-0.82
-0.98
-1.00
-0.90
-0.76
-0.62
-0.52
-0.44
-0.40
-0.42
-0.54
-0.71
-0.87
-0.89
-0.71
-0.38
-0.01
0.24
0.30
0.20
0.04
-0.05
-0.07
-0.05
-0.09
-0.26
-0.53
-0.82
-0.99
-0.95
-0.70
-0.29
0.16
0.55
0.80
0.92
0.94
0.94
0.98
1.10
1.25
1.36
1.35
1.17
0.85
0.45
0.05
-0.28
-0.50
-0.63
-0.66
-0.58
-0.39
-0.12
0.19
0.45
0.57
0.53
0.36
0.13
-0.09
-0.24
-0.29
-0.23
-0.09
0.12
0.34
0.51
0.57
0.48
0.25
-0.07
-0.37
-0.54
-0.48
-0.21
0.17
0.47
0.51
0.25
-0.23
-0.68
-0.86
-0.68
-0.19
0.39
0.79
0.87
0.63
0.24
-0.12
-0.35
-0.45
-0.49
-0.55
-0.62
-0.65
-0.54
-0.28
0.04
0.28
0.30
0.09
-0.24
-0.53
-0.63
-0.50
-0.24
0.01
0.10
-0.01
-0.24
-0.50
-0.67
-0.70
-0.64
-0.54
-0.46
-0.44
-0.43
-0.38
-0.23
0.04
0.37
0.71
0.95
1.06
1.00
0.81
0.52
0.19
-0.13
-0.39
-0.55
-0.59
-0.50
-0.29
0.01
0.34
0.63
0.81
0.88
0.84
0.78
0.78
0.85
0.94
0.92
0.73
0.34
-0.12
-0.53
-0.77
-0.80
-0.70
-0.57
-0.49
-0.46
-0.45
-0.40
-0.30
-0.19
-0.10
-0.07
-0.09
-0.11
-0.09
-0.04
0.02
0.04
-0.03
-0.17
-0.36
-0.54
-0.68
-0.76
-0.81
-0.83
-0.84
-0.80
-0.70
-0.54
-0.32
-0.09
0.13
0.30
0.45
0.59
0.73
0.90
1.08
1.21
1.23
1.11
0.83
0.48
0.12
-0.14
-0.27
-0.27
-0.19
-0.11
-0.06
-0.04
0.02
0.14
0.34
0.57
0.76
0.85
0.84
0.73
0.58
0.43
0.30
0.20
0.11
0.03
-0.06
-0.15
-0.24
-0.29
-0.30
-0.31
-0.36
-0.49
-0.68
-0.85
-0.89
-0.73
-0.38
0.02
0.29
0.31
0.05
-0.35
-0.69
-0.81
-0.65
-0.28
0.12
0.40
0.46
0.30
0.00
-0.30
-0.48
-0.46
-0.24
0.09
0.45
0.71
0.83
0.82
0.74
0.66
0.64
0.69
0.75
0.77
0.69
0.52
0.30
0.06
-0.12
-0.23
-0.25
-0.24
-0.23
-0.27
-0.36
-0.48
-0.59
-0.64
-0.65
-0.61
-0.56
-0.51
-0.46
-0.42
-0.40
-0.40
-0.45
-0.54
-0.65
-0.72
-0.74
-0.72
-0.66
-0.56
-0.42
-0.21
0.07
0.37
0.65
0.85
0.98
1.06
1.10
1.13
1.10
0.96
0.70
0.35
-0.03
-0.38
-0.70
-1.02
-1.33
-1.62
-1.77
-1.70
-1.35
-0.77
-0.13
0.40
0.70
0.77
0.73
0.69
0.73
0.83
0.86
0.75
0.49
0.15
-0.12
-0.21
-0.14
0.00
0.08
0.03
-0.13
-0.28
-0.30
-0.14
0.15
0.47
0.71
0.78
0.69
0.46
0.15
-0.16
-0.41
-0.53
-0.50
-0.34
-0.11
0.11
0.26
0.34
0.40
0.48
0.59
0.69
0.71
0.60
0.39
0.14
-0.08
-0.20
-0.20
-0.13
-0.03
0.06
0.13
0.19
0.26
0.33
0.35
0.27
0.08
-0.18
-0.38
-0.42
-0.19
0.24
0.74
1.10
1.16
0.86
0.32
-0.29
-0.77
-1.01
-1.00
-0.84
-0.61
-0.41
-0.25
-0.12
0.01
0.14
0.21
0.20
0.08
-0.08
-0.20
-0.21
-0.11
0.04
0.15
0.15
0.05
-0.07
-0.12
-0.08
0.01
0.06
0.01
-0.11
-0.26
-0.33
-0.29
-0.14
0.04
0.18
0.25
0.23
0.16
0.08
0.02
-0.01
-0.00
-0.01
-0.08
-0.24
-0.49
-0.75
-0.91
-0.91
-0.75
-0.54
-0.39
-0.41
-0.55
-0.71
-0.76
-0.64
-0.43
-0.26
-0.23
-0.32
-0.44
-0.42
-0.21
0.17
0.56
0.82
0.90
0.82
0.71
0.66
0.70
0.78
0.81
0.71
0.48
0.19
-0.10
-0.29
-0.39
-0.45
-0.50
-0.59
-0.66
-0.64
-0.46
-0.16
0.16
0.36
0.32
0.05
-0.30
-0.53
-0.49
-0.16
0.33
0.78
1.05
1.10
1.01
0.90
0.87
0.87
0.79
0.54
0.10
-0.39
-0.75
-0.83
-0.59
-0.15
0.31
0.61
0.64
0.43
0.06
-0.32
-0.59
-0.68
-0.57
-0.35
-0.10
0.06
0.09
-0.00
-0.13
-0.23
-0.24
-0.17
-0.05
0.06
0.15
0.20
0.21
0.17
0.05
-0.14
-0.36
-0.55
-0.64
-0.62
-0.48
-0.31
-0.16
-0.07
-0.03
-0.03
-0.02
-0.01
0.02
0.06
0.13
0.24
0.39
0.55
0.70
0.79
0.82
0.78
0.68
0.55
0.38
0.18
-0.05
-0.29
-0.46
-0.52
-0.43
-0.22
0.04
0.23
0.28
0.18
-0.03
-0.27
-0.45
-0.54
-0.53
-0.45
-0.33
-0.18
-0.01
0.17
0.34
0.47
0.55
0.58
0.58
0.57
0.53
0.44
0.29
0.12
-0.05
-0.15
-0.18
-0.17
-0.20
-0.32
-0.52
-0.75
-0.90
-0.88
-0.70
-0.42
-0.14
0.06
0.13
0.12
0.05
-0.01
0.00
0.14
0.41
0.80
1.22
1.53
1.60
1.36
0.82
0.11
-0.59
-1.09
-1.30
-1.26
-1.08
-0.93
-0.93
-1.13
-1.47
-1.89
-2.27
-2.53
-2.66
-2.67
-2.64
-2.68
-2.91
-3.40
-4.13
-4.96
-5.68
-6.13
-6.24
-6.14
-6.06
-6.26
-6.89
-7.91
-9.12
-10.24
-11.03
-11.45
-11.65
-11.98
-12.85
-14.56
-17.14
-20.29
-23.53
-26.34
-28.49
-30.14
-31.81
-34.13
-37.54
-41.99
-46.98
-51.84
-55.94
-59.06
-61.36
-63.23
-65.25
-68.20
-73.16
-81.25
-93.00
-107.38
-121.32
-130.22
-129.28
-115.43
-88.47
-50.82
-5.97
43.30
95.75
150.94
207.66
262.74
311.33
348.60
371.78
381.17
379.64
370.87
357.66
341.09
320.92
296.58
268.05
236.15
202.27
167.92
134.21
101.82
70.71
40.10
8.43
-26.38
-66.77
-115.17
-173.30
-241.10
-315.51
-389.94
-455.22
-502.03
-523.92
-519.68
-493.54
-453.10
-406.14
-357.87
-309.93
-261.27
-210.16
-156.03
-100.32
-46.25
2.29
41.92
70.76
88.83
97.84
100.47
99.01
94.62
87.40
77.19
64.81
52.52
43.41
39.85
42.18
48.39
55.27
60.14
62.19
62.47
62.79
64.26
66.49
68.05
67.66
65.22
61.91
59.55
59.49
62.07
66.69
72.30
77.91
82.75
86.14
87.37
85.78
81.15
73.94
65.25
56.45
48.67
42.35
37.24
32.61
27.60
21.55
14.23
5.89
-2.82
-11.21
-18.91
-26.07
-33.21
-40.74
-48.46
-55.29
-59.62
-60.06
-56.23
-49.04
-40.38
-32.23
-25.77
-21.04
-17.16
-13.07
-8.17
-2.66
2.67
6.86
9.22
9.55
8.21
5.90
3.50
1.80
1.26
1.89
3.23
4.40
4.15
0.94
-6.75
-19.64
-36.67
-54.45
-67.84
-71.75
-63.51
-44.52
-19.97
3.23
19.42
26.38
25.61
20.81
15.76
12.69
12.11
13.53
16.46
20.76
26.39
32.91
39.35
44.38
46.82
45.97
41.89
35.28
27.29
19.18
11.95
5.97
1.01
-3.62
-8.57
-13.99
-19.45
-24.17
-27.48
-29.11
-29.24
-28.25
-26.45
-23.96
-20.84
-17.19
-13.35
-9.74
-6.66
-4.16
-1.98
0.23
2.76
5.68
8.87
12.10
15.17
17.94
20.36
22.42
24.17
25.72
27.21
28.73
30.28
31.77
33.09
34.13
34.88
35.45
35.99
36.64
37.42
38.20
38.76
38.88
38.44
37.44
36.02
34.22
31.93
28.83
24.52
18.69
11.23
2.29
-7.81
-18.58
-29.38
-39.52
-48.21
-54.91
-59.49
-62.41
-64.55
-66.90
-70.09
-73.84
-76.85
-77.02
-72.27
-61.48
-45.20
-25.70
-6.22
10.13
21.50
27.65
29.69
29.25
27.65
25.58
23.18
20.58
18.14
16.45
16.09
17.29
19.76
22.84
25.85
28.20
29.76
30.76
31.70
33.04
35.05
37.60
40.27
42.53
43.94
44.37
43.92
42.79
41.14
38.98
36.24
32.88
28.95
24.55
19.73
14.39
8.39
1.70
-5.36
-12.09
-17.63
-21.27
-22.84
-22.78
-21.94
-21.11
-20.68
-20.51
-20.10
-18.95
-16.89
-14.11
-11.06
-8.25
-6.09
-4.93
-5.04
-6.59
-9.53
-13.49
-17.79
-21.67
-24.47
-25.88
-26.01
-25.19
-23.85
-22.36
-20.94
-19.70
-18.64
-17.68
-16.70
-15.59
-14.29
-12.81
-11.24
-9.67
-8.17
-6.81
-5.65
-4.76
-4.10
-3.61
-3.11
-2.48
-1.61
-0.48
0.93
2.68
4.86
7.55
10.64
13.87
16.89
19.36
21.15
22.25
22.74
22.66
21.95
20.49
18.25
15.39
12.26
9.36
7.18
6.03
5.99
6.87
8.18
9.20
9.04
6.86
2.23
-4.62
-12.75
-20.79
-27.38
-31.66
-33.38
-32.82
-30.45
-26.69
-21.89
-16.46
-11.03
-6.42
-3.35
-2.19
-2.79
-4.59
-6.95
-9.34
-11.46
-13.04
-13.82
-13.44
-11.61
-8.36
-4.05
0.62
4.89
8.15
10.15
10.95
10.82
10.01
8.65
6.77
4.39
1.65
-1.13
-3.50
-5.07
-5.63
-5.30
-4.41
-3.41
-2.71
-2.48
-2.67
-3.08
-3.50
-3.79
-3.99
-4.21
-4.59
-5.24
-6.09
-7.00
-7.72
-8.03
-7.78
-6.94
-5.65
-4.16
-2.79
-1.75
-0.99
-0.15
1.37
4.18
8.56
14.31
20.74
26.90
31.98
35.53
37.60
38.58
38.89
38.77
38.19
36.91
34.86
32.18
29.32
26.82
25.11
24.33
24.37
25.06
26.21
27.44
28.03
26.88
22.88
15.43
4.98
-6.99
-18.49
-27.81
-34.14
-37.68
-39.21
-39.52
-38.98
-37.61
-35.40
-32.55
-29.58
-27.04
-25.22
-23.97
-22.84
-21.33
-19.16
-16.42
-13.49
-10.85
-8.88
-7.73
-7.29
-7.29
-7.43
-7.51
-7.45
-7.29
-7.12
-7.07
-7.22
-7.60
-8.17
-8.77
-9.22
-9.38
-9.23
-8.90
-8.59
-8.48
-8.60
-8.83
-8.99
-8.92
-8.65
-8.37
-8.40
-9.07
-10.59
-13.00
-16.13
-19.65
-23.10
-26.00
-27.99
-28.98
-29.18
-29.08
-29.31
-30.47
-32.89
-36.45
-40.40
-43.38
-43.64
-39.51
-30.02
-15.35
3.04
22.80
41.26
56.25
66.55
71.98
73.23
71.36
67.56
62.87
58.14
53.95
50.55
47.85
45.42
42.65
38.96
34.02
27.92
21.23
14.82
9.58
6.05
4.17
3.29
2.44
0.71
-2.29
-6.33
-10.72
-14.57
-17.23
-18.50
-18.55
-17.83
-16.75
-15.60
-14.47
-13.36
-12.23
-11.12
-10.14
-9.41
-9.02
-8.93
-9.03
-9.12
-9.08
-8.90
-8.69
-8.60
-8.70
-8.88
-8.92
-8.64
-7.94
-6.93
-5.81
-4.72
-3.69
-2.58
-1.26
0.31
1.99
3.49
4.57
5.15
5.31
5.26
5.18
5.11
4.95
4.59
3.98
3.24
2.54
2.08
1.87
1.81
1.73
1.52
1.19
0.85
0.63
0.54
0.52
0.45
0.23
-0.13
-0.57
-1.01
-1.38
-1.71
-2.01
-2.33
-2.63
-2.86
-2.94
-2.80
-2.42
-1.85
-1.17
-0.48
0.18
0.80
1.40
1.98
2.51
2.92
3.16
3.22
3.17
3.10
3.08
3.16
3.27
3.36
3.37
3.28
3.14
2.98
2.83
2.69
2.50
2.22
1.82
1.35
0.88
0.49
0.28
0.28
0.47
0.80
1.14
1.41
1.56
1.60
1.57
1.53
1.54
1.59
1.65
1.67
1.64
1.54
1.40
1.22
0.99
0.73
0.48
0.33
0.34
0.55
0.89
1.25
1.54
1.71
1.76
1.72
1.64
1.51
1.31
1.05
0.76
0.50
0.30
0.15
-0.01
-0.24
-0.58
-0.99
-1.37
-1.65
-1.79
-1.80
-1.77
-1.79
-1.88
-2.03
-2.15
-2.17
-2.03
-1.74
-1.35
-0.97
-0.65
-0.39
-0.15
0.11
0.40
0.64
0.74
0.64
0.35
-0.05
-0.44
-0.72
-0.87
-0.90
-0.82
-0.61
-0.25
0.25
0.80
1.25
1.45
1.34
0.97
0.49
0.08
-0.16
-0.20
-0.11
0.01
0.07
0.01
-0.14
-0.32
-0.42
-0.37
-0.12
0.30
0.82
1.30
1.63
1.73
1.59
1.27
0.83
0.37
-0.05
-0.38
-0.57
-0.59
-0.40
-0.07
0.32
0.62
0.73
0.63
0.38
0.09
-0.15
-0.34
-0.49
-0.64
-0.75
-0.77
-0.63
-0.32
0.05
0.36
0.47
0.35
0.01
-0.44
-0.91
-1.32
-1.61
-1.73
-1.65
-1.38
-0.98
-0.59
-0.34
-0.30
-0.45
-0.68
-0.86
-0.95
-0.98
-1.03
-1.15
-1.32
-1.47
-1.53
-1.47
-1.35
-1.21
-1.09
-0.94
-0.73
-0.46
-0.17
0.03
0.10
0.06
0.06
0.22
0.61
1.15
1.71
2.12
2.30
2.30
2.22
2.13
2.05
1.94
1.76
1.52
1.29
1.14
1.12
1.15
1.17
1.07
0.84
0.53
0.23
0.04
-0.01
0.07
0.18
0.23
0.18
0.04
-0.13
-0.25
-0.28
-0.25
-0.24
-0.32
-0.47
-0.60
-0.61
-0.42
-0.07
0.33
0.65
0.84
0.92
0.96
1.01
1.04
0.98
0.78
0.45
0.07
-0.22
-0.31
-0.20
0.02
0.19
0.23
0.11
-0.09
-0.27
-0.37
-0.41
-0.46
-0.58
-0.76
-0.89
-0.87
-0.64
-0.26
0.11
0.33
0.30
0.05
-0.33
-0.71
-0.96
-1.04
-0.93
-0.68
-0.34
0.00
0.26
0.40
0.43
0.41
0.44
0.56
0.75
0.92
1.01
0.92
0.68
0.34
-0.03
-0.36
-0.64
-0.86
-1.07
-1.27
-1.48
-1.65
-1.72
-1.65
-1.42
-1.09
-0.79
-0.62
-0.65
-0.81
-0.98
-0.99
-0.76
-0.32
0.21
0.67
0.97
1.11
1.13
1.08
0.98
0.79
0.53
0.23
-0.03
-0.14
-0.11
0.03
0.16
0.25
0.27
0.28
0.33
0.42
0.49
0.47
0.35
0.15
-0.07
-0.26
-0.37
-0.37
-0.24
0.04
0.47
0.98
1.44
1.72
1.77
1.63
1.41
1.23
1.15
1.16
1.15
1.07
0.86
0.56
0.21
-0.16
-0.52
-0.84
-1.12
-1.30
-1.37
-1.31
-1.14
-0.93
-0.74
-0.61
-0.54
-0.50
-0.44
-0.32
-0.13
0.12
0.41
0.74
1.08
1.41
1.68
1.83
1.83
1.69
1.43
1.11
0.75
0.36
-0.02
-0.36
-0.55
-0.55
-0.33
0.02
0.39
0.69
0.93
1.18
1.58
2.18
2.92
3.68
4.27
4.57
4.57
4.35
4.09
3.99
4.22
4.87
5.91
7.17
8.38
9.24
9.60
9.53
9.35
9.54
10.52
12.42
14.97
17.56
19.58
20.69
20.97
20.95
21.24
22.29
24.21
26.79
29.63
32.20
33.76
33.39
30.17
23.66
14.25
3.26
-7.53
-16.55
-23.11
-27.48
-30.50
-32.88
-34.82
-36.00
-36.05
-35.02
-33.45
-32.15
-31.62
-31.77
-31.94
-31.30
-29.28
-25.81
-21.47
-17.27
-14.41
-13.94
-16.36
-21.34
-27.71
-33.68
-37.47
-37.97
-35.14
-30.01
-24.19
-19.09
-15.49
-13.35
-12.17
-11.46
-11.11
-11.34
-12.34
-13.95
-15.54
-16.27
-15.59
-13.65
-11.34
-9.94
-10.49
-13.34
-18.08
-23.81
-29.52
-34.43
-38.13
-40.55
-42.05
-43.47
-45.99
-50.80
-58.66
-69.55
-82.42
-95.43
-106.35
-113.07
-114.04
-108.51
-96.73
-79.88
-59.95
-39.40
-20.70
-5.89
3.67
7.35
5.20
-1.80
-11.64
-21.08
-26.16
-23.24
-10.37
11.81
40.02
69.35
94.92
113.49
124.20
128.28
128.10
125.96
123.42
121.11
119.11
117.35
115.90
114.89
114.40
114.37
114.57
114.75
114.77
114.62
114.40
114.33
114.61
115.47
117.02
119.25
122.03
125.19
128.68
132.65
137.34
142.53
147.02
148.49
144.07
131.54
110.56
83.07
52.82
24.07
0.42
-15.97
-24.51
-26.09
-22.86
-18.17
-16.23
-21.51
-37.99
-68.16
-112.29
-167.89
-229.54
-289.35
-338.24
-367.85
-372.78
-352.15
-309.73
-252.62
-188.91
-125.75
-68.24
-19.53
18.62
45.61
61.92
69.30
70.48
68.54
66.01
64.41
64.27
65.50
67.82
70.89
74.35
77.84
81.01
83.76
86.27
88.91
92.17
96.46
102.31
110.34
120.94
133.72
146.89
156.98
159.44
149.90
125.69
87.09
37.59
-16.97
-69.93
-115.27
-148.41
-166.04
-165.90
-146.67
-108.94
-56.43
3.23
59.23
99.97
116.34
104.61
67.75
14.22
-45.00
-99.88
-143.58
-172.73
-186.29
-184.33
-167.43
-137.30
-97.58
-54.03
-13.45
18.31
38.23
46.73
46.81
42.28
36.07
29.57
23.14
17.07
12.26
9.97
11.10
15.51
21.76
27.59
30.84
30.35
26.62
21.61
18.03
18.13
22.66
30.63
39.67
47.20
51.58
52.79
52.16
51.85
54.05
60.20
70.44
83.19
94.95
100.81
95.69
76.29
42.91
-0.06
-45.20
-84.63
-112.69
-127.47
-130.64
-125.81
-116.61
-105.52
-93.86
-82.51
-72.49
-65.09
-61.24
-60.93
-63.04
-65.70
-67.19
-66.61
-64.13
-60.75
-57.74
-56.10
-56.21
-57.72
-59.59
-60.25
-57.98
-51.49
-40.53
-26.23
-10.93
2.50
11.73
15.79
15.25
11.76
7.07
2.28
-2.52
-7.75
-13.83
-20.61
-27.38
-33.33
-38.08
-41.93
-45.58
-49.51
-53.49
-56.44
-56.91
-53.78
-46.98
-37.55
-27.11
-17.12
-8.13
0.28
9.01
18.75
29.38
39.94
49.09
55.73
59.46
60.60
59.93
58.30
56.23
53.96
51.39
48.52
45.44
42.42
39.75
37.62
35.99
34.62
33.23
31.62
29.81
28.02
26.56
25.68
25.49
25.88
26.61
27.34
27.84
27.98
27.79
27.44
27.15
27.08
27.29
27.71
28.13
28.31
28.09
27.48
26.68
25.95
25.53
25.46
25.63
25.83
25.97
26.19
26.93
28.70
31.67
35.34
38.48
39.49
37.11
31.05
21.80
9.95
-4.63
-22.98
-46.26
-74.43
-105.25
-134.71
-158.44
-173.54
-179.41
-177.40
-169.39
-156.50
-138.79
-115.94
-88.43
-58.22
-28.43
-2.28
17.99
31.58
39.02
41.51
40.49
37.33
33.15
28.83
24.93
21.79
19.47
17.91
17.00
16.56
16.53
16.94
17.93
19.54
21.61
23.80
25.60
26.57
26.51
25.53
24.01
22.41
21.02
19.97
19.13
18.34
17.49
16.61
15.78
15.04
14.29
13.35
12.08
10.46
8.69
7.06
5.83
5.06
4.67
4.43
4.17
3.81
3.37
2.91
2.45
1.95
1.42
0.93
0.60
0.52
0.70
1.03
1.32
1.40
1.20
0.76
0.23
-0.26
-0.67
-0.99
-1.26
-1.49
-1.60
-1.53
-1.23
-0.70
-0.07
0.54
1.02
1.41
1.83
2.49
3.52
4.95
6.69
8.53
10.27
11.73
12.78
13.36
13.47
13.20
12.82
12.73
13.28
14.63
16.49
18.21
19.00
18.35
16.41
14.04
12.50
12.91
15.78
20.72
26.73
32.42
36.30
36.87
32.86
23.69
10.02
-5.90
-20.60
-30.57
-33.65
-30.05
-22.24
-13.64
-7.05
-3.47
-2.23
-1.92
-1.49
-0.85
-0.47
-0.58
-0.73
0.15
2.98
7.86
13.72
18.69
20.80
18.79
12.55
3.16
-7.49
-17.25
-24.36
-27.95
-28.18
-26.09
-23.06
-20.33
-18.57
-17.85
-17.85
-18.12
-18.29
-18.22
-17.83
-17.11
-16.13
-15.01
-13.89
-12.91
-12.25
-12.10
-12.60
-13.62
-14.73
-15.33
-14.92
-13.56
-11.93
-11.03
-11.49
-12.98
-14.18
-13.44
-9.61
-2.82
5.55
13.48
19.29
22.20
22.48
21.01
18.67
16.08
13.56
11.18
9.03
7.20
5.86
5.02
4.60
4.31
3.82
2.82
1.23
-0.68
-2.42
-3.52
-3.77
-3.35
-2.72
-2.31
-2.25
-2.28
-1.97
-0.98
0.73
2.84
4.92
6.58
7.71
8.39
8.73
8.73
8.25
7.11
5.22
2.77
0.16
-2.14
-3.76
-4.61
-4.92
-5.06
-5.41
-6.09
-6.95
-7.68
-8.00
-7.84
-7.38
-6.95
-6.84
-7.17
-7.87
-8.69
-9.38
-9.77
-9.80
-9.52
-9.00
-8.27
-7.24
-5.80
-3.80
-1.24
1.74
4.82
7.62
9.83
11.33
12.23
12.73
13.06
13.30
13.32
12.89
11.78
9.92
7.54
5.01
2.71
0.83
-0.78
-2.57
-5.05
-8.60
-13.22
-18.51
-23.79
-28.29
-31.36
-32.69
-32.34
-30.67
-28.32
-25.99
-24.21
-23.24
-23.06
-23.45
-23.98
-23.95
-22.33
-18.13
-10.80
-0.82
10.11
19.72
26.06
28.51
28.06
26.74
26.45
27.97
30.74
33.32
34.47
33.78
31.74
29.16
26.55
23.81
20.51
16.41
11.66
7.04
3.50
1.72
1.83
3.40
5.70
8.02
9.94
11.29
12.04
12.06
11.08
8.80
5.17
0.51
-4.50
-9.05
-12.48
-14.46
-15.07
-14.58
-13.40
-11.90
-10.42
-9.28
-8.75
-8.91
-9.60
-10.31
-10.43
-9.38
-6.92
-3.24
1.09
5.21
8.27
9.64
9.09
6.92
3.85
0.83
-1.34
-2.31
-2.34
-2.21
-2.81
-4.67
-7.70
-11.20
-14.15
-15.69
-15.44
-13.61
-10.79
-7.70
-4.89
-2.67
-1.15
-0.36
-0.31
-0.96
-2.09
-3.34
-4.24
-4.41
-3.70
-2.26
-0.46
1.31
2.71
3.61
3.95
3.75
3.02
1.81
0.19
-1.66
-3.47
-4.98
-5.89
-5.97
-5.02
-3.08
-0.35
2.69
5.45
7.40
8.22
7.91
6.75
5.19
3.70
2.68
2.43
3.04
4.30
5.71
6.59
6.34
4.75
2.22
-0.41
-2.28
-3.14
-3.48
-4.31
