1680512156.00
64.000000
-0.00
-0.00
-0.00
-0.00
-0.00
-0.00
-0.00
-0.00
-0.00
-0.00
0.00
0.01
0.01
-0.00
-0.03
-0.05
-0.05
0.00
0.13
0.36
0.66
1.01
1.37
1.72
2.06
2.40
2.79
3.24
3.80
4.42
5.06
5.66
6.20
6.68
7.15
7.68
8.31
9.14
10.09
11.04
11.88
12.56
13.14
13.76
14.65
15.96
17.91
20.32
22.90
25.38
27.58
29.57
31.68
34.32
37.81
42.54
48.15
54.10
59.83
64.97
69.58
74.14
79.34
85.71
93.76
103.00
112.62
121.73
129.77
136.75
143.30
150.75
157.77
166.64
177.95
191.79
206.97
220.57
228.25
225.36
208.53
176.87
132.76
80.05
23.07
-34.94
-92.44
-149.16
-205.23
-260.37
-313.74
-363.87
-409.83
-450.91
-486.50
-515.74
-537.23
-549.22
-549.96
-538.37
-514.21
-478.67
-433.88
-382.45
-327.02
-269.84
-212.63
-156.66
-102.95
-52.37
-5.90
35.58
71.43
101.35
125.50
144.38
158.69
169.15
176.37
180.75
182.57
182.08
179.53
175.27
169.67
163.16
156.06
148.63
141.04
133.37
125.68
118.00
110.37
102.85
95.47
88.28
81.34
74.68
68.34
62.33
56.66
51.31
46.22
41.38
36.77
32.42
28.38
24.73
21.49
18.62
16.03
13.59
11.20
8.81
6.50
4.43
2.74
1.54
0.76
0.18
-0.47
-1.43
-2.75
-4.29
-5.72
-6.73
-7.13
-7.01
-6.71
-6.69
-7.34
-8.73
-10.61
-12.47
-13.82
-14.34
-14.09
-13.44
-12.90
-12.96
-14.02
-16.30
-19.73
-23.70
-26.91
-27.61
-24.22
-16.11
-4.17
9.28
21.37
29.82
33.85
34.26
32.77
30.95
29.51
28.23
26.47
23.86
20.68
17.72
15.82
15.39
16.20
17.51
18.29
17.72
15.40
11.28
5.54
-1.46
-9.08
-16.18
-21.22
-22.65
-19.54
-12.25
-2.42
7.50
15.31
19.86
21.40
21.06
20.07
19.18
18.50
17.84
17.14
16.68
16.76
17.44
18.26
18.44
17.27
14.57
10.83
7.02
4.15
2.55
1.96
1.63
0.70
-1.31
-4.32
-7.73
-10.78
-12.82
-13.67
-13.55
-12.92
-12.33
-12.10
-12.30
-12.72
-13.02
-12.91
-12.23
-11.09
-9.76
-8.64
-8.02
-7.99
-8.46
-9.13
-9.62
-9.68
-9.19
-8.28
-7.22
-6.28
-5.61
-5.13
-4.60
-3.77
-2.51
-0.83
1.17
3.43
6.05
9.15
12.83
17.03
21.53
26.04
30.24
33.88
36.75
38.66
39.38
38.81
37.04
34.37
31.27
28.08
24.98
21.92
18.86
16.02
14.23
14.91
19.65
29.77
44.60
61.18
74.67
79.72
72.15
50.16
14.83
-30.31
-80.01
-128.20
-168.67
-195.93
-206.35
-199.14
-176.84
-144.77
-109.43
-76.58
-49.87
-30.41
-17.49
-9.78
-5.99
-5.13
-6.23
-8.06
-9.27
-8.93
-6.86
-3.80
-1.01
0.35
-0.17
-2.17
-4.59
-6.37
-6.94
-6.45
-5.70
-5.69
-7.20
-10.40
-14.74
-19.12
-22.16
-22.64
-19.80
-13.57
-4.45
6.61
18.47
29.96
40.08
48.04
53.42
56.15
56.56
55.22
52.85
50.05
47.29
44.80
42.73
41.17
40.26
40.13
40.86
42.39
44.50
46.87
49.21
51.34
53.24
54.96
56.43
57.34
57.16
55.35
51.59
45.99
39.05
31.42
23.66
16.13
9.03
2.52
-3.14
-7.65
-10.73
-12.35
-12.73
-12.32
-11.62
-11.09
-11.03
-11.60
-12.79
-14.45
-16.34
-18.22
-20.01
-21.87
-24.16
-27.24
-31.15
-35.48
-39.37
-41.78
-41.95
-39.62
-35.13
-29.25
-22.84
-16.59
-10.92
-6.04
-2.08
0.89
2.77
3.57
3.35
2.25
0.46
-1.85
-4.48
-7.21
-9.81
-12.08
-13.87
-15.10
-15.76
-15.83
-15.32
-14.28
-12.86
-11.28
-9.74
-8.44
-7.42
-6.65
-6.04
-5.47
-4.87
-4.22
-3.57
-3.10
-3.10
-3.90
-5.78
-8.78
-12.63
-16.82
-20.76
-24.06
-26.64
-28.74
-30.76
-33.01
-35.51
-37.94
-39.77
-40.40
-39.44
-36.81
-32.77
-27.85
-22.67
-17.77
-13.40
-9.46
-5.58
-1.27
3.75
9.37
15.10
20.26
24.28
26.93
28.31
28.71
28.38
27.52
26.29
25.03
24.29
24.67
26.57
29.84
33.72
37.08
38.77
38.07
34.77
29.21
22.00
13.87
5.52
-2.46
-9.55
-15.42
-19.96
-23.32
-25.83
-27.84
-29.56
-30.87
-31.36
-30.48
-27.85
-23.50
-18.06
-12.63
-8.48
-6.56
-7.12
-9.56
-12.56
-14.56
-14.27
-11.05
-4.96
3.40
13.08
23.16
32.77
41.30
48.42
54.16
58.74
62.36
64.89
65.72
63.97
58.89
50.25
38.56
24.84
10.33
-3.87
-16.89
-28.00
-36.48
-41.75
-43.59
-42.35
-39.04
-34.91
-31.06
-28.03
-25.83
-24.10
-22.52
-21.00
-19.61
-18.48
-17.54
-16.54
-15.15
-13.21
-10.81
-8.33
-6.27
-5.01
-4.71
-5.25
-6.37
-7.79
-9.37
-11.08
-13.01
-15.18
-17.54
-19.98
-22.40
-24.68
-26.66
-28.03
-28.31
-26.97
-23.62
-18.25
-11.25
-3.35
4.70
12.24
18.85
24.28
28.43
31.19
32.56
32.64
31.70
30.05
27.98
25.63
23.05
20.23
17.24
14.28
11.62
9.52
8.17
7.61
7.79
8.48
9.48
10.57
11.66
12.83
14.29
16.22
18.68
21.45
24.13
26.18
27.11
26.59
24.51
20.97
16.30
11.02
5.78
1.27
-1.94
-3.53
-3.55
-2.43
-0.89
0.29
0.43
-0.83
-3.47
-7.16
-11.32
-15.27
-18.36
-20.02
-19.82
-17.54
-13.25
-7.37
-0.64
6.05
11.90
16.45
19.63
21.76
23.22
24.38
25.43
26.41
27.29
28.03
28.69
29.27
29.76
30.15
30.39
30.50
30.54
30.61
30.89
31.47
32.42
33.69
35.09
36.32
37.06
37.07
36.23
34.48
31.77
28.07
23.30
17.52
10.93
3.94
-2.92
-9.14
-14.37
-18.50
-21.61
-23.92
-25.71
-27.29
-28.98
-30.98
-33.40
-36.04
-38.49
-40.11
-40.34
-38.82
-35.55
-30.93
-25.57
-20.20
-15.40
-11.56
-8.84
-7.20
-6.50
-6.59
-7.34
-8.67
-10.50
-12.67
-14.98
-17.24
-19.30
-21.10
-22.63
-23.80
-24.39
-24.16
-22.96
-20.87
-18.27
-15.72
-13.72
-12.55
-12.16
-12.18
-12.14
-11.57
-10.11
-7.57
-3.86
0.97
6.73
13.07
19.49
25.46
30.42
33.99
35.97
36.42
35.61
33.90
31.70
29.39
27.19
25.15
23.13
20.85
18.05
14.61
10.72
6.85
3.66
1.79
1.66
3.39
6.72
11.23
16.44
21.96
27.52
32.95
38.06
42.56
46.08
48.34
49.27
49.11
48.35
47.48
46.85
46.69
47.30
49.15
52.67
57.66
62.83
65.81
63.87
55.10
39.31
18.21
-5.32
-28.34
-48.68
-65.08
-76.85
-83.33
-83.86
-78.17
-67.03
-52.55
-37.77
-25.81
-18.82
-17.41
-20.68
-26.70
-33.28
-38.69
-42.03
-43.27
-43.02
-42.07
-41.04
-40.15
-39.22
-37.88
-35.79
-32.84
-29.20
-25.23
-21.27
-17.62
-14.46
-11.92
-10.23
-9.58
-9.91
-10.73
-11.02
-9.46
-4.91
3.04
13.73
25.44
35.92
43.11
45.81
44.00
38.72
31.51
23.80
16.42
9.49
2.61
-4.84
-13.36
-23.02
-33.39
-43.69
-52.87
-60.02
-64.51
-66.17
-65.22
-62.26
-58.03
-53.30
-48.72
-44.68
-41.13
-37.55
-33.02
-26.44
-17.03
-4.72
9.50
23.70
35.56
43.07
45.27
42.49
36.19
28.32
20.58
13.89
8.34
3.53
-0.90
-4.97
-8.25
-10.20
-10.59
-9.70
-8.34
-7.49
-7.91
-9.61
-11.68
-12.28
-9.07
0.19
17.02
41.49
71.81
104.13
132.92
152.01
156.09
142.45
112.08
69.75
22.62
-21.83
-57.95
-83.10
-97.40
-102.66
-101.00
-93.95
-82.41
-67.11
-49.03
-29.53
-10.05
8.32
25.02
40.00
53.38
65.14
74.90
82.08
85.95
85.98
82.07
74.63
64.63
53.29
41.67
30.32
19.09
7.32
-5.66
-19.94
-34.75
-48.57
-59.65
-66.73
-69.47
-68.58
-65.44
-61.55
-58.09
-55.60
-54.09
-53.20
-52.51
-51.75
-50.83
-49.74
-48.44
-46.70
-44.16
-40.45
-35.48
-29.51
-23.14
-17.11
-12.03
-8.18
-5.54
-3.91
-3.11
-2.95
-3.26
-3.79
-4.25
-4.37
-4.11
-3.57
-3.00
-2.60
-2.42
-2.36
-2.17
-1.60
-0.49
1.20
3.40
5.92
8.47
10.73
12.37
13.17
13.08
12.27
11.05
9.78
8.72
7.96
7.35
6.68
5.72
4.38
2.70
0.82
-1.15
-3.08
-4.93
-6.58
-7.97
-9.03
-9.84
-10.59
-11.53
-12.87
-14.65
-16.77
-19.12
-21.62
-24.27
-27.02
-29.66
-31.73
-32.60
-31.68
-28.66
-23.68
-17.26
-10.16
-3.12
3.25
8.61
12.87
16.08
18.40
20.05
21.26
22.20
22.94
23.50
23.76
23.58
22.86
21.64
20.12
18.66
17.67
17.49
18.23
19.68
21.46
23.07
24.07
24.22
23.48
21.96
19.84
17.34
14.64
11.93
9.32
6.88
4.62
2.48
0.41
-1.60
-3.50
-5.24
-6.75
-8.01
-9.02
-9.79
-10.32
-10.64
-10.85
-11.14
-11.75
-12.92
-14.78
-17.19
-19.77
-21.94
-23.10
-22.83
-21.05
-17.98
-14.06
-9.74
-5.42
-1.34
2.37
5.65
8.46
10.76
12.50
13.66
14.23
14.28
13.92
13.30
12.56
11.78
10.96
10.03
8.94
7.70
6.42
5.31
4.54
4.21
4.23
4.31
4.02
2.87
0.44
-3.48
-8.90
-15.54
-22.95
-30.64
-38.18
-45.32
-52.04
-58.49
-64.89
-71.40
-77.94
-84.07
-88.82
-90.81
-88.44
-80.46
-66.43
-47.12
-24.42
-0.85
21.29
40.52
56.46
69.55
80.44
89.41
96.12
99.87
100.11
96.91
91.16
84.34
78.04
73.41
70.87
70.06
70.13
70.16
69.46
67.80
65.21
61.90
58.04
53.75
49.22
44.74
40.69
37.41
34.98
33.11
31.28
28.89
25.54
21.19
16.17
11.10
6.72
3.68
2.35
2.73
4.43
6.76
8.96
10.37
10.63
9.72
7.89
5.48
2.89
0.41
-1.77
-3.63
-5.36
-7.36
-10.06
-13.82
-18.73
-24.57
-30.82
-36.88
-42.10
-45.96
-48.03
-48.05
-45.93
-41.88
-36.38
-30.09
-23.71
-17.81
-12.69
-8.42
-4.96
-2.26
-0.26
1.11
1.93
2.32
2.34
1.98
1.13
-0.31
-2.38
-5.00
-7.93
-10.78
-13.03
-14.24
-14.01
-12.26
-9.17
-5.23
-1.10
2.60
5.40
7.11
7.76
7.49
6.48
4.91
2.94
0.74
-1.54
-3.84
-6.15
-8.53
-11.04
-13.69
-16.42
-19.16
-21.90
-24.57
-27.11
-29.31
-30.85
-31.45
-31.03
-29.82
-28.31
-27.03
-26.41
-26.55
-27.35
-28.56
-29.91
-31.17
-32.11
-32.46
-31.87
-30.00
-26.63
-21.72
-15.42
-8.04
-0.00
8.21
16.08
23.08
28.74
32.72
34.87
35.24
34.04
31.59
28.25
24.42
20.48
16.80
13.61
10.96
8.71
6.61
4.39
1.92
-0.70
-3.18
-5.19
-6.45
-6.85
-6.48
-5.55
-4.29
-2.98
-1.82
-0.97
-0.53
-0.49
-0.83
-1.45
-2.27
-3.22
-4.25
-5.27
-6.19
-6.93
-7.42
-7.65
-7.67
-7.53
-7.26
-6.86
-6.37
-5.88
-5.50
-5.37
-5.60
-6.17
-7.02
-8.03
-9.11
-10.22
-11.43
-12.82
-14.43
-16.17
-17.75
-18.74
-18.68
-17.20
-14.16
-9.69
-4.12
2.12
8.51
14.54
19.75
23.77
26.48
28.04
28.90
29.64
30.70
32.18
33.87
35.32
36.23
36.64
37.01
38.11
40.71
45.20
51.40
58.55
65.53
71.21
74.81
76.21
76.04
75.53
76.19
79.37
85.60
94.17
102.76
107.77
105.06
91.38
65.56
29.34
-12.92
-55.46
-92.89
-121.58
-140.34
-150.08
-152.84
-150.79
-145.68
-138.78
-131.04
-123.30
-116.20
-109.98
-104.36
-98.66
-92.13
-84.39
-75.72
-66.88
-58.78
-51.93
-46.03
-40.01
-32.35
-21.77
-7.80
8.89
26.67
43.46
57.39
67.30
72.92
74.77
73.70
70.60
66.17
60.93
55.33
49.81
44.77
40.37
36.56
33.06
29.64
26.32
23.39
21.30
20.37
20.62
21.73
23.23
24.70
25.92
26.79
27.27
27.22
26.54
25.27
23.72
22.48
22.21
23.40
26.02
29.43
32.42
33.62
31.97
27.15
19.69
10.81
1.90
-5.99
-12.44
-17.64
-22.12
-26.31
-30.34
-34.03
-37.07
-39.25
-40.53
-41.02
-40.76
-39.78
-38.04
-35.65
-33.08
-31.13
-30.69
-32.38
-36.11
-40.89
-45.00
-46.37
-43.31
-34.97
-21.79
-5.38
11.93
27.63
39.79
47.33
50.13
48.73
43.98
36.80
28.06
18.63
9.43
1.30
-5.14
-9.68
-12.55
-14.26
-15.36
-16.20
-16.88
-17.24
-17.02
-16.08
-14.47
-12.42
-10.17
-7.87
-5.48
-2.87
0.02
2.99
5.59
7.27
7.63
6.69
4.84
2.70
0.82
-0.53
-1.33
-1.72
-1.87
-1.87
-1.87
-2.03
-2.54
-3.55
-5.09
-7.03
-9.16
-11.33
-13.51
-15.71
-17.97
-20.23
-22.38
-24.39
-26.37
-28.60
-31.39
-34.85
-38.75
-42.56
-45.58
-47.16
-46.90
-44.70
-40.83
-35.88
-30.63
-26.02
-22.89
-21.73
-22.60
-25.09
-28.48
-32.03
-35.15
-37.58
-39.27
-40.30
-40.75
-40.65
-39.99
-38.70
-36.62
-33.51
-29.15
-23.44
-16.66
-9.50
-3.01
1.72
4.01
3.97
2.56
1.40
2.28
6.49
14.32
24.92
36.58
47.37
55.67
60.67
62.31
61.13
57.86
53.19
47.67
41.82
36.06
30.71
25.86
21.26
16.41
10.78
4.06
-3.67
-11.95
-20.14
-27.65
-34.14
-39.68
-44.61
-49.35
-54.17
-59.02
-63.52
-67.25
-70.01
-72.13
-74.40
-77.80
-82.97
-89.98
-98.18
-106.44
-113.37
-117.56
-117.52
-111.91
-99.69
-80.74
-56.16
-28.27
-0.09
25.61
47.18
64.46
78.47
90.67
102.07
112.82
122.34
129.79
134.72
137.33
138.45
139.04
139.78
140.73
141.40
141.16
139.58
136.68
132.69
127.74
121.54
113.50
103.13
90.54
76.68
63.08
51.30
42.21
35.69
30.68
25.79
19.95
12.80
4.77
-3.25
-10.38
-16.01
-19.91
-22.10
-22.65
-21.55
-18.77
-14.48
-9.22
-3.93
0.26
2.37
1.95
-0.79
-5.12
-10.14
-15.13
-19.76
-24.03
-28.08
-31.85
-35.11
-37.45
-38.64
-38.75
-38.11
-37.16
-36.20
-35.30
-34.28
-32.98
-31.33
-29.46
-27.63
-26.05
-24.85
-24.03
-23.54
-23.34
-23.45
-23.90
-24.68
-25.60
-26.32
-26.38
-25.31
-22.80
-18.88
-13.95
-8.73
-4.03
-0.53
1.40
1.75
0.87
-0.70
-2.27
-3.04
-2.22
0.77
5.98
12.70
19.55
24.82
27.15
26.09
22.32
17.39
13.02
10.40
9.88
11.02
12.98
14.97
16.49
17.28
17.21
16.11
13.94
10.81
7.07
3.32
0.20
-1.77
-2.37
-1.64
0.08
2.31
4.53
6.31
7.46
8.12
8.70
9.71
11.54
14.18
17.11
19.53
20.60
19.84
17.32
13.61
9.53
5.79
2.78
0.38
-1.85
-4.43
-7.70
-11.76
-16.53
-21.93
-28.09
-35.44
-44.50
-55.63
-68.76
-83.24
-97.95
-111.62
-123.11
-131.43
-135.60
-134.57
-127.48
-114.05
-95.04
-72.20
-47.69
-23.19
0.69
24.45
49.02
74.84
101.35
127.13
150.66
171.04
188.46
204.03
219.18
234.67
250.04
263.37
271.58
271.37
260.15
236.78
201.53
155.79
101.75
42.46
-17.78
-73.18
-117.18
-144.05
-150.78
-138.23
-111.00
-75.92
-40.05
-9.01
13.70
26.83
30.96
28.03
20.57
10.82
-0.01
-12.14
-26.69
-44.63
-65.61
-87.66
-107.75
-123.04
-132.04
-135.00
-133.45
-129.15
-123.36
-116.50
-108.51
-99.50
-90.15
-81.68
-75.23
-71.24
-68.96
-66.73
-62.71
-55.83
-46.39
-36.03
-26.92
-20.87
-18.46
-18.63
-18.82
-15.53
-5.17
14.88
45.40
84.59
128.10
169.75
202.92
222.22
224.77
210.69
182.68
145.02
102.33
58.83
18.00
-17.34
-45.02
-63.60
-72.80
-73.70
-68.62
-60.52
-52.25
-45.93
-42.79
-43.41
-47.95
-56.33
-68.12
-82.35
-97.56
-112.21
-125.40
-137.26
-148.98
-161.99
-176.75
-191.90
-203.90
-207.84
-198.75
-173.31
-131.20
-75.83
-14.03
45.22
92.91
122.33
130.74
120.03
95.78
65.38
35.98
13.01
-0.29
-2.56
6.22
24.94
51.29
81.84
112.47
139.39
160.20
174.44
183.31
188.91
193.11
196.73
199.13
198.41
192.01
177.67
154.45
123.45
87.87
52.18
20.77
-3.45
-19.80
-29.59
-35.15
-38.64
-41.37
-43.75
-45.78
-47.59
-49.63
-52.45
-56.29
-60.86
-65.33
-68.70
-70.22
-69.69
-67.61
-64.93
-62.74
-61.90
-62.70
-64.88
-67.73
-70.45
-72.46
-73.61
-74.10
-74.29
-74.48
-74.83
-75.37
-76.13
-77.11
-78.27
-79.32
-79.66
-78.30
-74.13
-66.25
-54.35
-38.94
-21.27
-2.99
14.28
29.36
41.71
51.27
58.29
62.99
65.47
65.77
64.00
60.52
55.92
50.94
46.17
41.99
38.50
35.63
33.27
31.38
29.94
28.91
28.10
27.23
25.97
24.08
21.44
18.16
14.42
10.46
6.52
2.82
-0.46
-3.20
-5.35
-6.99
-8.31
-9.55
-10.90
-12.42
-14.01
-15.56
-17.04
-18.66
-20.82
-23.92
-28.04
-32.81
-37.30
-40.37
-41.02
-38.80
-33.95
-27.26
-19.72
-12.26
-5.41
0.56
5.59
9.65
12.67
14.56
15.36
15.21
14.42
13.39
12.44
11.79
11.50
11.45
11.49
11.47
11.33
11.14
11.13
11.51
12.47
13.94
15.66
17.28
18.42
18.86
18.60
17.78
16.57
15.09
13.47
11.82
10.30
9.07
8.30
8.00
8.01
8.08
7.96
7.47
6.58
5.35
3.82
1.95
-0.41
-3.49
-7.46
-12.29
-17.64
-22.84
-27.04
-29.50
-29.72
-27.64
-23.61
-18.19
-12.03
-5.73
0.15
5.06
8.52
10.11
9.72
7.51
3.94
-0.44
-5.05
-9.54
-13.74
-17.69
-21.59
-25.53
-29.40
-32.78
-35.02
-35.46
-33.74
-30.03
-24.97
-19.44
-14.23
-9.70
-5.81
-2.28
1.15
4.63
8.15
11.59
14.72
17.18
18.43
17.83
14.96
9.90
3.36
-3.51
-9.53
-13.99
-16.83
-18.50
-19.55
-20.28
-20.56
-20.07
-18.54
-15.96
-12.51
-8.37
-3.64
1.58
7.05
12.16
16.04
17.83
17.14
14.25
10.07
5.84
2.74
1.59
2.71
5.93
10.70
16.26
21.74
26.41
29.80
31.85
32.80
33.07
33.01
32.71
32.00
30.59
28.21
24.87
20.82
16.58
12.74
9.83
8.17
7.84
8.68
10.34
12.35
14.22
15.52
15.98
15.60
14.57
13.27
12.10
11.35
11.07
11.10
11.10
10.75
9.94
8.75
7.47
6.46
5.91
5.83
5.96
5.97
5.57
4.65
3.37
2.03
0.93
0.27
-0.01
-0.12
-0.38
-1.05
-2.22
-3.75
-5.30
-6.41
-6.63
-5.64
-3.44
-0.54
1.92
2.41
-0.56
-7.65
-18.16
-29.90
-39.79
-44.88
-43.49
-35.67
-23.14
-8.36
6.40
19.75
31.32
41.33
50.07
57.47
63.15
66.72
68.03
67.50
65.95
64.47
64.11
65.73
69.92
76.82
85.79
95.14
102.12
103.54
96.83
81.14
57.79
29.97
1.60
-24.00
-44.87
-60.44
-71.05
-77.29
-79.67
-78.77
-75.55
-71.46
-68.16
-67.03
-68.62
-72.54
-77.60
-82.36
-85.56
-86.58
-85.53
-83.19
-80.56
-78.50
-77.36
-77.00
-76.94
-76.71
-76.03
-74.89
-73.33
-71.32
-68.64
-64.94
-59.99
-53.80
-46.64
-38.93
-31.01
-22.99
-14.74
-6.01
3.37
13.30
23.44
33.22
41.99
49.19
54.45
57.68
59.00
58.74
57.34
55.27
52.97
50.73
48.75
47.05
45.55
44.03
42.19
39.68
36.17
31.58
26.07
20.16
14.50
9.65
5.86
2.95
0.48
-2.01
-4.79
-7.86
-10.99
-13.90
-16.44
-18.62
-20.50
-22.12
-23.38
-24.05
-23.97
-23.10
-21.61
-19.77
-17.87
-16.08
-14.47
-13.03
-11.74
-10.67
-9.91
-9.57
-9.76
-10.50
-11.79
-13.55
-15.61
-17.68
-19.35
-20.11
-19.52
-17.30
-13.51
-8.51
-2.91
2.67
7.76
12.14
15.83
18.98
21.59
23.49
24.37
23.95
22.16
19.26
15.75
12.18
8.98
6.37
4.44
3.18
2.61
2.81
3.81
5.56
7.94
10.69
13.48
15.96
17.84
18.94
19.30
19.23
19.19
19.63
20.72
22.21
23.49
23.86
22.82
20.40
17.14
14.02
12.08
12.04
14.12
17.88
22.43
26.69
29.83
31.59
32.32
32.84
33.92
35.78
37.90
39.22
38.64
35.66
30.78
25.37
21.35
20.75
25.12
35.06
49.60
65.80
78.87
83.12
73.77
48.93
10.76
-34.77
-79.78
-117.00
-141.88
-153.40
-153.49
-145.61
-133.35
-119.74
-107.06
-96.97
-90.56
-88.07
-88.72
-90.65
-91.36
-88.34
-79.82
-65.34
-45.87
-23.60
-1.19
18.98
35.53
48.39
58.48
67.12
75.18
82.64
88.53
91.36
89.85
83.53
73.08
60.19
47.11
36.03
28.42
24.75
24.58
26.72
29.80
32.54
34.08
34.04
32.50
29.89
26.81
23.88
21.55
19.98
19.03
18.27
17.08
14.85
11.13
5.78
-0.92
-8.35
-15.71
-22.35
-27.94
-32.56
-36.47
-39.85
-42.65
-44.54
-45.25
-44.75
-43.39
-41.78
-40.52
-39.92
-39.96
-40.43
-41.08
-41.78
-42.54
-43.41
-44.30
-44.97
-45.04
-44.09
-41.79
-37.97
-32.70
-26.26
-19.16
-11.97
-5.26
0.57
5.35
9.11
11.99
14.16
15.77
16.97
17.89
18.69
19.48
20.26
20.90
21.26
21.26
21.04
20.90
21.09
21.64
22.21
22.24
21.26
19.22
16.61
14.22
12.72
12.28
12.41
12.21
10.92
8.28
4.84
1.66
-0.14
0.14
2.37
5.69
8.84
10.66
10.51
8.40
4.92
0.84
-3.21
-6.95
-10.50
-14.11
-17.96
-21.96
-25.82
-29.08
-31.34
-32.29
-31.79
-29.80
-26.44
-21.99
-16.89
-11.71
-6.92
-2.81
0.68
3.81
6.93
10.23
13.70
17.08
20.05
22.33
23.82
24.57
24.81
24.84
24.99
25.51
26.46
27.70
28.93
29.78
30.02
29.69
29.09
28.57
28.31
28.13
27.50
25.79
22.62
17.98
12.35
6.44
0.98
-3.52
-6.80
-8.75
-9.34
-8.52
-6.32
-2.86
1.48
6.19
10.64
14.23
16.47
17.05
15.89
13.13
9.09
4.19
-1.14
-6.55
-11.81
-16.74
-21.21
-25.00
-27.88
-29.60
-30.04
-29.16
-27.06
-23.89
-19.89
-15.38
-10.76
-6.50
-3.01
-0.50
1.16
2.28
3.23
4.17
4.94
5.23
4.79
3.65
2.17
0.83
-0.05
-0.51
-0.93
-1.75
-3.24
-5.29
-7.52
-9.48
-10.95
-12.00
-12.94
-14.09
-15.62
-17.49
-19.52
-21.57
-23.64
-25.86
-28.34
-31.03
-33.54
-35.26
-35.48
-33.70
-29.75
-23.87
-16.60
-8.61
-0.55
7.01
13.65
19.06
23.08
25.72
27.16
27.65
27.41
26.56
25.09
22.97
20.23
17.09
13.87
10.94
8.59
6.98
6.12
5.89
6.10
6.48
6.70
6.48
5.56
3.83
1.37
-1.56
-4.61
-7.47
-9.90
-11.91
-13.63
-15.23
-16.77
-18.13
-18.96
-18.84
-17.45
-14.63
-10.53
-5.46
0.16
5.92
11.42
16.35
20.49
23.72
26.05
27.53
28.19
27.95
26.59
23.91
19.89
14.84
9.47
4.68
1.40
0.25
1.39
4.45
8.74
13.43
17.79
21.36
23.97
25.67
26.55
26.72
26.25
25.23
23.78
22.06
20.18
18.24
16.28
14.35
12.62
11.24
10.36
9.93
9.83
9.83
9.76
9.60
9.39
9.23
9.17
9.10
8.91
8.44
7.62
6.45
4.99
3.37
1.67
-0.01
-1.68
-3.39
-5.24
-7.34
-9.68
-12.18
-14.71
-17.15
-19.49
-21.81
-24.29
-27.13
-30.45
-34.29
-38.47
-42.61
-46.08
-48.10
-47.87
-44.82
-38.86
-30.47
-20.59
-10.38
-0.91
7.10
13.39
18.05
21.37
23.70
25.28
26.22
26.56
26.26
25.37
24.06
22.68
21.68
21.58
22.72
25.23
28.98
33.71
39.07
44.75
50.52
56.21
61.68
66.99
72.34
77.94
83.68
88.71
91.42
89.85
82.44
68.79
49.94
28.08
5.75
-15.02
-33.20
-48.74
-62.13
-73.99
-84.84
-95.06
-104.98
-114.94
-125.03
-134.86
-143.28
-148.53
-148.61
-142.06
-128.62
-109.67
-87.97
-66.84
-49.02
-35.77
-26.61
-19.78
-13.23
-5.50
3.82
14.30
25.12
35.58
45.30
54.11
61.81
68.09
72.62
75.22
75.90
74.84
72.19
68.00
62.36
55.53
48.14
41.07
35.29
31.45
29.68
29.53
30.16
30.71
30.68
30.18
29.94
31.05
34.51
40.77
49.36
59.03
68.12
75.17
79.46
81.19
81.46
82.02
84.92
91.82
103.23
117.72
131.63
139.70
136.53
118.52
85.39
40.47
-10.26
-60.12
-103.63
-137.63
-161.36
-175.74
-182.44
-183.30
-180.08
-174.48
-168.04
-161.95
-156.75
-152.16
-147.22
-140.58
-131.11
-118.32
-102.62
-85.13
-67.35
-50.56
-35.45
-21.93
-9.44
2.66
14.60
26.02
36.10
43.99
49.13
51.54
51.71
50.41
48.47
46.56
45.10
44.17
43.53
42.69
41.14
38.59
35.15
31.42
28.14
25.96
25.02
24.97
25.11
24.74
23.52
21.58
19.44
17.83
17.44
18.67
21.52
25.38
29.13
31.34
30.66
26.35
18.55
8.30
-2.82
-13.16
-21.47
-27.11
-29.94
-30.18
-28.24
-24.70
-20.31
-15.96
-12.45
-10.25
-9.30
-9.10
-9.01
-8.54
-7.59
-6.36
-5.17
-4.16
-3.25
-2.20
-0.85
0.85
2.87
5.14
7.71
10.65
13.92
17.27
20.28
22.47
23.60
23.72
23.23
22.67
22.52
23.13
24.66
27.14
30.42
34.21
37.99
41.10
42.92
43.09
41.59
38.75
35.06
30.91
26.46
21.66
16.45
10.93
5.43
0.39
-3.86
-7.28
-10.17
-12.96
-16.06
-19.60
-23.45
-27.33
-30.97
-34.16
-36.81
-38.97
-40.74
-42.33
-44.11
-46.51
-50.00
-54.85
-60.91
-67.54
-73.63
-77.90
-79.27
-77.21
-71.86
-64.04
-54.92
-45.65
-37.15
-29.96
-24.32
-20.27
-17.72
-16.52
-16.44
-17.29
-18.91
-21.39
-25.04
-30.18
-36.83
-44.23
-50.76
-54.33
-53.11
-46.42
-35.18
-21.67
-8.72
1.39
7.72
10.73
11.68
11.83
11.77
11.33
10.04
7.65
4.43
1.12
-1.52
-3.05
-3.49
-3.12
-2.14
-0.44
2.44
6.96
13.29
20.99
29.06
36.28
41.51
44.09
43.90
41.24
36.69
30.87
24.30
17.34
10.15
2.74
-4.89
-12.66
-20.28
-27.36
-33.50
-38.47
-42.30
-45.18
-47.19
-48.23
-48.00
-46.33
-43.46
-40.22
-37.80
-37.35
-39.50
-44.14
-50.37
-56.64
-60.85
-60.71
-54.20
-40.28
-19.57
5.46
30.95
52.83
68.08
75.75
76.97
74.26
70.31
67.18
65.78
66.13
67.83
70.48
73.82
77.57
81.18
83.74
84.23
81.91
76.76
69.63
61.95
55.17
50.11
46.65
43.85
40.50
35.72
29.39
22.20
15.26
9.57
5.54
2.91
0.90
-1.31
-4.18
-7.60
-10.99
-13.69
-15.27
-15.77
-15.61
-15.38
-15.59
-16.51
-18.13
-20.21
-22.41
-24.37
-25.76
-26.34
-25.98
-24.68
-22.52
-19.64
-16.25
-12.62
-8.96
-5.48
-2.28
0.58
3.12
5.36
7.32
9.10
10.79
12.43
13.92
15.01
15.42
15.01
14.04
13.14
13.08
14.44
17.26
20.97
24.60
27.20
28.24
27.82
26.70
26.02
26.97
30.37
36.44
44.57
53.60
62.11
69.08
74.24
78.16
82.16
87.69
95.78
106.35
117.76
126.84
129.36
121.22
99.84
65.42
21.30
-26.67
-71.85
-108.66
-134.11
-148.14
-153.06
-152.33
-149.28
-146.27
-144.41
-143.73
-143.43
-142.29
-139.04
-132.64
-122.57
-109.05
-93.15
-76.51
-61.02
-48.26
-38.87
-32.13
-26.04
-17.96
-5.66
11.64
32.74
54.80
74.38
88.69
96.58
98.66
96.74
92.79
88.11
83.02
77.11
69.94
61.53
52.60
44.16
37.02
31.26
26.16
20.48
12.94
2.73
-10.22
-25.30
-41.46
-57.42
-71.93
-83.85
-92.28
-96.72
-97.17
-94.12
-88.47
-81.26
-73.38
-65.42
-57.55
-49.63
-41.37
-32.53
-23.17
-13.69
-4.79
2.83
8.78
13.21
16.87
20.90
26.35
33.68
42.51
51.83
60.43
67.39
72.29
75.25
76.67
76.91
76.04
73.90
70.26
65.08
58.53
50.76
41.81
31.68
20.47
8.43
-3.98
-16.10
-27.06
-35.95
-42.45
-46.52
-48.08
-46.92
-42.92
-36.19
-26.89
-14.81
0.71
19.46
40.74
63.45
86.20
107.00
123.33
132.69
133.47
125.29
107.36
80.06
45.91
10.27
-20.28
-40.10
-46.52
-40.64
-27.28
-15.83
-15.67
-32.72
-66.37
-111.19
-159.74
-205.65
-244.77
-261.85
-246.37
-198.89
-132.90
-64.28
-3.25
46.82
85.77
114.65
134.94
146.30
148.91
142.57
130.35
115.62
100.88
86.45
71.70
55.82
36.68
19.09
4.67
-5.33
-10.03
-8.79
-2.47
7.71
20.79
35.18
49.84
63.91
77.28
87.28
96.63
106.85
118.66
132.23
146.96
162.18
176.96
189.06
197.28
201.94
203.45
202.40
198.79
191.53
178.33
161.76
139.47
110.08
74.74
36.33
-1.38
-35.42
-64.28
-87.53
-105.48
-124.15
-147.99
-177.63
-210.38
-242.29
-270.71
-295.23
-316.96
-337.51
-365.11
-405.45
-459.05
-521.57
-586.90
-650.80
-712.13
-771.94
-791.15
-747.00
-639.96
-494.51
-342.22
-204.91
-91.39
-1.94
66.84
119.17
152.20
163.79
155.54
134.25
110.16
93.78
93.24
112.45
149.88
193.81
230.91
251.81
254.67
244.11
227.36
210.66
197.27
187.41
176.59
161.25
141.10
119.15
99.33
83.93
72.83
64.47
56.99
48.00
36.77
24.54
13.78
6.88
4.78
6.90
11.43
17.00
22.04
25.83
28.52
30.79
33.17
35.65
37.61
38.29
37.16
34.05
29.31
23.57
17.53
11.63
5.99
0.41
-5.25
-11.16
-17.41
-23.99
-30.79
-37.72
-44.75
-51.95
-59.40
-66.92
-74.35
-81.61
-88.68
-95.59
-102.41
-109.21
-115.98
-122.67
-128.77
-133.82
-137.52
-139.70
-140.28
-139.11
-135.76
-129.29
-121.03
-111.09
-99.40
-86.01
-71.29
-55.83
-40.34
-25.39
-11.16
2.54
16.55
31.60
48.03
65.64
83.82
101.79
118.94
135.04
150.29
165.51
181.66
199.78
220.81
245.13
272.00
299.10
322.68
338.50
343.41
336.41
319.07
294.90
267.89
241.11
216.03
192.69
170.53
149.27
129.10
110.40
93.32
77.60
62.68
48.15
34.04
20.83
9.31
0.04
-6.87
-11.90
-15.87
-19.58
-23.46
-27.46
-31.14
-33.90
-35.31
-35.27
-34.10
-32.39
-30.84
-30.07
-30.46
-32.06
-34.65
-37.83
-41.26
-44.74
-48.24
-51.77
-55.22
-58.28
-60.41
-61.03
-59.72
-56.36
-51.16
-44.59
-37.27
-29.86
-22.96
-17.07
-12.56
-9.58
-8.04
-7.63
-7.90
-8.44
-8.97
-9.35
-9.56
-9.52
-9.12
-8.26
-6.95
-5.41
-4.02
-3.15
-2.97
-3.32
-3.83
-4.10
-3.95
-3.50
-3.11
-3.15
-3.88
-5.26
-7.06
-8.94
-10.61
-11.92
-12.87
-13.55
-14.05
-14.35
-14.29
-13.70
-12.48
-10.75
-8.91
-7.48
-6.92
-7.38
-8.65
-10.25
-11.65
-12.54
-12.95
-13.16
-13.54
-14.34
-15.56
-17.07
-18.72
-20.44
-22.25
-24.13
-25.89
-27.11
-27.31
-26.15
-23.62
-20.05
-15.88
-11.43
-6.75
-1.64
4.08
10.27
16.46
21.90
25.94
28.26
28.99
28.51
27.29
25.66
23.79
21.83
20.00
18.53
17.61
17.24
17.19
17.08
16.61
15.64
14.26
12.77
11.47
10.61
10.27
10.33
10.53
10.59
10.27
9.49
8.38
7.18
6.14
5.36
4.75
4.08
3.13
1.78
0.06
-1.91
-4.02
-6.26
-8.80
-11.88
-15.71
-20.37
-25.68
-31.20
-36.23
-39.95
-41.69
-41.04
-38.08
-33.23
-27.11
-20.30
-13.15
-5.81
1.69
9.20
16.42
22.86
28.00
31.48
33.22
33.46
32.74
31.74
31.16
31.52
33.07
35.66
38.91
42.33
45.59
48.73
52.15
56.33
61.55
67.51
73.42
78.23
81.16
82.10
81.75
81.46
82.82
87.14
94.90
105.24
115.75
122.53
121.03
107.11
78.62
36.45
-15.18
-69.62
-119.70
-159.66
-186.59
-200.56
-203.82
-199.37
-189.78
-176.70
-161.05
-143.56
-125.11
-106.73
-89.22
-72.83
-57.23
-42.03
-27.27
-13.80
-3.00
3.77
5.81
3.64
-1.07
-5.98
-8.84
-8.19
-3.73
3.71
12.57
21.19
28.35
33.61
37.27
40.13
42.99
46.31
49.92
53.07
54.69
53.74
49.53
41.88
31.24
18.49
4.88
-8.20
-19.42
-27.66
-32.27
-33.18
-30.88
-26.27
-20.47
-14.49
-9.12
-4.85
-1.88
-0.22
0.25
-0.25
-1.43
-3.01
-4.70
-6.21
-7.29
-7.73
-7.47
-6.61
-5.45
-4.36
-3.66
-3.47
-3.73
-4.30
-5.11
-6.21
-7.72
-9.68
-11.92
-14.12
-15.89
-17.03
-17.59
-17.91
-18.45
-19.61
-21.65
-24.52
-27.99
-31.60
-34.78
-36.91
-37.46
-36.14
-32.96
-28.27
-22.67
-16.84
-11.42
-6.88
-3.45
-1.17
0.11
0.58
0.45
-0.17
-1.17
-2.50
-4.03
-5.59
-6.94
-7.91
-8.41
-8.45
-8.14
-7.54
-6.66
-5.50
-4.06
-2.46
-0.94
0.22
0.81
0.76
0.18
-0.71
-1.72
-2.74
-3.74
-4.74
-5.77
-6.83
-7.89
-8.91
-9.90
-10.87
-11.90
-13.12
-14.69
-16.75
-19.27
-22.01
-24.43
-25.81
-25.50
-23.08
-18.59
-12.42
-5.22
2.28
9.48
15.94
21.38
25.68
28.82
30.85
31.87
32.03
31.43
30.16
28.23
25.64
22.44
18.83
15.15
11.86
9.35
7.74
6.82
6.09
4.98
3.05
0.13
-3.65
-8.02
-12.69
-17.44
-22.15
-26.75
-31.20
-35.52
-39.79
-44.18
-48.91
-54.17
-60.08
-66.60
-73.59
-80.84
-88.18
-95.57
-103.16
-111.21
-119.90
-129.20
-138.79
-148.18
-157.01
-165.17
-172.75
-179.57
-184.70
-186.24
-181.68
-168.77
-146.48
-115.48
-77.81
-35.95
8.05
52.86
97.31
139.64
176.98
205.86
223.38
228.45
222.32
207.95
188.79
167.50
145.50
123.38
101.65
81.36
63.97
50.71
41.86
36.51
32.96
29.54
25.30
20.26
15.16
10.89
7.96
6.33
5.56
5.10
4.62
4.01
3.33
2.71
2.14
1.48
0.53
-0.99
-3.36
-6.76
-11.18
-16.32
-21.55
-26.04
-28.93
-29.57
-27.73
-23.60
-17.68
-10.60
-2.96
4.83
12.49
19.83
26.67
32.77
37.92
42.00
45.05
47.30
49.07
50.65
52.19
53.61
54.78
55.56
55.90
55.88
55.58
55.04
54.28
53.25
51.99
50.58
49.13
47.72
46.35
44.92
43.34
41.49
39.31
36.80
33.94
30.74
27.24
23.46
19.39
14.92
9.82
3.87
-3.01
-10.56
-18.10
-24.58
-28.92
-30.34
-28.64
-24.22
-17.96
-10.87
-3.82
2.61
8.08
12.38
15.35
16.88
16.93
15.65
13.22
9.84
5.57
0.40
-5.61
-12.09
-18.35
-23.45
-26.56
-27.30
-25.85
-22.88
-19.25
-15.65
-12.43
-9.54
-6.74
-3.87
-0.96
1.70
3.75
4.90
5.14
4.67
3.84
2.95
2.05
0.99
-0.49
-2.53
-5.09
-7.97
-10.88
-13.62
-16.13
-18.37
-20.21
-21.36
-21.44
-20.10
-17.30
-13.26
-8.54
-3.82
0.25
3.19
4.74
4.90
3.85
1.97
-0.32
-2.60
-4.60
-6.31
-7.87
-9.49
-11.29
-13.21
-15.06
-16.58
-17.66
-18.33
-18.85
-19.60
-20.94
-23.06
-25.92
-29.19
-32.33
-34.78
-36.07
-35.98
-34.60
-32.25
-29.49
-26.99
-25.56
-25.85
-28.08
-31.68
-35.32
-37.18
-35.69
-30.17
-21.02
-9.40
3.39
16.54
29.80
43.17
56.38
68.65
78.81
85.76
88.88
88.27
84.49
78.37
70.73
62.33
53.93
46.21
39.69
34.60
30.80
27.82
25.04
21.88
17.91
12.98
7.27
1.36
-3.80
-7.15
-7.78
-5.39
-0.39
6.13
12.80
18.42
22.31
24.36
24.91
24.39
23.19
21.55
19.63
17.64
15.83
14.38
13.25
12.09
10.32
7.35
2.89
-2.81
-8.96
-14.41
-18.00
-18.98
-17.24
-13.35
-8.45
-3.87
-0.73
0.40
-0.33
-2.19
-4.12
-5.21
-5.05
-3.81
-2.14
-0.77
-0.17
-0.41
-1.09
-1.67
-1.64
-0.78
0.86
3.11
5.82
9.01
12.81
17.40
22.74
28.53
34.26
39.36
43.49
46.62
49.05
51.33
54.08
57.83
62.81
68.76
74.80
79.47
80.95
77.41
67.55
51.04
28.81
2.99
-23.47
-47.43
-66.32
-78.67
-84.30
-84.15
-79.69
-72.36
-63.14
-52.51
-40.72
-28.04
-14.99
-2.25
9.44
19.60
28.03
34.85
40.47
45.46
50.48
56.14
62.82
70.47
78.59
86.36
93.00
98.03
101.48
103.73
105.33
106.74
108.26
110.07
112.34
115.24
118.85
123.14
127.89
132.92
138.24
144.18
151.09
158.95
166.97
173.60
177.05
176.04
170.49
161.63
151.38
141.34
131.94
122.04
109.48
92.11
68.89
40.28
8.03
-25.88
-60.20
-94.94
-130.87
-168.61
-207.52
-245.41
-278.94
-304.77
-320.52
-325.29
-319.52
-304.73
-283.28
-258.35
-233.97
-214.54
-203.80
-203.56
-213.02
-228.96
-247.08
-263.43
-275.60
-282.85
-285.44
-283.86
-278.45
-269.40
-257.07
-242.04
-224.91
-205.79
-184.03
-158.64
-128.97
-95.67
-61.07
-28.61
-1.65
17.83
29.78
35.86
38.51
39.87
41.31
43.48
46.75
51.29
57.03
63.41
69.30
73.53
75.49
75.79
75.99
77.79
81.95
87.68
92.74
94.50
91.08
82.18
69.06
53.95
39.20
26.52
16.73
9.83
5.37
2.67
1.02
-0.29
-1.98
-4.60
-8.33
-12.83
-17.26
-20.52
-21.63
-20.19
-16.67
-12.30
-8.75
-7.50
-9.26
-13.73
-19.79
-26.04
-31.33
-35.00
-36.90
-37.16
-36.16
-34.47
-32.95
-32.63
-34.28
-37.98
-42.86
-47.47
-50.54
-51.69
-51.82
-52.65
-55.94
-62.58
-72.18
-83.21
-93.61
-101.50
-105.74
-106.23
-103.99
-100.77
-98.74
-99.84
-105.40
-115.95
-131.31
-150.94
-174.03
-199.40
-225.00
-247.72
-263.66
-268.98
-261.20
-240.05
-207.57
-167.22
-122.76
-77.56
-34.44
4.14
36.03
60.01
76.55
88.28
99.44
114.35
135.64
162.99
193.37
222.43
246.21
262.58
271.44
274.10
272.20
266.95
258.89
248.15
235.02
220.19
204.81
190.11
176.88
165.09
154.02
142.72
130.63
118.00
105.89
95.70
88.54
84.74
83.79
84.72
86.66
89.19
92.34
96.14
100.20
103.41
104.20
101.11
93.32
81.09
65.54
48.33
31.06
15.03
1.10
-10.20
-18.64
-24.22
-27.26
-28.43
-28.56
-28.30
-27.80
-26.63
-24.05
-19.42
-12.83
-5.20
1.86
6.74
8.42
6.93
3.17
-1.54
-6.08
-9.92
-13.09
-15.91
-18.55
-20.90
-22.57
-23.15
-22.49
-20.75
-18.38
-15.82
-13.36
-10.94
-8.23
-4.84
-0.56
4.47
9.75
14.63
18.60
21.45
23.31
24.50
25.22
25.46
25.02
23.68
21.41
18.43
15.15
11.99
9.21
6.92
5.04
3.48
2.14
0.95
-0.18
-1.33
-2.60
-4.01
-5.48
-6.86
-7.97
-8.71
-9.12
-9.38
-9.77
-10.52
-11.78
-13.51
-15.59
-17.80
-19.91
-21.66
-22.77
-22.92
-21.83
-19.35
-15.53
-10.67
-5.32
-0.07
4.54
8.16
10.73
12.36
13.27
13.65
13.58
13.03
11.94
10.30
8.22
5.94
3.77
1.96
0.64
-0.21
-0.75
-1.11
-1.40
-1.61
-1.69
-1.59
-1.34
-1.08
-1.05
-1.48
-2.50
-4.10
-6.11
-8.28
-10.37
-12.26
-13.99
-15.74
-17.69
-20.00
-22.71
-25.77
-29.05
-32.41
-35.69
-38.70
-41.22
-42.93
-43.48
-42.55
-40.01
-36.01
-30.98
-25.59
-20.54
-16.44
-13.75
-12.69
-13.23
-14.96
-17.02
-18.10
-16.74
-11.81
-3.02
8.84
22.09
34.73
45.23
52.94
58.15
61.77
64.75
67.74
70.97
74.35
77.64
80.56
82.82
84.07
83.94
82.16
78.62
73.52
67.30
60.57
53.94
47.87
42.61
38.06
33.86
29.44
24.20
17.78
10.22
2.15
-5.34
-10.91
-13.46
-12.49
-8.42
-2.38
4.17
10.00
14.54
17.93
20.75
23.51
26.27
28.58
29.77
29.49
27.98
26.16
25.09
25.52
27.38
29.78
31.44
31.37
29.39
26.35
23.87
23.76
27.43
35.37
46.80
59.40
69.49
72.62
64.79
44.02
11.55
-27.86
-67.14
-99.01
-118.30
-123.35
-116.08
-100.59
-81.45
-62.27
-45.18
-31.19
-20.68
-13.80
-10.41
-9.92
-11.19
-12.77
-13.39
-12.42
-10.12
-7.45
-5.69
-5.99
-8.92
-14.21
-20.74
-26.77
-30.48
-30.57
-26.78
-20.08
-12.31
-5.51
-1.13
0.39
-0.47
-2.68
-5.32
-7.81
-10.01
-11.97
-13.70
-15.08
-15.98
-16.37
-16.33
-15.99
-15.35
-14.23
-12.35
-9.58
-6.12
-2.49
0.64
2.78
3.75
3.72
3.00
1.87
0.41
-1.39
-3.54
-5.94
-8.36
-10.55
-12.40
-13.96
-15.40
-16.88
-18.52
-20.39
-22.60
-25.30
-28.67
-32.65
-36.85
-40.52
-42.75
-42.83
-40.52
-36.15
-30.44
-24.19
-18.04
-12.34
-7.23
-2.79
0.85
3.51
5.06
5.48
4.88
3.48
1.47
-0.96
-3.66
-6.44
-9.06
-11.23
-12.65
-13.10
-12.47
-10.84
-8.41
-5.56
-2.70
-0.28
1.39
2.14
1.98
1.08
-0.33
-1.97
-3.58
-4.94
-6.00
-6.81
-7.55
-8.42
-9.59
-11.09
-12.85
-14.77
-16.85
-19.12
-21.63
-24.20
-26.39
-27.55
-27.09
-24.71
-20.54
-15.09
-9.03
-2.98
2.59
7.43
11.37
14.33
16.27
17.19
17.19
16.39
14.97
13.09
10.96
8.76
6.72
5.03
3.82
3.10
2.79
2.72
2.76
2.84
2.95
3.17
3.57
4.14
4.80
5.40
5.74
5.62
4.93
3.67
1.90
-0.17
-2.31
-4.35
-6.17
-7.79
-9.37
-11.02
-12.83
-14.73
-16.62
-18.44
-20.25
-22.20
-24.39
-26.75
-28.91
-30.31
-30.36
-28.66
-25.15
-20.13
-14.18
-7.98
-2.11
2.99
7.18
10.53
13.21
15.42
17.22
18.54
19.23
19.12
18.15
16.41
14.13
11.67
9.38
7.64
6.67
6.52
7.08
8.09
9.27
10.38
11.26
11.82
12.05
11.94
11.55
10.96
10.28
9.56
8.82
7.96
6.86
5.42
3.61
1.51
-0.77
-3.08
-5.31
-7.36
-9.25
-11.08
-12.98
-15.15
-17.72
-20.69
-23.87
-26.81
-28.92
-29.56
-28.27
-24.88
-19.66
-13.21
-6.36
0.09
5.54
9.71
12.62
14.46
15.46
15.79
15.56
14.83
13.64
12.07
10.24
8.36
6.62
5.24
4.31
3.85
3.78
3.97
4.32
4.82
5.51
6.43
7.50
8.46
8.91
8.43
6.79
4.06
0.71
-2.65
-5.42
-7.31
-8.56
-9.79
-11.85
-15.38
-20.47
-26.53
-32.44
-37.09
-39.92
-41.29
-42.50
-45.19
-50.55
-58.60
-67.91
-76.09
-80.73
-80.41
-75.40
-67.45
-59.19
-53.10
-50.78
-52.57
-57.45
-62.95
-65.18
-59.34
-41.05
-8.33
36.66
87.29
134.28
168.98
186.72
188.25
178.74
164.84
151.52
140.56
131.02
121.20
110.41
99.51
90.11
83.21
78.39
73.97
68.20
60.27
50.89
41.91
35.36
32.22
31.85
32.03
29.81
22.76
10.02
-7.27
-26.47
-44.44
-58.77
-68.47
-74.01
-76.70
-77.83
-78.09
-77.42
-75.33
-71.43
-65.67
-58.52
-50.72
-43.07
-36.22
-30.59
-26.36
-23.48
-21.79
-21.07
-21.12
-21.82
-23.10
-24.88
-26.93
-28.90
-30.32
-30.75
-29.93
-27.86
-24.77
-21.02
-17.01
-13.15
-9.78
-7.17
-5.46
-4.57
-4.12
-3.54
-2.17
0.50
4.63
9.89
15.61
21.05
25.64
29.29
32.32
35.18
38.06
40.67
42.26
42.09
39.92
36.35
32.73
30.59
30.94
33.81
38.23
42.82
46.44
48.75
50.41
52.70
57.13
64.87
76.38
90.99
106.56
119.23
123.85
115.25
90.19
49.31
-2.09
-55.11
-99.96
-129.18
-139.88
-134.08
-117.12
-95.12
-72.93
-53.30
-37.25
-25.04
-16.85
-12.74
-12.32
-14.36
-17.01
-18.36
-17.24
-13.72
-8.98
-4.80
-2.71
-3.36
-6.32
-10.27
-13.67
-15.34
-14.91
-12.81
-10.00
-7.51
-5.98
-5.54
-5.81
-6.25
-6.41
-6.24
-6.04
-6.29
-7.32
-9.02
-10.79
-11.73
-10.99
-8.12
-3.30
2.79
9.25
15.23
20.28
24.32
27.52
30.14
32.29
33.95
34.97
35.18
34.52
33.07
31.03
28.68
26.30
24.11
22.25
20.79
19.72
18.98
18.50
18.14
17.73
17.11
16.19
15.01
13.74
12.54
11.48
10.45
9.17
7.34
4.79
1.59
-2.01
-5.68
-9.17
-12.34
-15.25
-18.01
-20.76
-23.53
-26.24
-28.73
-30.80
-32.28
-33.11
-33.33
-33.09
-32.61
-32.08
-31.56
-30.93
-29.89
-28.06
-25.11
-20.88
-15.50
-9.31
-2.80
3.54
9.33
14.31
18.36
21.37
23.30
24.11
23.87
22.72
20.85
18.49
15.79
12.91
9.92
6.92
4.04
1.41
-0.88
-2.78
-4.38
-5.85
-7.37
-9.08
-11.00
-12.98
-14.76
-16.09
-16.80
-16.90
-16.49
-15.82
-15.15
-14.66
-14.49
-14.66
-15.13
-15.78
-16.56
-17.44
-18.44
-19.65
-21.06
-22.57
-23.93
-24.77
-24.74
-23.50
-20.90
-16.92
-11.78
-5.83
0.37
6.23
11.18
14.83
17.08
18.08
18.11
17.49
16.41
14.91
13.00
10.69
8.14
5.58
3.28
1.45
0.22
-0.39
-0.42
0.04
0.85
1.82
2.73
3.36
3.60
3.39
2.82
2.00
1.04
0.00
-1.12
-2.37
-3.82
-5.50
-7.43
-9.60
-11.95
-14.45
-17.04
-19.67
-22.29
-24.94
-27.66
-30.46
-33.20
-35.59
-37.15
-37.37
-35.91
-32.73
-28.18
-22.82
-17.28
-12.03
-7.27
-3.07
0.56
3.51
5.62
6.70
6.73
5.87
4.46
2.91
1.60
0.84
0.84
1.69
3.35
5.64
8.31
11.09
13.87
16.67
19.53
22.29
24.48
25.29
23.95
20.09
14.07
6.99
0.26
-4.92
-8.16
-9.90
-11.21
-13.22
-16.64
-21.56
-27.52
-33.74
-39.18
-42.65
-42.87
-38.95
-30.89
-20.00
-8.73
0.08
4.37
3.68
-0.64
-6.12
-10.28
-11.50
-9.25
-3.84
4.14
14.13
25.54
37.58
49.08
58.63
65.00
67.46
66.01
61.34
54.60
47.06
39.83
33.61
28.67
24.83
21.73
19.07
16.77
15.01
14.04
13.95
14.51
15.21
15.46
14.88
13.46
11.53
9.63
8.33
8.03
9.03
11.35
14.79
18.81
22.55
25.03
25.47
23.57
19.64
14.45
8.91
3.68
-0.98
-5.17
-9.13
-13.01
-16.81
-20.44
-23.93
-27.54
-31.70
-36.85
-43.19
-50.47
-57.95
-64.50
-68.80
-69.63
-66.20
-58.41
-46.89
-32.99
-18.45
-5.02
5.89
13.52
17.81
19.28
18.78
17.18
15.17
13.13
11.23
9.55
8.16
7.17
6.67
6.63
6.88
7.19
7.40
7.60
8.14
9.42
11.60
14.39
16.96
18.22
17.29
13.96
8.97
3.87
0.48
0.22
3.52
9.60
16.82
23.27
27.53
29.06
28.30
26.38
24.62
24.17
25.68
29.10
33.48
36.84
36.51
29.77
14.90
-7.87
-36.06
-65.44
-91.23
-109.62
-118.65
-118.47
-110.76
-97.98
-82.58
-66.67
-51.95
-39.67
-30.62
-24.99
-22.30
-21.54
-21.41
-20.77
-18.85
-15.54
-11.25
-6.81
-3.10
-0.71
0.28
0.37
0.45
1.38
3.69
7.30
11.67
16.07
19.92
22.99
25.46
27.60
29.58
31.34
32.58
33.05
32.65
31.50
29.92
28.18
26.45
24.71
22.85
20.76
18.40
15.83
13.16
10.49
7.84
5.21
2.53
-0.21
-3.06
-6.03
-9.13
-12.35
-15.58
-18.52
-20.70
-21.58
-20.73
-18.03
-13.77
-8.58
-3.22
1.66
5.69
8.78
11.04
12.56
13.37
13.43
12.75
11.51
10.07
8.86
8.21
8.23
8.79
9.68
10.70
11.81
13.12
14.80
16.95
19.54
22.37
25.11
27.37
28.87
29.44
29.09
27.95
26.16
23.84
21.02
17.72
14.04
10.23
6.59
3.41
0.81
-1.30
-3.18
-5.07
-7.07
-9.11
-10.97
-12.48
-13.63
-14.57
-15.57
-16.85
-18.54
-20.56
-22.72
-24.73
-26.27
-27.07
-26.81
-25.27
-22.31
-18.02
-12.70
-6.88
-1.18
3.85
7.82
10.63
12.34
13.20
13.52
13.56
13.52
13.49
13.45
13.30
12.91
12.23
11.32
10.42
9.78
9.68
10.24
11.44
13.06
14.78
16.16
16.75
16.13
14.03
10.50
5.90
0.82
-4.06
-8.28
-11.64
-14.24
-16.37
-18.31
-20.24
-22.18
-24.05
-25.71
-27.11
-28.28
-29.29
-30.25
-31.20
-32.16
-33.11
-33.99
-34.78
-35.42
-35.78
-35.60
-34.57
-32.39
-28.92
-24.27
-18.85
-13.20
-7.83
-3.12
0.77
3.83
6.15
7.82
8.93
9.59
9.95
10.18
10.42
10.76
11.22
11.72
12.17
12.54
12.83
13.13
13.55
14.13
14.84
15.54
16.03
16.16
15.89
15.27
14.42
13.44
12.33
11.02
9.43
7.52
5.37
3.13
1.01
-0.86
-2.44
-3.79
-5.04
-6.34
-7.87
-9.75
-12.08
-14.83
-17.74
-20.36
-22.08
-22.32
-20.76
-17.49
-13.03
-8.16
-3.71
-0.30
1.86
2.92
3.32
3.53
3.91
4.53
5.25
5.82
6.06
5.97
5.69
5.45
5.49
5.93
6.82
8.17
9.99
12.30
15.05
18.09
21.11
23.74
25.60
26.48
26.33
25.34
23.76
21.89
19.88
17.78
15.53
13.05
10.34
7.47
4.57
1.76
-0.89
-3.38
-5.75
-8.04
-10.23
-12.31
-14.32
-16.36
-18.56
-21.03
-23.77
-26.58
-29.05
-30.69
-31.01
-29.69
-26.66
-22.12
-16.53
-10.46
-4.49
0.93
5.52
9.16
11.87
13.67
14.66
14.94
14.63
13.92
13.00
12.02
11.13
10.43
9.99
9.85
10.02
10.44
11.05
11.81
12.71
13.78
15.05
16.54
18.20
19.93
21.61
23.11
24.31
25.06
25.23
24.73
23.57
21.88
19.92
17.95
16.21
14.84
13.86
13.17
12.63
12.10
11.44
10.59
9.53
8.31
7.04
5.79
4.63
3.54
2.46
1.29
-0.02
-1.54
-3.25
-5.11
-6.95
-8.55
-9.58
-9.72
-8.72
-6.53
-3.30
0.61
4.78
8.77
12.27
15.06
17.06
18.25
18.70
18.52
17.83
16.76
15.38
13.73
11.87
9.88
7.89
6.11
4.74
3.93
3.73
4.07
4.80
5.74
6.67
7.40
7.81
7.81
7.36
6.49
5.23
3.73
2.11
0.57
-0.80
-2.03
-3.25
-4.67
-6.41
-8.45
-10.61
-12.61
-14.25
-15.49
-16.44
-17.29
-18.17
-19.10
-20.02
-20.84
-21.53
-22.12
-22.75
-23.54
-24.59
-25.85
-27.14
-28.11
-28.34
-27.43
-25.15
-21.53
-16.82
-11.48
-6.00
-0.82
3.71
7.35
9.97
11.55
12.13
11.92
11.17
10.15
9.09
8.11
7.23
6.45
5.78
5.32
5.20
5.53
6.33
7.48
8.74
9.85
10.59
10.88
10.71
10.21
9.47
8.59
7.61
6.53
5.35
4.06
2.66
1.14
-0.53
-2.33
-4.23
-6.17
-8.10
-10.00
-11.89
-13.81
-15.74
-17.65
-19.41
-20.94
-22.20
-23.28
-24.33
-25.52
-26.99
-28.75
-30.67
-32.46
-33.75
-34.13
-33.27
-31.03
-27.50
-23.01
-18.04
-13.04
-8.41
-4.39
-1.08
1.49
3.39
4.66
5.39
5.69
5.71
5.58
5.39
5.17
4.88
4.46
3.95
3.47
3.25
3.50
4.34
5.70
7.35
8.97
10.28
11.12
11.47
11.46
11.29
11.15
11.09
11.03
10.77
10.05
8.74
6.90
4.81
2.87
1.43
0.62
0.30
0.14
-0.24
-1.05
-2.31
-3.77
-5.15
-6.23
-6.95
-7.46
-8.01
-8.90
-10.44
-12.91
-16.46
-21.00
-26.05
-30.83
-34.49
-36.41
-36.51
-35.21
-33.21
-31.07
-28.96
-26.62
-23.60
-19.64
-14.86
-9.79
-5.19
-1.72
0.35
1.28
1.80
2.84
5.20
9.15
14.41
20.24
25.79
30.48
34.11
36.82
38.83
40.26
41.08
41.30
41.13
41.05
41.75
43.79
47.36
52.14
57.35
62.08
65.70
68.09
69.81
71.84
75.24
80.57
87.38
93.96
97.65
95.49
85.26
66.28
39.90
9.25
-21.48
-48.14
-67.64
-78.53
-81.11
-77.01
-68.43
-57.52
-45.82
-34.18
-23.00
-12.58
-3.45
3.58
7.78
8.74
6.78
2.73
-2.30
-7.34
-11.86
-15.83
-19.56
-23.38
-27.34
-31.14
-34.16
-35.70
-35.28
-32.82
-28.64
-23.34
-17.53
-11.75
-6.53
-2.53
-0.63
-1.74
-6.28
-13.76
-22.68
-30.90
-36.42
-38.06
-35.90
-30.99
-24.80
-18.60
-13.09
-8.42
-4.49
-1.21
1.38
3.12
3.99
4.14
3.91
3.74
3.97
4.70
5.70
6.48
6.50
5.40
3.19
0.32
-2.56
-4.82
-6.14
-6.57
-6.43
-6.12
-5.88
-5.76
-5.65
-5.43
-5.04
-4.56
-4.11
-3.82
-3.76
-3.92
-4.30
-4.90
-5.73
-6.87
-8.37
-10.23
-12.31
-14.31
-15.73
-15.96
-14.39
-10.63
-4.62
3.29
12.38
21.66
30.13
36.96
41.66
44.15
44.64
43.50
41.09
37.68
33.50
28.79
23.82
18.75
13.51
7.81
1.33
-5.92
-13.36
-19.80
-23.81
-24.24
-20.70
-13.68
-4.33
6.04
16.37
26.02
34.61
41.79
46.96
49.34
48.25
43.54
35.80
26.38
16.96
9.06
3.45
0.10
-1.67
-2.74
-3.79
-5.12
-6.75
-8.71
-11.21
-14.61
-19.20
-24.88
-31.06
-36.77
-40.97
-42.91
-42.36
-39.57
-35.14
-29.77
-24.02
-18.26
-12.67
-7.32
-2.36
1.97
5.36
7.47
8.08
7.18
4.96
1.77
-1.96
-5.81
-9.39
-12.36
-14.44
-15.51
-15.57
-14.82
-13.50
-11.83
-9.90
-7.73
-5.29
-2.64
0.08
2.63
4.77
6.37
7.39
7.94
8.14
8.10
7.84
7.30
6.38
4.96
2.97
0.37
-2.75
-6.26
-9.96
-13.67
-17.28
-20.71
-23.96
-27.01
-29.80
-32.30
-34.52
-36.56
-38.53
-40.39
-41.89
-42.54
-41.75
-39.04
-34.29
-27.78
-20.10
-11.93
-3.93
3.43
9.79
14.91
18.56
20.67
21.34
20.82
19.49
17.79
16.07
14.55
13.36
12.55
12.13
12.11
12.45
13.06
13.76
14.32
14.51
14.20
13.40
12.36
11.37
10.70
10.42
10.33
10.05
9.22
7.60
5.23
2.28
-0.97
-4.34
-7.71
-11.01
-14.16
-17.05
-19.60
-21.76
-23.59
-25.20
-26.68
-28.06
-29.33
-30.50
-31.61
-32.81
-34.22
-35.86
-37.59
-38.96
-39.35
-37.97
-34.10
-27.30
-17.57
-5.43
8.14
21.92
34.71
45.57
53.90
59.42
62.10
62.19
60.17
56.74
52.72
48.80
45.26
41.91
38.25
33.81
28.53
22.83
17.52
13.32
10.63
9.36
9.07
9.30
9.71
10.19
10.67
11.07
11.20
10.86
9.93
8.43
6.46
4.09
1.29
-1.99
-5.76
-9.84
-13.92
-17.68
-20.89
-23.56
-25.85
-27.90
-29.73
-31.15
-31.86
-31.60
-30.27
-27.99
-25.01
-21.67
-18.31
-15.18
-12.45
-10.20
-8.54
-7.59
-7.46
-8.21
-9.76
-11.82
-13.93
-15.68
-16.78
-17.21
-17.06
-16.41
-15.15
-13.04
-9.81
-5.40
-0.02
5.88
11.81
17.46
22.72
27.65
32.28
36.56
40.33
43.50
46.10
48.36
50.52
52.65
54.46
55.37
54.67
51.90
47.05
40.65
33.60
26.80
20.85
15.87
11.53
7.28
2.63
-2.54
-8.03
-13.29
-17.80
-21.27
-23.80
-25.94
-28.38
-31.68
-35.94
-40.68
-44.85
-47.07
-45.95
-40.39
-29.92
-15.07
2.34
19.21
31.64
35.94
29.93
13.95
-8.94
-33.78
-55.26
-69.39
-74.46
-71.07
-61.34
-47.81
-32.65
-17.38
-3.05
9.49
19.51
26.59
30.77
32.71
33.39
33.82
34.59
35.74
36.82
37.24
36.58
34.80
32.22
29.29
26.44
23.88
21.60
19.47
17.38
15.26
13.10
10.95
8.83
6.77
4.75
2.74
0.64
-1.60
-4.02
-6.58
-9.15
-11.53
-13.51
-14.91
-15.62
-15.60
-14.89
-13.66
-12.18
-10.83
-10.02
-10.16
-11.51
-14.12
-17.82
-22.18
-26.51
-30.05
-32.00
-31.80
-29.20
-24.36
-17.82
-10.45
-3.33
2.36
5.49
5.21
1.13
-6.46
-16.57
-27.68
-38.10
-46.35
-51.52
-53.38
-52.38
-49.39
-45.39
-41.23
-37.36
-33.81
-30.28
-26.47
-22.21
-17.68
-13.27
-9.46
-6.54
-4.56
-3.38
-2.83
-2.88
-3.52
-4.66
-6.01
-7.03
-7.12
-5.82
-3.01
1.08
5.94
10.94
15.49
19.19
21.82
23.34
23.83
23.43
22.31
20.60
18.46
16.03
13.39
10.60
7.66
4.58
1.44
-1.44
-3.61
-4.46
-3.47
-0.36
4.86
11.74
19.61
27.65
35.12
41.47
46.42
49.95
52.17
53.18
52.92
51.26
48.10
43.58
38.17
32.54
27.33
22.91
19.29
16.25
13.58
11.24
9.40
8.24
7.75
7.61
7.40
6.78
5.72
4.53
3.59
3.13
3.09
3.22
3.22
3.07
2.95
3.14
3.79
4.77
5.75
6.34
6.35
5.81
4.88
3.72
2.34
0.63
-1.53
-4.15
-7.09
-10.08
-12.93
-15.52
-17.92
-20.22
-22.53
-24.88
-27.25
-29.65
-32.12
-34.77
-37.66
-40.79
-43.91
-46.58
-48.17
-47.99
-45.54
-40.61
-33.43
-24.60
-14.95
-5.31
3.60
11.35
17.72
22.61
26.06
28.13
28.99
28.87
28.05
26.82
25.37
23.83
22.23
20.66
19.28
18.32
17.97
18.32
19.25
20.46
21.62
22.46
22.92
23.11
23.12
22.98
22.51
21.45
19.58
16.86
13.57
10.16
7.12
4.81
3.36
2.66
2.42
2.28
1.96
1.26
0.20
-1.08
-2.33
-3.35
-4.08
-4.68
-5.45
-6.76
-8.85
-11.72
-15.14
-18.65
-21.78
-24.18
-25.70
-26.43
-26.66
-26.80
-27.27
-28.42
-30.39
-33.00
-35.75
-37.89
-38.60
-37.26
-33.66
-28.07
-21.14
-13.67
-6.39
0.18
5.79
10.36
13.89
16.41
17.99
18.77
18.89
18.54
17.88
17.07
16.22
15.47
14.98
14.89
15.31
16.27
17.70
19.49
21.48
23.46
25.22
26.53
27.23
27.26
26.66
25.60
24.25
22.75
21.13
19.35
17.35
15.16
12.84
10.51
8.26
6.13
4.10
2.16
0.34
-1.30
-2.73
-3.97
-5.13
-6.32
-7.61
-8.98
-10.37
-11.70
-12.98
-14.30
-15.74
-17.41
-19.31
-21.34
-23.35
-25.10
-26.31
-26.67
-25.79
-23.36
-19.23
-13.49
-6.55
0.95
8.24
14.65
19.71
23.30
25.60
27.01
28.06
29.20
30.63
32.21
33.55
34.17
33.80
32.65
31.38
30.97
32.27
35.61
40.56
46.13
51.10
54.59
56.43
57.28
58.30
60.76
65.49
72.34
80.05
86.37
88.44
83.44
69.35
45.77
14.58
-20.12
-52.73
-77.78
-91.59
-93.44
-85.50
-71.76
-56.26
-41.78
-29.42
-19.12
-10.69
-4.51
-1.50
-2.44
-7.19
-14.38
-21.86
-27.52
-30.08
-29.46
-26.58
-22.78
-19.10
-16.00
-13.32
-10.59
-7.55
-4.30
-1.39
0.53
1.01
0.08
-1.79
-3.89
-5.61
-6.63
-6.96
-6.86
-6.53
-6.07
-5.40
-4.43
-3.14
-1.72
-0.48
0.30
0.42
-0.05
-0.90
-1.80
-2.44
-2.61
-2.31
-1.69
-0.99
-0.44
-0.18
-0.22
-0.50
-1.00
-1.83
-3.24
-5.58
-9.08
-13.77
-19.37
-25.33
-30.98
-35.67
-38.94
-40.53
-40.47
-39.07
-36.86
-34.53
-32.72
-31.93
-32.22
-33.23
-34.20
-34.20
-32.45
-28.59
-22.81
-15.74
-8.28
-1.32
4.45
8.58
10.86
11.36
10.34
8.22
5.56
2.93
0.75
-0.75
-1.54
-1.81
-1.77
-1.61
-1.41
-1.13
-0.65
0.18
1.40
2.98
4.77
6.55
8.09
9.22
9.83
9.84
9.23
8.02
6.31
4.27
2.12
0.06
-1.74
-3.22
-4.41
-5.37
-6.20
-6.99
-7.74
-8.44
-9.06
-9.61
-10.19
-10.95
-12.09
-13.75
-15.93
-18.38
-20.69
-22.28
-22.61
-21.37
-18.54
-14.43
-9.52
-4.36
0.56
4.95
8.66
11.67
14.03
15.85
17.24
18.24
18.88
19.07
18.72
17.81
16.41
14.76
13.18
12.02
11.51
11.75
12.65
13.96
15.36
16.52
17.20
17.36
17.09
16.57
15.92
15.09
13.87
12.02
9.42
6.20
2.73
-0.52
-3.17
-5.09
-6.43
-7.56
-8.90
-10.80
-13.49
-16.93
-20.89
-24.80
-27.93
-29.51
-29.05
-26.57
-22.68
-18.36
-14.53
-11.76
-9.99
-8.73
-7.35
-5.44
-2.96
-0.21
2.44
4.77
6.75
8.52
10.15
11.57
12.62
13.15
13.17
12.94
12.91
13.45
14.74
16.64
18.73
20.52
21.63
21.93
21.57
20.95
20.57
20.94
22.42
25.01
28.30
31.52
33.71
34.03
32.01
27.76
21.88
15.29
8.87
3.22
-1.50
-5.50
-9.21
-13.12
-17.58
-22.82
-28.79
-35.25
-41.68
-47.35
-51.42
-53.13
-51.99
-48.04
-41.84
-34.37
-26.75
-19.90
-14.32
-10.07
-6.81
-4.03
-1.26
1.78
5.12
8.61
11.98
14.99
17.50
19.46
20.88
21.81
22.26
22.29
22.01
21.62
21.34
21.33
21.57
21.89
21.97
21.55
20.52
18.94
17.03
14.97
12.90
10.84
8.74
6.60
4.45
2.36
0.44
-1.30
-2.85
-4.31
-5.79
-7.41
-9.26
-11.39
-13.78
-16.32
-18.84
-21.15
-23.17
-24.88
-26.38
-27.86
-29.49
-31.42
-33.74
-36.37
-39.09
-41.48
-43.04
-43.21
-41.61
-38.07
-32.74
-26.02
-18.50
-10.84
-3.66
2.55
7.51
11.16
13.62
15.11
15.87
16.04
15.71
14.99
14.01
12.94
11.94
11.11
10.47
9.99
9.72
9.76
10.21
11.14
12.43
13.84
15.03
15.74
15.84
15.39
14.54
13.51
12.39
11.21
9.86
8.28
6.46
4.48
2.51
0.70
-0.87
-2.17
-3.25
-4.12
-4.83
-5.37
-5.80
-6.23
-6.72
-7.32
-7.96
-8.54
-9.00
-9.37
-9.81
-10.51
-11.64
-13.25
-15.24
-17.33
-19.12
-20.15
-20.00
-18.40
-15.38
-11.25
-6.49
-1.59
3.05
7.25
10.90
13.90
16.05
17.19
17.24
16.34
14.80
13.09
11.62
10.66
10.29
10.44
11.00
11.79
12.73
13.75
14.85
16.01
17.21
18.35
19.32
19.97
20.23
20.08
19.62
18.91
18.04
17.00
15.78
14.36
12.76
11.03
9.29
7.67
6.27
5.15
4.25
3.44
2.56
1.52
0.32
-0.92
-2.07
-3.06
-3.98
-4.99
-6.27
-7.90
-9.79
-11.78
-13.68
-15.40
-16.94
-18.41
-19.95
-21.73
-23.83
-26.23
-28.68
-30.78
-31.99
-31.83
-29.98
-26.41
-21.37
-15.33
-8.85
-2.51
3.27
8.15
11.97
14.67
16.31
16.99
16.88
16.21
15.23
14.18
13.25
12.57
12.17
12.07
12.30
12.90
13.85
15.03
16.23
17.26
18.01
18.49
18.75
18.75
18.31
17.23
15.39
12.94
10.27
7.87
6.09
5.03
4.48
4.15
3.77
3.26
2.71
2.28
2.08
2.08
2.15
2.13
1.93
1.52
0.99
0.43
-0.10
-0.60
-1.15
-1.83
-2.65
-3.61
-4.63
-5.71
-6.87
-8.17
-9.66
-11.30
-13.00
-14.65
-16.21
-17.66
-19.06
-20.46
-21.91
-23.43
-24.95
-26.34
-27.34
-27.58
-26.70
-24.44
-20.76
-15.92
-10.37
-4.67
0.70
5.37
9.13
11.87
13.61
14.46
14.59
14.22
13.58
12.80
11.96
11.09
10.21
9.40
8.74
8.35
8.30
8.60
9.22
10.04
10.93
11.75
12.37
12.69
12.66
12.31
11.68
10.86
9.94
8.99
8.08
7.22
6.37
5.47
4.47
3.34
2.16
1.02
0.07
-0.60
-0.97
-1.09
-1.06
-1.00
-1.03
-1.22
-1.62
-2.22
-2.98
-3.81
-4.65
-5.41
-6.08
-6.71
-7.37
-8.18
-9.24
-10.57
-12.10
-13.67
-14.97
-15.66
-15.42
-14.06
-11.54
-8.07
-4.00
0.20
4.09
7.29
9.57
10.88
11.28
10.95
10.15
9.12
8.05
7.07
6.23
5.51
4.88
4.28
3.73
3.24
2.90
2.78
3.01
3.67
4.75
6.15
7.65
8.99
9.95
10.41
10.42
10.10
9.59
8.98
8.29
7.53
6.69
5.76
4.75
3.70
2.64
1.61
0.65
-0.22
-1.06
-1.93
-2.90
-3.99
-5.15
-6.32
-7.47
-8.61
-9.79
-11.06
-12.41
-13.83
-15.32
-16.94
-18.77
-20.84
-23.03
-25.03
-26.40
-26.73
-25.77
-23.54
-20.28
-16.36
-12.13
-7.87
-3.78
-0.00
3.35
6.17
8.43
10.14
11.34
12.06
12.29
11.98
11.18
10.01
8.70
7.53
6.69
6.26
6.20
6.43
6.89
7.54
8.34
9.20
9.98
10.53
10.76
10.68
10.42
10.15
9.94
9.74
9.38
8.69
7.63
6.27
4.81
3.43
2.21
1.14
0.15
-0.82
-1.77
-2.67
-3.50
-4.29
-5.12
-6.02
-7.04
-8.12
-9.19
-10.19
-11.14
-12.07
-13.06
-14.17
-15.44
-16.90
-18.56
-20.36
-22.19
-23.80
-24.82
-24.83
-23.49
-20.68
-16.57
-11.63
-6.47
-1.67
2.40
5.61
8.03
9.80
11.02
11.69
11.84
11.51
10.79
9.84
8.80
7.75
6.75
5.84
5.09
4.60
4.43
4.61
5.14
5.96
7.00
8.14
9.21
10.03
10.48
10.57
10.43
10.24
10.07
9.87
9.43
8.57
7.25
5.58
3.81
2.13
0.63
-0.73
-2.04
-3.37
-4.70
-5.98
-7.16
-8.24
-9.25
-10.18
-11.05
-11.83
-12.51
-13.11
-13.70
-14.35
-15.14
-16.15
-17.42
-18.92
-20.46
-21.66
-22.01
-20.98
-18.27
-13.89
-8.27
-2.06
4.00
9.40
13.81
17.17
19.57
21.09
21.82
21.76
20.98
19.56
17.70
15.65
13.64
11.82
10.27
8.92
7.69
6.52
5.43
4.56
4.12
4.27
5.03
6.27
7.68
8.97
9.87
10.23
10.06
9.43
8.49
7.39
6.26
5.19
4.20
3.27
2.33
1.28
0.10
-1.25
-2.74
-4.34
-6.01
-7.72
-9.40
-10.99
-12.49
-13.88
-15.23
-16.54
-17.73
-18.60
-18.85
-18.23
-16.54
-13.81
-10.23
-6.15
-2.00
1.84
5.09
7.62
9.42
10.58
11.14
11.16
10.68
9.78
8.61
7.37
6.23
5.27
4.47
3.74
3.02
2.35
1.89
1.80
2.21
3.08
4.26
5.46
6.39
6.87
6.83
6.37
5.65
4.86
4.13
3.45
2.77
2.01
1.08
-0.04
-1.37
-2.88
-4.54
-6.32
-8.14
-9.90
-11.54
-13.00
-14.31
-15.55
-16.83
-18.26
-19.91
-21.76
-23.67
-25.43
-26.67
-27.05
-26.24
-24.06
-20.54
-15.92
-10.62
-5.16
-0.04
4.37
7.87
10.43
12.12
13.06
13.37
13.16
12.57
11.72
10.75
9.71
8.64
7.58
6.60
5.81
5.37
5.38
5.89
6.82
7.98
9.15
10.12
10.72
10.92
10.81
10.51
10.09
9.58
8.94
8.11
7.06
5.80
4.40
2.93
1.45
0.00
-1.35
-2.58
-3.65
-4.59
-5.44
-6.33
-7.31
-8.40
-9.58
-10.77
-11.95
-13.17
-14.54
-16.19
-18.17
-20.40
-22.63
-24.46
-25.46
-25.29
-23.77
-20.98
-17.19
-12.74
-8.03
-3.36
0.99
4.82
7.91
10.12
11.34
11.58
10.97
9.78
8.29
6.81
5.55
4.64
4.13
3.95
4.00
4.21
4.52
4.96
5.60
6.52
7.75
9.19
10.66
11.93
12.81
13.16
12.97
12.26
11.11
9.59
7.82
5.95
4.17
2.64
1.45
0.54
-0.21
-0.98
-1.86
-2.82
-3.74
-4.42
-4.68
-4.42
-3.68
-2.62
-1.50
-0.64
-0.29
-0.61
-1.66
-3.36
-5.59
-8.14
-10.76
-13.14
-14.90
-15.66
-15.15
-13.28
-10.24
-6.42
-2.33
1.58
4.98
7.70
9.74
11.15
12.01
12.38
12.34
11.93
11.22
10.25
9.09
7.81
6.52
5.36
4.49
4.07
4.16
4.76
5.73
6.93
8.15
9.23
10.06
10.55
10.67
10.39
9.74
8.77
7.59
6.30
4.98
3.67
2.34
0.91
-0.67
-2.38
-4.18
-5.95
-7.61
-9.10
-10.43
-11.68
-12.92
-14.25
-15.76
-17.52
-19.48
-21.42
-22.91
-23.42
-22.44
-19.71
-15.34
-9.74
-3.57
2.51
7.98
12.48
15.90
18.18
19.37
19.55
18.87
17.53
15.84
14.04
12.33
10.82
9.50
8.36
7.42
6.74
6.43
6.53
7.02
7.74
8.49
9.09
9.46
9.63
9.68
9.67
9.59
9.40
9.03
8.45
7.69
6.84
6.01
5.23
4.47
3.65
2.67
1.48
0.14
-1.24
-2.51
-3.61
-4.50
-5.27
-6.00
-6.79
-7.70
-8.76
-9.95
-11.25
-12.59
-13.90
-15.14
-16.31
-17.52
-18.92
-20.67
-22.75
-24.93
-26.75
-27.64
-27.14
-25.06
-21.52
-16.95
-11.85
-6.70
-1.84
2.52
6.21
9.05
10.95
11.92
12.10
11.78
11.22
10.60
9.99
9.32
8.54
7.65
6.78
6.11
5.82
5.99
6.64
7.63
8.80
10.00
11.11
12.07
12.86
13.47
13.87
14.02
13.89
13.45
12.74
11.80
10.69
9.45
8.15
6.86
5.65
4.60
3.72
2.99
2.31
1.58
0.75
-0.18
-1.17
-2.12
-2.98
-3.76
-4.50
-5.31
-6.26
-7.38
-8.63
-9.90
-11.08
-12.12
-13.08
-14.13
-15.47
-17.30
-19.65
-22.38
-25.21
-27.68
-29.34
-29.81
-28.88
-26.57
-23.10
-18.82
-14.17
-9.50
-5.14
-1.29
1.95
4.52
6.47
7.90
8.93
9.68
10.25
10.66
10.95
11.08
11.06
10.94
10.80
10.74
10.88
11.29
12.00
12.96
14.04
15.07
15.91
16.44
16.64
16.55
16.21
15.66
14.93
14.05
13.07
12.03
10.99
9.95
8.85
7.62
6.24
4.77
3.34
2.08
1.03
0.10
-0.85
-1.93
-3.15
-4.41
-5.55
-6.45
-7.11
-7.63
-8.16
-8.79
-9.53
-10.39
-11.36
-12.52
-13.96
-15.67
-17.51
-19.10
-19.99
-19.72
-18.07
-15.07
-11.06
-6.55
-2.11
1.83
5.01
7.36
8.97
10.02
10.66
10.98
11.01
10.72
10.10
9.16
7.95
6.62
5.32
4.25
3.58
3.42
3.76
4.49
5.44
6.44
7.38
8.18
8.82
9.26
9.48
9.43
9.08
8.45
7.58
6.53
5.38
4.17
2.97
1.79
0.65
-0.51
-1.75
-3.12
-4.64
-6.29
-8.00
-9.71
-11.36
-12.92
-14.40
-15.85
-17.32
-18.85
-20.41
-21.96
-23.36
-24.42
-24.89
-24.56
-23.25
-20.92
-17.63
-13.58
-9.07
-4.42
-0.02
3.81
6.78
8.72
9.64
9.71
9.30
8.78
8.47
8.50
8.80
9.12
9.22
9.00
8.55
8.05
7.74
7.77
8.16
8.84
9.67
10.48
11.12
11.43
11.38
11.02
10.51
10.06
9.86
9.92
10.11
10.21
9.99
9.32
8.21
6.78
5.15
3.41
1.61
-0.27
-2.20
-4.11
-5.88
-7.40
-8.62
-9.60
-10.47
-11.39
-12.49
-13.79
-15.23
-16.72
-18.22
-19.69
-21.11
-22.38
-23.33
-23.69
-23.18
-21.59
-18.87
-15.14
-10.70
-5.98
-1.38
2.76
6.26
9.02
11.05
12.38
13.04
13.06
12.52
11.55
10.37
9.20
8.21
7.46
6.92
6.50
6.15
5.89
5.81
6.03
6.59
7.40
8.28
9.03
9.55
9.86
10.05
10.20
10.26
10.14
9.72
8.96
7.97
6.90
5.95
5.18
4.61
4.13
3.65
3.15
2.61
2.06
1.45
0.74
-0.15
-1.25
-2.48
-3.73
-4.88
-5.88
-6.77
-7.68
-8.68
-9.79
-10.93
-12.01
-13.04
-14.10
-15.35
-16.86
-18.59
-20.31
-21.65
-22.22
-21.73
-20.02
-17.13
-13.27
-8.79
-4.11
0.34
4.20
7.26
9.42
10.77
11.44
11.63
11.46
11.01
10.30
9.35
8.23
7.08
6.12
5.53
5.49
6.01
7.00
8.29
9.67
10.99
12.14
13.07
13.73
14.09
14.12
13.83
13.29
12.59
11.79
10.93
9.95
8.81
7.50
6.06
4.57
3.13
1.80
0.58
-0.54
-1.56
-2.45
-3.19
-3.71
-4.00
-4.11
-4.11
-4.09
-4.13
-4.26
-4.47
-4.65
-4.63
-4.16
-2.97
-0.76
2.63
7.23
12.83
19.06
25.48
31.69
37.43
42.52
46.90
50.57
53.62
56.20
58.51
60.60
62.34
63.27
62.79
60.31
55.58
48.70
40.14
30.61
20.83
11.54
3.38
-3.14
-7.80
-10.77
-12.55
-13.76
-14.88
-16.03
-16.96
-17.30
-16.86
-15.81
-14.71
-14.28
-15.10
-17.41
-21.03
-25.39
-29.70
-33.15
-35.07
-35.19
-33.64
-30.97
-27.95
-25.36
-23.71
-23.18
-23.56
-24.32
-24.84
-24.52
-23.04
-20.38
-16.95
-13.40
-10.44
-8.55
-7.75
-7.59
-7.25
-5.95
-3.12
1.27
6.83
12.88
18.70
23.74
27.77
30.79
33.00
34.67
36.13
37.81
40.10
43.33
47.44
51.96
55.92
58.17
57.78
54.36
48.23
40.23
31.31
22.23
13.31
4.62
-3.88
-12.07
-19.66
-26.30
-31.74
-35.92
-38.94
-40.96
-42.19
-42.85
-43.25
-43.80
-44.86
-46.64
-49.09
-51.87
-54.58
-56.86
-58.57
-59.80
-60.71
-61.49
-62.20
-62.87
-63.45
-63.86
-63.94
-63.46
-62.12
-59.64
-55.86
-50.81
-44.75
-38.10
-31.35
-24.97
-19.29
-14.49
-10.56
-7.40
-4.90
-2.96
-1.52
-0.47
0.38
1.25
2.38
3.83
5.48
7.14
8.61
9.91
11.19
12.70
14.60
16.89
19.37
21.79
23.94
25.69
26.94
27.64
27.69
26.96
25.43
23.17
20.39
17.39
14.40
11.52
8.73
5.97
3.19
0.41
-2.24
-4.66
-6.80
-8.70
-10.47
-12.35
-14.56
-17.30
-20.61
-24.29
-27.90
-30.79
-32.26
-31.82
-29.31
-24.97
-19.39
-13.36
-7.69
-3.05
0.11
1.55
1.29
-0.42
-3.14
-6.33
-9.42
-12.04
-14.03
-15.50
-16.65
-17.62
-18.27
-18.18
-16.81
-13.74
-8.90
-2.74
3.97
10.38
15.80
19.85
22.46
23.71
23.69
22.46
20.11
16.79
12.83
8.64
4.63
1.07
-1.96
-4.60
-7.07
-9.53
-12.00
-14.32
-16.24
-17.57
-18.28
-18.54
-18.63
-18.84
-19.39
-20.34
-21.62
-23.15
-24.77
-26.28
-27.39
-27.68
-26.75
-24.25
-20.11
-14.53
-8.03
-1.23
5.29
11.13
16.12
20.22
23.49
25.96
27.65
28.58
28.79
28.42
27.64
26.67
25.71
24.93
24.42
24.20
24.25
24.48
24.81
25.12
25.32
25.35
25.10
24.50
23.48
22.07
20.32
18.39
16.41
14.52
12.74
11.02
9.29
7.44
5.42
3.25
0.96
-1.37
-3.64
-5.79
-7.81
-9.70
-11.53
-13.31
-15.04
-16.71
-18.33
-20.00
-21.91
-24.22
-26.95
-29.89
-32.62
-34.63
-35.50
-35.00
-33.13
-30.00
-25.76
-20.57
-14.59
-8.14
-1.67
4.28
9.18
12.71
14.87
15.95
16.45
16.92
17.85
19.65
22.62
27.03
32.98
40.24
48.17
55.74
61.84
65.69
67.09
66.50
64.62
62.05
58.97
55.15
50.33
44.54
38.28
32.28
27.19
23.21
20.04
17.10
13.84
10.00
5.66
1.09
-3.46
-7.80
-11.93
-15.83
-19.44
-22.62
-25.19
-27.01
-28.07
-28.49
-28.47
-28.27
-28.08
-28.00
-27.99
-27.84
-27.22
-25.74
-23.11
-19.26
-14.44
-9.14
-3.99
0.49
4.04
6.71
8.72
10.33
11.65
12.59
12.97
12.62
11.55
9.95
8.22
6.76
5.88
5.75
6.31
7.36
8.62
9.85
10.86
11.55
11.82
11.60
10.77
9.24
6.99
4.12
0.85
-2.50
-5.68
-8.53
-11.05
-13.36
-15.58
-17.82
-20.11
-22.44
-24.75
-27.01
-29.19
-31.33
-33.46
-35.66
-37.95
-40.28
-42.50
-44.30
-45.31
-45.14
-43.51
-40.29
-35.56
-29.60
-22.83
-15.75
-8.87
-2.64
2.62
6.76
9.79
11.85
13.09
13.63
13.55
12.91
11.79
10.32
8.68
7.08
5.71
4.73
4.25
4.37
5.10
6.41
8.14
10.09
12.03
13.77
15.14
16.07
16.50
16.48
16.11
15.59
15.13
14.90
14.94
15.13
15.29
15.27
15.05
14.74
14.50
14.49
14.76
15.28
15.95
16.67
17.33
17.85
18.21
18.54
19.16
20.57
23.36
28.07
34.97
43.89
54.12
64.45
73.37
79.37
81.29
78.61
71.56
61.02
48.28
34.71
21.58
9.93
0.56
-6.04
-9.73
-10.77
-9.82
-7.75
-5.36
-3.21
-1.52
-0.22
0.80
1.63
2.16
2.22
1.58
0.12
-2.20
-5.29
-8.94
-12.88
-16.78
-20.36
-23.42
-25.94
-28.01
-29.75
-31.32
-32.82
-34.34
-35.98
-37.84
-39.97
-42.32
-44.66
-46.76
-48.40
-49.51
-50.22
-50.70
-51.07
-51.26
-50.99
-49.81
-47.29
-43.21
-37.61
-30.85
-23.51
-16.12
-9.15
-2.86
2.60
7.13
10.65
13.07
14.35
14.53
13.78
12.30
10.31
8.04
5.74
3.70
2.15
1.27
1.05
1.40
2.16
3.23
4.52
5.97
7.45
8.76
9.70
10.13
10.03
9.51
8.70
7.74
6.71
5.67
4.68
3.74
2.72
1.47
-0.21
-2.40
-4.99
-7.73
-10.30
-12.45
-14.13
-15.47
-16.71
-18.11
-19.88
-22.10
-24.67
-27.27
-29.41
-30.49
-30.02
-27.71
-23.69
-18.38
-12.39
-6.36
-0.76
4.14
8.27
11.58
14.08
15.75
16.58
16.66
16.13
15.16
13.91
12.49
10.99
9.53
8.29
7.55
7.55
8.49
10.38
13.09
16.33
19.76
23.03
25.84
27.98
29.33
29.92
29.88
29.46
28.90
28.41
28.05
27.74
27.35
26.73
25.78
24.52
22.99
21.26
19.41
17.51
15.59
13.65
11.58
9.17
6.16
2.29
-2.54
-8.21
-14.30
-20.19
-25.17
-28.56
-29.87
-28.92
-25.83
-21.06
-15.30
-9.38
-4.05
0.12
2.84
4.13
4.18
3.29
1.71
-0.33
-2.68
-5.14
-7.48
-9.47
-10.92
-11.73
-11.97
-11.74
-11.16
-10.34
-9.32
-8.17
-7.02
-6.02
-5.29
-4.93
-4.88
-5.05
-5.31
-5.65
-6.09
-6.78
-7.81
-9.24
-10.99
-12.92
-14.89
-16.83
-18.74
-20.72
-22.83
-25.01
-27.10
-28.86
-30.11
-30.89
-31.48
-32.30
-33.78
-36.21
-39.59
-43.57
-47.58
-50.84
-52.58
-52.15
-49.20
-43.76
-36.31
-27.61
-18.59
-10.05
-2.57
3.59
8.34
11.72
13.76
14.58
14.31
13.22
11.66
9.96
8.38
7.10
6.17
5.63
5.57
6.09
7.24
9.00
11.16
13.43
15.49
17.11
18.16
18.62
18.54
17.93
16.82
15.25
13.35
11.31
9.33
7.55
5.97
4.47
2.85
0.93
-1.34
-3.90
-6.58
-9.17
-11.48
-13.44
-15.10
-16.64
-18.33
-20.42
-23.07
-26.19
-29.43
-32.19
-33.77
-33.56
-31.24
-26.80
-20.57
-13.13
-5.16
2.64
9.66
15.49
19.89
22.82
24.43
24.89
24.41
23.17
21.36
19.17
16.84
14.60
12.69
11.25
10.38
10.09
10.39
11.24
12.60
14.33
16.21
17.97
19.28
19.86
19.56
18.45
16.74
14.79
12.92
11.35
10.12
9.08
8.00
6.67
4.95
2.82
0.39
-2.17
-4.69
-7.03
-9.13
-11.00
-12.77
-14.64
-16.83
-19.50
-22.60
-25.87
-28.86
-30.95
-31.64
-30.61
-27.84
-23.57
-18.19
-12.06
-5.57
0.88
6.79
11.47
14.19
14.42
12.01
7.36
1.43
-4.46
-8.92
-10.75
-9.27
-4.53
2.61
10.62
17.65
22.10
23.10
20.65
15.53
8.88
1.92
-4.18
-8.32
-9.52
-7.13
-1.21
7.30
16.79
25.51
32.21
36.56
39.00
40.29
40.93
40.83
39.55
36.61
31.91
25.84
19.00
11.93
4.80
-2.54
-10.36
-18.73
-27.24
-35.07
-41.16
-44.66
-45.20
-43.07
-39.09
-34.22
-29.31
-24.84
-21.00
-17.83
-15.39
-13.75
-12.98
-12.93
-13.20
-13.20
-12.40
-10.56
-7.83
-4.68
-1.67
0.85
2.89
4.76
6.89
9.55
12.75
16.15
19.27
21.62
22.93
23.14
22.40
20.93
18.92
16.52
13.77
10.74
7.46
4.00
0.41
-3.23
-6.89
-10.51
-14.02
-17.36
-20.53
-23.57
-26.57
-29.54
-32.34
-34.66
-36.05
-36.03
-34.25
-30.58
-25.13
-18.26
-10.45
-2.33
5.44
12.23
17.51
21.00
22.72
22.99
22.37
21.46
20.68
20.24
20.05
19.88
19.48
18.79
17.97
17.37
17.41
18.36
20.32
23.14
26.50
30.05
33.48
36.54
39.04
40.78
41.55
41.21
39.71
37.15
33.78
29.91
25.84
21.75
17.72
13.71
9.61
5.32
0.74
-4.16
-9.30
-14.34
-18.78
-21.93
-23.13
-21.88
-18.09
-12.13
-4.75
3.05
10.28
16.22
20.49
23.11
24.33
24.52
23.96
22.83
21.17
18.98
16.30
13.26
10.03
6.80
3.76
1.11
-0.92
-2.12
-2.38
-1.69
-0.21
1.82
4.07
6.26
8.08
9.24
9.49
8.68
6.91
4.45
1.79
-0.61
-2.49
-3.93
-5.33
-7.26
-10.19
-14.30
-19.45
-25.13
-30.58
-35.02
-37.70
-38.07
-35.84
-31.06
-24.11
-15.68
-6.67
2.00
9.53
15.40
19.41
21.64
22.39
22.05
20.97
19.49
17.89
16.40
15.16
14.15
13.03
11.15
7.75
2.26
-5.43
-14.80
-24.90
-34.69
-43.49
-51.14
-57.96
-64.35
-70.53
-76.28
-81.00
-83.98
-84.60
-82.62
-78.24
-72.06
-65.00
-58.10
-52.25
-47.98
-45.32
-43.75
-42.37
-40.12
-36.03
-29.45
-20.18
-8.47
4.94
19.04
32.71
44.99
55.18
63.01
68.47
71.72
72.94
72.28
69.88
65.95
60.87
55.18
49.48
44.34
40.17
37.07
34.96
33.57
32.59
31.70
30.60
29.00
26.64
23.31
18.89
13.45
7.19
0.44
-6.41
-13.05
-19.25
-24.90
-30.03
-34.87
-39.84
-45.40
-51.97
-59.57
-67.78
-75.64
-81.90
-85.39
-85.31
-81.51
-74.42
-64.90
-53.95
-42.54
-31.46
-21.36
-12.69
-5.74
-0.55
3.02
5.34
6.81
7.85
8.79
9.87
11.29
13.18
15.60
18.48
21.69
25.01
28.29
31.37
34.16
36.54
38.36
39.53
40.06
40.19
40.30
40.82
42.00
43.81
45.92
47.73
48.64
48.22
46.33
43.21
39.32
35.20
31.25
27.55
23.87
19.80
14.94
9.14
2.51
-4.49
-11.27
-17.15
-21.49
-23.81
-23.80
-21.43
-17.01
-11.15
-4.63
1.73
7.26
11.51
14.33
15.74
15.90
15.07
13.56
11.71
9.88
8.38
7.43
7.08
7.34
8.11
9.35
11.02
13.07
15.42
17.92
20.36
22.55
24.32
25.62
26.44
26.85
26.86
26.47
25.64
24.37
22.76
20.95
19.14
17.48
16.05
14.84
13.81
12.91
12.10
11.32
10.53
9.66
8.71
7.72
6.78
5.91
5.06
4.07
2.77
1.07
-0.98
-3.20
-5.33
-7.21
-8.81
-10.25
-11.69
-13.30
-15.20
-17.42
-19.96
-22.74
-25.53
-27.90
-29.31
-29.18
-27.16
-23.24
-17.81
-11.52
-5.08
0.88
5.94
9.88
12.60
14.13
14.52
13.91
12.52
10.60
8.44
6.27
4.31
2.68
1.48
0.72
0.39
0.42
0.76
1.37
2.18
3.11
4.00
4.67
4.98
4.84
4.28
3.46
2.59
1.86
1.38
1.21
1.33
1.71
2.30
3.00
3.65
4.07
4.14
3.84
3.26
2.55
1.80
1.01
0.02
-1.36
-3.30
-5.91
-9.16
-12.88
-16.76
-20.33
-23.03
-24.38
-24.05
-21.99
-18.45
-13.90
-8.86
-3.81
0.89
5.04
8.53
11.30
13.37
14.76
15.50
15.66
15.30
14.49
13.32
11.92
10.41
8.93
7.62
6.61
5.99
5.82
6.10
6.76
7.64
8.53
9.21
9.47
9.17
8.28
6.87
5.12
3.25
1.49
-0.01
-1.20
-2.18
-3.09
-4.03
-5.01
-5.94
-6.63
-6.92
-6.79
-6.36
-5.88
-5.61
-5.70
-6.17
-6.88
-7.67
-8.42
-9.07
-9.68
-10.35
-11.20
-12.32
-13.67
-15.09
-16.28
-16.85
-16.39
-14.63
-11.55
-7.34
-2.45
2.63
7.40
11.46
14.58
16.68
17.82
18.14
17.89
17.29
16.51
15.66
14.78
13.89
13.02
12.26
11.69
11.39
11.39
11.68
12.21
12.95
13.87
14.89
15.89
16.70
17.15
17.12
16.57
15.55
14.14
12.45
10.53
8.42
6.14
3.69
1.08
-1.68
-4.59
-7.59
-10.58
-13.39
-15.91
-18.11
-20.10
-22.12
-24.40
-27.13
-30.34
-33.89
-37.56
-41.07
-44.17
-46.63
-48.29
-49.02
-48.75
-47.47
-45.24
-42.04
-37.80
-32.36
-25.55
-17.32
-7.91
2.14
12.07
21.15
28.86
35.08
40.02
43.98
47.16
49.55
50.89
50.88
49.33
46.26
41.91
36.61
30.79
24.81
19.01
13.71
9.22
5.79
3.51
2.35
2.06
2.35
2.92
3.60
4.34
5.22
6.31
7.59
8.97
10.28
11.44
12.42
13.30
14.12
14.87
15.47
15.86
16.03
16.10
16.23
16.52
17.03
17.70
18.49
19.38
20.36
21.37
22.15
22.30
21.41
19.14
15.45
10.55
4.83
-1.25
-7.33
-13.14
-18.55
-23.49
-27.90
-31.65
-34.64
-36.80
-38.13
-38.75
-38.81
-38.46
-37.73
-36.53
-34.69
-32.09
-28.74
-24.85
-20.77
-16.91
-13.65
-11.22
-9.71
-9.04
-9.00
-9.31
-9.75
-10.19
-10.62
-11.16
-11.89
-12.83
-13.90
-14.92
-15.67
-16.00
-15.82
-15.15
-14.04
-12.58
-10.89
-9.14
-7.51
-6.22
-5.39
-5.02
-4.97
-4.99
-4.83
-4.33
-3.53
-2.64
-1.97
-1.81
-2.34
-3.60
-5.44
-7.63
-9.81
-11.60
-12.62
-12.60
-11.45
-9.42
-7.01
-4.83
-3.44
-3.07
-3.56
-4.39
-4.86
-4.37
-2.53
0.69
5.06
10.14
15.42
20.39
24.62
27.77
29.65
30.21
29.53
27.78
25.25
22.22
19.02
15.86
12.89
10.11
7.48
4.93
2.51
0.28
-1.64
-3.15
-4.29
-5.15
-5.82
-6.35
-6.69
-6.72
-6.38
-5.68
-4.75
-3.81
-3.10
-2.81
-3.04
-3.77
-4.88
-6.13
-7.27
-8.07
-8.41
-8.30
-7.89
-7.37
-6.88
-6.51
-6.23
-5.98
-5.73
-5.46
-5.23
-5.06
-5.03
-5.17
-5.56
-6.24
-7.17
-8.10
-8.39
-7.15
-3.54
2.85
11.64
21.61
31.07
38.37
42.50
43.39
41.76
38.82
35.79
33.54
32.49
32.67
33.87
35.80
38.18
40.70
43.02
44.62
44.90
43.17
38.94
32.11
23.10
12.77
2.11
-8.01
-17.12
-25.16
-32.25
-38.44
-43.49
-46.88
-48.11
-46.96
-43.77
-39.38
-34.86
-31.08
-28.42
-26.73
-25.47
-24.11
-22.41
-20.46
-18.58
-17.05
-15.93
-15.06
-14.16
-13.12
-12.01
-11.13
-10.79
-11.17
-12.19
-13.49
-14.53
-14.77
-13.73
-11.12
-6.86
-1.09
5.85
13.54
21.50
29.33
36.70
43.39
49.22
54.09
57.99
60.97
63.16
64.70
65.66
66.08
65.90
65.11
63.71
61.80
59.49
56.88
54.02
50.88
47.42
43.65
39.62
35.44
31.15
26.76
22.13
17.10
11.54
5.47
-0.94
-7.37
-13.50
-19.04
-23.86
-27.91
-31.30
-34.23
-36.92
-39.63
-42.54
-45.65
-48.81
-51.70
-54.03
-55.61
-56.46
-56.83
-57.03
-57.36
-57.99
-58.94
-60.03
-60.95
-61.31
-60.68
-58.73
-55.31
-50.54
-44.78
-38.54
-32.34
-26.56
-21.43
-17.06
-13.51
-10.81
-8.94
-7.85
-7.42
-7.49
-7.92
-8.60
-9.45
-10.42
-11.39
-12.23
-12.80
-13.00
-12.77
-12.15
-11.26
-10.29
-9.40
-8.76
-8.39
-8.20
-8.05
-7.86
-7.66
-7.64
-8.03
-8.98
-10.44
-12.15
-13.77
-15.08
-16.01
-16.72
-17.46
-18.47
-19.85
-21.53
-23.31
-24.87
-25.84
-25.82
-24.48
-21.62
-17.28
-11.77
-5.63
0.51
6.09
10.72
14.27
16.75
18.33
19.17
19.45
19.29
18.79
18.03
17.02
15.80
14.41
12.97
11.61
10.48
9.67
9.22
9.07
9.14
9.35
9.60
9.81
9.92
9.83
9.48
8.84
7.93
6.78
5.45
4.03
2.56
1.04
-0.54
-2.28
-4.23
-6.44
-8.85
-11.40
-14.05
-16.79
-19.62
-22.39
-24.82
-26.46
-26.83
-25.60
-22.72
-18.40
-13.08
-7.23
-1.34
4.20
9.10
13.12
16.13
18.06
19.01
19.14
18.74
18.06
17.31
16.57
15.79
14.87
13.76
12.52
11.33
10.45
10.07
10.26
10.91
11.77
12.56
13.08
13.22
13.00
12.52
11.94
11.34
10.75
10.07
9.12
7.75
5.91
3.66
1.23
-1.15
-3.29
-5.11
-6.72
-8.32
-10.13
-12.33
-14.98
-17.90
-20.73
-22.93
-23.92
-23.27
-20.82
-16.77
-11.60
-5.95
-0.40
4.61
8.87
12.32
14.98
16.86
17.98
18.36
18.11
17.38
16.33
15.08
13.66
12.05
10.25
8.40
6.78
5.74
5.53
6.20
7.58
9.31
11.01
12.41
13.39
13.96
14.17
14.11
13.85
13.45
13.00
12.56
12.11
11.57
10.84
9.82
8.52
7.02
5.44
3.91
2.46
1.10
-0.25
-1.70
-3.32
-5.19
-7.33
-9.65
-11.98
-13.97
-15.18
-15.16
-13.50
-10.07
-4.99
1.30
8.18
14.98
21.16
26.33
30.36
33.30
35.32
36.72
37.80
38.85
40.07
41.56
43.32
45.27
47.34
49.50
51.77
54.20
56.91
60.05
63.80
68.27
73.37
78.72
83.62
87.21
88.70
87.61
83.90
77.90
70.16
61.26
51.71
41.93
32.40
23.60
16.06
10.10
5.70
2.37
-0.79
-4.83
-10.54
-18.22
-27.55
-37.77
-48.01
-57.61
-66.22
-73.81
-80.42
-85.99
-90.30
-93.05
-94.02
-93.19
-90.70
-86.85
-82.00
-76.59
-71.10
-66.04
-61.86
-58.83
-57.09
-56.63
-57.31
-58.85
-60.77
-62.37
-62.81
-61.36
-57.56
-51.46
-43.53
-34.51
-25.17
-16.08
-7.57
0.28
7.56
14.44
21.07
27.47
33.42
38.45
41.96
43.42
42.68
40.00
36.06
31.63
27.41
23.73
20.64
17.96
15.42
12.84
10.10
7.15
3.96
0.52
-3.16
-6.99
-10.80
-14.40
-17.63
-20.47
-22.98
-25.34
-27.77
-30.49
-33.59
-37.08
-40.80
-44.41
-47.47
-49.47
-49.98
-48.66
-45.39
-40.25
-33.50
-25.51
-16.71
-7.57
1.45
9.84
17.11
22.74
26.29
27.48
26.34
23.23
18.85
13.99
9.41
5.63
2.88
1.20
0.52
0.72
1.60
2.88
4.20
5.29
5.97
6.29
6.41
6.53
6.75
7.01
7.19
7.18
6.93
6.44
5.77
4.94
3.95
2.82
1.62
0.40
-0.83
-2.17
-3.83
-6.08
-9.11
-12.94
-17.36
-21.96
-26.25
-29.80
-32.47
-34.43
-36.08
-37.90
-40.13
-42.55
-44.39
-44.62
-42.33
-37.29
-30.19
-22.55
-16.20
-12.71
-12.83
-16.42
-22.58
-30.06
-37.44
-43.33
-46.46
-45.89
-41.25
-32.91
-21.91
-9.54
3.03
15.14
26.50
36.93
46.02
52.98
56.93
57.20
53.76
47.29
39.03
30.38
22.56
16.30
11.81
8.89
7.13
6.15
5.75
5.82
6.25
6.78
7.01
6.54
5.18
3.00
0.33
-2.39
-4.85
-6.89
-8.52
-9.80
-10.85
-11.76
-12.63
-13.52
-14.42
-15.28
-15.96
-16.41
-16.67
-16.97
-17.58
-18.78
-20.72
-23.38
-26.58
-29.98
-33.00
-34.84
-34.66
-31.79
-26.12
-18.25
-9.37
-0.90
6.09
11.22
14.85
17.74
20.66
24.00
27.71
31.40
34.70
37.33
39.26
40.50
41.11
41.04
40.23
38.65
36.41
33.63
30.50
27.13
23.60
20.02
16.51
13.30
10.67
8.81
7.80
7.59
7.98
8.70
9.53
10.20
10.52
10.35
9.67
8.62
7.46
6.45
5.76
5.35
5.06
4.65
3.97
3.02
1.90
0.74
-0.36
-1.39
-2.41
-3.48
-4.66
-5.98
-7.44
-8.98
-10.55
-12.05
-13.43
-14.65
-15.73
-16.74
-17.74
-18.73
-19.64
-20.26
-20.28
-19.35
-17.13
-13.44
-8.35
-2.18
4.53
11.20
17.37
22.78
27.34
31.07
34.00
36.12
37.47
38.23
38.68
39.08
39.47
39.56
38.86
36.94
33.82
30.03
26.44
23.80
22.38
21.86
21.60
21.00
19.89
18.59
17.61
17.38
17.96
19.09
20.46
21.90
23.57
25.88
29.23
33.76
39.19
44.92
50.21
54.52
57.72
60.06
61.94
63.63
64.95
65.37
64.19
60.85
55.09
47.01
36.88
25.01
11.71
-2.61
-17.27
-31.26
-43.28
-52.09
-56.87
-57.53
-54.68
-49.40
-42.79
-35.63
-28.19
-20.43
-12.34
-4.19
3.37
9.59
13.90
16.28
17.15
17.22
17.11
17.11
17.17
17.02
16.41
15.26
13.63
11.72
9.73
7.77
5.77
3.50
0.55
-3.50
-8.82
-15.26
-22.29
-29.21
-35.42
-40.66
-45.04
-48.90
-52.41
-55.35
-57.01
-56.45
-52.95
-46.32
-37.14
-26.51
-15.70
-5.71
3.00
10.48
17.03
22.92
28.15
32.50
35.63
37.28
37.40
36.08
33.54
30.05
25.86
21.24
16.44
11.60
6.79
1.94
-3.02
-8.16
-13.33
-18.21
-22.33
-25.23
-26.60
-26.40
-24.81
-22.20
-19.02
-15.73
-12.79
-10.63
-9.49
-9.40
-9.98
-10.67
-10.83
-10.11
-8.59
-6.69
-4.96
-3.82
-3.36
-3.43
-3.80
-4.30
-4.82
-5.25
-5.36
-4.91
-3.79
-2.17
-0.49
0.68
0.97
0.37
-0.74
-1.74
-2.04
-1.33
0.32
2.52
4.67
6.22
6.85
6.53
5.57
4.43
3.55
3.20
3.38
3.89
4.46
4.80
4.73
4.18
3.18
1.84
0.37
-0.89
-1.52
-1.10
0.71
4.01
8.66
14.31
20.48
26.63
32.33
37.29
41.48
45.03
48.12
50.68
52.36
52.46
50.19
45.06
37.09
26.98
15.83
4.84
-5.06
-13.37
-20.00
-25.08
-28.79
-31.30
-32.75
-33.32
-33.35
-33.24
-33.43
-34.26
-35.87
-38.18
-40.92
-43.78
-46.54
-49.04
-51.20
-52.88
-53.88
-54.00
-53.15
-51.41
-49.02
-46.24
-43.17
-39.78
-35.99
-31.84
-27.67
-24.00
-21.36
-20.00
-19.72
-19.95
-19.96
-19.14
-17.22
-14.23
-10.45
-6.19
-1.75
2.62
6.65
9.99
12.25
13.16
12.64
10.90
8.41
5.69
3.18
1.04
-0.77
-2.45
-4.06
-5.57
-6.74
-7.34
-7.26
-6.58
-5.52
-4.34
-3.25
-2.35
-1.69
-1.31
-1.31
-1.75
-2.59
-3.70
-4.88
-5.97
-6.96
-8.04
-9.43
-11.37
-13.86
-16.74
-19.68
-22.32
-24.46
-26.08
-27.34
-28.52
-29.88
-31.63
-33.82
-36.38
-38.99
-41.20
-42.43
-42.12
-39.92
-35.80
-30.12
-23.45
-16.44
-9.53
-2.82
3.84
10.66
17.64
24.45
30.47
35.09
37.89
38.87
38.39
37.01
35.18
33.24
31.32
29.49
27.81
26.35
25.12
24.02
22.89
21.54
19.96
18.25
16.60
15.17
14.04
13.11
12.25
11.27
10.08
8.66
7.11
5.56
4.19
3.11
2.32
1.69
1.01
0.04
-1.40
-3.37
-5.81
-8.62
-11.65
-14.80
-17.95
-21.03
-23.97
-26.77
-29.43
-31.94
-34.16
-35.88
-36.71
-36.29
-34.32
-30.80
-26.03
-20.55
-15.08
-10.28
-6.63
-4.25
-2.97
-2.39
-2.04
-1.56
-0.75
0.39
1.73
3.12
4.42
5.54
6.43
7.10
7.60
7.99
8.31
8.57
8.69
8.53
7.98
7.02
5.81
4.71
4.20
4.73
6.61
9.79
13.90
18.26
22.09
24.66
25.55
24.63
22.13
18.49
14.26
10.00
6.11
2.80
0.07
-2.35
-4.80
-7.61
-10.90
-14.46
-17.73
-19.89
-20.14
-17.95
-13.23
-6.46
1.51
9.66
17.16
23.55
28.75
32.89
36.16
38.61
40.15
40.64
40.00
38.31
35.87
33.16
30.68
28.92
28.19
28.59
30.01
32.21
34.87
37.74
40.64
43.47
46.17
48.66
50.77
52.21
52.60
51.53
48.73
44.27
38.61
32.47
26.64
21.59
17.35
13.53
9.60
5.17
0.19
-5.08
-10.28
-15.16
-19.69
-24.00
-28.23
-32.39
-36.32
-39.78
-42.56
-44.59
-45.93
-46.71
-47.06
-47.00
-46.49
-45.46
-43.92
-42.02
-39.95
-37.91
-35.96
-33.99
-31.75
-28.87
-24.99
-19.84
-13.34
-5.66
2.67
10.88
17.97
23.06
25.51
25.16
22.32
17.62
11.76
5.33
-1.35
-8.06
-14.69
-20.97
-26.57
-31.05
-33.98
-34.99
-33.75
-30.02
-23.71
-14.97
-4.31
7.37
18.98
29.37
37.64
43.24
45.94
45.79
42.96
37.71
30.46
21.75
12.35
3.17
-4.85
-10.82
-14.09
-14.40
-11.94
-7.36
-1.64
4.14
9.01
12.36
13.97
13.99
12.81
10.92
8.77
6.71
4.93
3.46
2.21
1.03
-0.28
-1.84
-3.71
-5.84
-8.10
-10.33
-12.38
-14.12
-15.40
-16.07
-15.88
-14.50
-11.50
-6.46
0.81
10.10
20.67
31.41
41.02
48.44
53.12
55.11
54.98
53.47
51.26
48.79
46.32
44.05
42.34
41.60
42.29
44.63
48.50
53.48
59.00
64.57
69.87
74.73
79.05
82.65
85.33
86.93
87.45
87.09
86.19
85.03
83.69
82.02
79.64
76.06
70.78
63.40
53.80
42.16
29.08
15.45
2.24
-9.76
-20.20
-29.16
-37.06
-44.43
-51.67
-59.01
-66.47
-74.01
-81.54
-89.01
-96.25
-102.89
-108.34
-111.76
-112.36
-109.62
-103.58
-94.96
-85.00
-75.14
-66.55
-59.81
-54.71
-50.48
-46.09
-40.73
-34.12
-26.62
-19.13
-12.72
-8.21
-5.88
-5.37
-5.75
-5.83
-4.43
-0.63
5.99
15.06
25.23
34.38
40.25
41.36
37.94
32.11
27.15
26.14
30.47
39.18
49.32
57.23
60.11
56.89
48.33
36.29
22.76
9.23
-3.50
-15.02
-25.12
-33.52
-40.05
-44.81
-48.32
-51.50
-55.34
-60.53
-67.05
-74.16
-80.61
-85.06
-86.73
-85.59
-82.48
-78.66
-75.40
-73.47
-72.97
-73.41
-74.02
-74.12
-73.30
-71.54
-69.05
-66.13
-62.92
-59.31
-54.84
-48.83
-40.63
-30.00
-17.31
-3.56
9.89
21.80
31.41
38.63
43.89
47.90
51.34
54.68
58.21
62.09
66.30
70.58
74.36
76.79
76.96
74.20
68.37
59.99
50.02
39.63
29.86
21.31
14.16
8.19
2.90
-2.31
-8.00
-14.50
-21.85
-29.71
-37.46
-44.32
-49.58
-52.71
-53.34
-51.28
-46.48
-39.04
-29.35
-18.17
-6.54
4.43
13.73
20.79
25.48
28.10
29.23
29.44
29.21
28.76
28.09
27.07
25.57
23.54
21.06
18.29
15.39
12.47
9.62
6.92
4.52
2.63
1.42
0.96
1.11
1.54
1.88
1.77
1.03
-0.37
-2.32
-4.61
-7.03
-9.28
-11.05
-12.06
-12.14
-11.43
-10.41
-9.79
-10.26
-12.20
-15.49
-19.62
-23.94
-27.94
-31.50
-34.76
-37.87
-40.74
-42.87
-43.49
-41.81
-37.39
-30.25
-20.93
-10.34
0.51
10.64
19.26
25.78
29.84
31.33
30.41
27.47
23.03
17.62
11.64
5.29
-1.34
-8.13
-14.79
-20.85
-25.85
-29.55
-32.03
-33.67
-34.91
-35.90
-36.45
-36.15
-34.72
-32.38
-29.97
-28.73
-29.81
-33.91
-41.08
-50.83
-62.08
-73.21
-82.07
-86.33
-84.25
-75.59
-62.07
-47.12
-34.65
-27.65
-27.04
-31.65
-39.06
-46.81
-53.22
-57.63
-59.98
-60.33
-58.70
-55.22
-50.24
-44.28
-37.66
-30.39
-22.25
-13.23
-4.23
2.77
5.11
0.54
-11.43
-28.77
-47.15
-61.38
-67.24
-63.06
-50.06
-31.54
-11.30
7.73
24.17
37.90
49.42
59.15
67.25
73.86
79.34
84.31
89.27
94.31
98.87
101.94
102.59
100.38
95.60
89.15
82.06
75.06
68.15
60.65
51.59
40.24
26.56
11.43
-3.55
-16.48
-25.72
-30.26
-29.89
-25.17
-17.24
-7.58
2.26
10.93
17.45
21.33
22.57
21.52
18.89
15.60
12.74
11.36
12.15
15.21
19.99
25.40
30.26
33.67
35.23
35.11
33.77
31.77
29.62
27.70
26.35
25.83
26.24
27.49
29.23
30.98
32.25
32.72
32.29
31.13
29.58
27.97
26.59
25.52
24.67
23.85
22.85
21.58
20.05
18.41
16.81
15.34
14.01
12.76
11.45
9.98
8.25
6.21
3.87
1.38
-1.06
-3.13
-4.53
-5.00
-4.40
-2.74
-0.20
2.88
6.16
9.26
11.90
13.92
15.22
15.71
15.28
13.84
11.33
7.90
3.90
-0.22
-4.06
-7.37
-10.08
-12.19
-13.64
-14.32
-14.08
-12.94
-11.11
-9.00
-7.02
-5.50
-4.53
-4.05
-3.94
-4.00
-4.03
-3.87
-3.46
-2.93
-2.58
-2.86
-4.08
-6.27
-9.08
-11.88
-13.99
-14.92
-14.48
-12.72
-9.78
-5.76
-0.62
5.62
12.81
20.42
27.66
33.68
37.86
40.13
40.92
40.98
41.03
41.44
42.20
43.10
43.79
43.87
42.84
40.09
35.06
27.61
18.34
8.64
0.32
-5.02
-6.66
-4.96
-1.20
3.05
6.51
8.62
9.47
9.56
9.35
9.10
8.73
8.08
7.05
5.79
4.64
4.02
4.10
4.75
5.56
6.05
5.94
5.34
4.62
4.21
4.31
4.78
5.23
5.20
4.45
3.03
1.22
-0.65
-2.39
-4.07
-5.93
-8.21
-11.08
-14.47
-18.17
-21.89
-25.33
-28.37
-31.02
-33.41
-35.76
-38.22
-40.85
-43.56
-46.11
-48.14
-49.24
-48.99
-47.09
-43.42
-38.07
-31.37
-23.84
-16.09
-8.75
-2.29
3.03
7.22
10.55
13.32
15.81
18.13
20.22
21.87
22.81
22.77
21.63
19.46
16.63
13.73
11.46
10.35
10.61
12.04
14.12
16.25
17.88
18.70
18.57
17.49
15.56
12.89
9.64
5.95
1.94
-2.33
-6.84
-11.44
-15.90
-19.92
-23.23
-25.74
-27.56
-28.92
-30.00
-30.78
-31.13
-30.85
-29.94
-28.62
-27.32
-26.46
-26.17
-26.21
-25.97
-24.75
-22.01
-17.61
-11.93
-5.68
0.33
5.50
9.60
12.78
15.44
17.99
20.63
23.31
25.73
27.59
28.71
29.12
28.99
28.54
27.79
26.61
24.75
22.07
18.66
14.95
11.51
8.86
7.28
6.67
6.74
7.13
7.56
7.94
8.26
8.59
8.93
9.29
9.66
10.06
10.52
11.03
11.49
11.78
11.75
11.31
10.45
9.25
7.78
6.12
4.36
2.55
0.76
-0.95
-2.54
-3.98
-5.28
-6.47
-7.65
-8.97
-10.60
-12.67
-15.15
-17.85
-20.37
-22.30
-23.28
-23.16
-21.94
-19.79
-16.91
-13.52
-9.90
-6.35
-3.19
-0.64
1.29
2.75
3.97
5.09
6.09
6.80
7.03
6.69
5.89
4.85
3.81
2.92
2.24
1.78
1.49
1.40
1.49
1.73
2.04
2.29
2.39
2.35
2.24
2.19
2.33
2.73
3.41
4.33
5.43
6.60
7.74
8.77
9.62
10.26
10.67
10.80
10.54
9.79
8.49
6.79
5.02
3.61
2.87
2.85
3.28
3.75
3.89
3.53
2.81
1.99
1.37
1.06
1.01
1.09
1.10
0.96
0.65
0.26
-0.07
-0.18
-0.01
0.43
1.03
1.66
2.18
2.57
2.85
3.05
3.19
3.20
3.00
2.60
2.07
1.60
1.35
1.37
1.53
1.62
1.46
1.01
0.43
-0.02
-0.06
0.48
1.65
3.42
5.72
8.51
11.69
14.99
17.96
20.01
20.57
19.33
16.38
12.29
7.94
4.14
1.38
-0.45
-2.03
-4.29
-7.98
-13.23
-19.45
-25.52
-30.31
-33.08
-33.76
-32.79
-30.76
-28.05
-24.68
-20.52
-15.64
-10.52
-5.97
-2.76
-1.20
-0.91
-1.07
-0.74
0.58
2.79
5.25
7.21
8.10
7.87
6.91
5.82
5.08
4.86
4.98
5.08
4.88
4.34
3.68
3.29
3.42
4.14
5.27
6.48
7.47
8.08
8.29
8.23
7.99
7.60
7.05
6.27
5.20
3.83
2.09
-0.16
-3.14
-7.06
-11.97
-17.64
-23.58
-29.19
-34.04
-37.97
-41.09
-43.56
-45.33
-46.10
-45.46
-43.11
-39.10
-33.90
-28.19
-22.62
-17.62
-13.28
-9.52
-6.24
-3.43
-1.19
0.31
0.99
0.89
0.22
-0.71
-1.50
-1.81
-1.41
-0.20
1.75
4.22
6.93
9.57
11.84
13.53
14.56
15.02
15.06
14.93
14.87
15.03
15.41
15.93
16.41
16.64
16.42
15.54
13.86
11.34
8.14
4.67
1.49
-0.79
-1.78
-1.46
-0.18
1.50
3.05
4.22
5.16
6.31
8.14
10.98
14.92
19.86
25.57
31.75
38.07
44.08
49.22
52.85
54.41
53.57
50.37
45.20
38.79
32.01
25.75
20.68
17.16
15.14
14.21
13.68
12.69
10.47
6.49
0.65
-6.61
-14.43
-21.81
-28.05
-32.98
-36.96
-40.56
-44.05
-47.07
-48.74
-48.15
-44.87
-39.34
-32.66
-26.15
-20.76
-16.80
-14.05
-12.14
-10.87
-10.36
-10.84
-12.37
-14.53
-16.56
-17.47
-16.57
-13.72
-9.50
-4.99
-1.41
0.34
-0.03
-2.10
-4.90
-7.22
-8.01
-6.80
-3.96
-0.74
0.93
-1.05
-8.14
-20.52
-36.80
-54.23
-69.54
-79.98
-84.18
-82.45
-76.43
-68.32
-60.10
-52.93
-47.14
-42.41
-38.20
-34.08
-29.79
-25.28
-20.56
-15.63
-10.49
-5.16
0.31
5.80
11.25
16.66
22.15
27.97
34.35
41.43
49.17
57.38
65.64
73.48
80.42
86.01
89.97
92.15
92.63
91.61
89.36
86.10
82.01
77.18
71.71
65.71
59.32
52.74
46.22
40.06
34.59
30.15
26.87
24.61
22.91
21.09
18.56
15.03
10.63
5.73
0.73
-4.16
-8.84
-13.22
-17.11
-20.38
-23.16
-26.08
-30.03
-35.75
-43.21
-51.34
-58.28
-62.12
-61.69
-57.09
-49.59
-40.96
-32.80
-26.04
-20.86
-17.05
-14.33
-12.59
-11.87
-12.24
-13.60
-15.65
-18.01
-20.32
-22.39
-24.17
-25.68
-26.90
-27.69
-27.80
-26.93
-24.87
-21.63
-17.45
-12.79
-8.21
-4.20
-1.04
1.24
2.83
3.99
4.89
5.53
5.77
5.44
4.53
3.26
2.02
1.21
1.06
1.53
2.35
3.19
3.77
4.01
3.99
3.88
3.78
3.70
3.44
2.72
1.21
-1.32
-4.90
-9.34
-14.23
-19.04
-23.24
-26.47
-28.56
-29.60
-29.91
-29.88
-29.96
-30.47
-31.51
-32.93
-34.31
-35.11
-34.85
-33.24
-30.37
-26.63
-22.65
-19.07
-16.39
-14.83
-14.41
-15.02
-16.60
-19.11
-22.54
-26.75
-31.38
-35.80
-39.19
-40.70
-39.66
-35.74
-29.16
-20.58
-10.99
-1.48
7.05
14.04
19.34
23.13
25.77
27.68
29.27
30.88
32.78
35.14
38.05
41.49
45.34
49.32
52.98
55.78
57.14
56.70
54.52
51.16
47.55
44.76
43.51
43.94
45.55
47.46
48.85
49.36
49.22
49.18
50.05
52.33
55.86
59.85
63.18
64.85
64.35
61.90
58.27
54.44
51.16
48.77
47.16
45.87
44.31
41.96
38.64
34.90
32.27
33.27
40.66
56.12
78.94
105.18
128.26
140.68
136.53
113.65
74.59
26.15
-22.66
-63.10
-88.98
-97.95
-91.64
-74.66
-52.97
-32.29
-17.09
-10.13
-12.79
-25.23
-46.32
-73.43
-102.24
-127.39
-143.88
-148.70
-141.97
-126.97
-108.83
-92.59
-81.57
-76.64
-76.67
-79.58
-83.42
-87.01
-89.97
-92.59
-95.45
-99.13
-103.89
-109.28
-113.84
-115.19
-110.54
-97.49
-74.87
-43.07
-4.08
39.20
83.42
125.26
161.52
189.01
204.70
206.22
192.71
165.69
129.17
88.74
49.89
16.21
-11.47
-34.65
-55.62
-75.71
-94.32
-109.15
-117.46
-117.50
-109.20
-93.83
-73.34
-49.78
-25.52
-3.71
11.75
17.11
10.45
-6.92
-30.38
-53.53
-70.78
-79.64
-81.37
-79.71
-78.54
-79.78
-82.72
-84.91
-83.76
-77.76
-66.72
-51.21
-32.04
-10.16
12.93
34.74
52.04
61.85
62.78
56.00
45.00
34.35
27.90
27.37
32.00
39.33
46.49
51.46
53.55
53.18
51.20
48.34
44.92
41.05
36.95
32.97
29.55
26.85
24.60
22.19
18.95
14.62
9.45
4.21
-0.26
-3.42
-5.33
-6.63
-8.19
-10.70
-14.26
-18.34
-22.00
-24.32
-24.89
-23.99
-22.47
-21.39
-21.42
-22.54
-23.74
-23.04
-17.81
-5.43
15.84
45.88
82.25
120.51
155.23
181.54
196.38
199.05
191.06
175.34
155.28
133.90
113.46
95.26
79.68
66.49
55.18
45.39
37.05
30.28
24.90
20.06
14.18
5.48
-7.25
-24.15
-44.19
-65.71
-86.94
-106.11
-121.19
-129.53
-128.00
-113.99
-87.05
-49.99
-8.62
29.99
59.82
77.50
82.52
75.97
59.16
33.16
-0.44
-38.28
-74.83
-103.49
-118.99
-119.43
-106.98
-86.67
-64.18
-43.87
-28.16
-18.19
-14.69
-18.51
-29.90
-47.65
-68.39
-87.23
-99.26
-101.53
-94.13
-79.89
-62.99
-47.07
-34.03
-23.79
-15.16
-6.90
1.47
9.67
16.98
22.94
27.56
31.21
34.32
37.11
39.59
41.67
43.33
44.69
45.87
46.95
47.86
48.51
48.92
49.18
49.48
50.01
50.95
52.48
54.70
57.32
59.34
58.85
53.61
41.96
23.97
1.91
-20.24
-38.29
-49.45
-53.34
-51.79
-47.68
-43.51
-40.60
-39.01
-38.20
-37.62
-36.93
-35.77
-33.49
-29.12
-21.74
-10.98
2.64
17.67
32.19
44.34
52.81
57.08
57.43
54.72
50.10
44.66
39.14
33.85
28.78
23.73
18.55
13.29
8.10
3.24
-1.10
-4.80
-7.76
-9.88
-11.07
-11.29
-10.68
-9.51
-8.16
-7.02
-6.42
-6.53
-7.36
-8.77
-10.52
-12.36
-14.09
-15.64
-17.05
-18.47
-19.97
-21.57
-23.17
-24.69
-26.13
-27.59
-29.17
-30.89
-32.65
-34.15
-35.06
-35.05
-33.90
-31.51
-27.94
-23.37
-18.12
-12.59
-7.20
-2.38
1.54
4.40
6.22
7.25
7.85
8.45
9.33
10.58
12.03
13.42
14.50
15.26
15.93
16.88
18.45
20.79
23.81
27.23
30.60
33.50
35.45
36.13
35.30
32.95
29.29
24.74
19.86
15.18
11.13
7.96
5.74
4.43
4.00
4.52
6.14
9.04
13.25
18.44
23.88
28.59
31.68
32.77
32.14
30.70
29.55
29.50
30.87
33.38
36.48
39.56
42.12
43.71
43.79
41.73
36.98
29.48
19.87
9.63
0.63
-5.42
-7.62
-6.21
-2.55
1.32
3.40
2.38
-2.01
-9.04
-17.27
-25.12
-31.27
-34.83
-35.47
-33.24
-28.60
-22.32
-15.45
-9.22
-4.72
-2.72
-3.50
-7.01
-13.21
-22.32
-34.78
-50.73
-69.28
-88.09
-103.72
-112.72
-113.08
-105.15
-91.60
-76.32
-62.85
-53.10
-47.05
-43.37
-40.42
-37.13
-33.13
-28.45
-23.11
-16.85
-9.41
-0.88
8.06
16.23
22.37
25.70
26.27
24.97
23.13
22.02
22.29
23.78
25.66
26.82
26.51
24.71
22.25
20.49
20.73
23.69
29.14
35.84
42.02
45.93
46.59
44.10
39.48
34.20
29.54
26.15
23.70
21.20
17.42
11.73
4.68
-2.12
-6.30
-5.31
2.79
18.60
41.03
67.18
93.16
115.01
129.27
133.63
128.16
115.73
100.86
87.68
78.11
71.12
64.51
56.40
45.87
33.11
19.02
4.58
-8.06
-17.61
-23.76
-27.30
-30.02
-34.12
-41.19
-51.65
-64.70
-78.63
-91.81
-103.11
-112.16
-119.64
-126.97
-135.94
-148.21
-164.78
-185.24
-207.41
-227.19
-239.11
-237.84
-219.86
-184.87
-136.29
-80.76
-26.27
19.92
53.22
72.49
79.73
78.71
73.59
67.82
63.25
60.52
59.28
58.65
57.45
54.39
48.17
37.88
23.50
5.95
-12.52
-28.67
-39.04
-41.08
-33.99
-19.08
1.07
26.00
54.49
84.98
115.45
142.68
162.02
169.39
161.61
137.89
100.62
54.45
5.47
-40.51
-79.69
-110.80
-134.55
-152.56
-166.24
-176.23
-179.41
-173.37
-156.77
-130.24
-96.46
-59.27
-22.55
10.99
40.07
64.33
83.37
97.09
105.66
109.74
110.54
109.47
107.89
106.67
106.06
105.36
104.03
101.94
99.28
96.41
93.41
89.85
84.83
77.31
66.21
51.29
33.31
13.42
-7.15
-27.78
-48.49
-69.71
-90.27
-110.84
-132.16
-154.44
-176.47
-195.04
-205.06
-201.34
-181.01
-145.73
-102.18
-59.45
-25.67
-4.98
3.41
3.81
1.18
-1.25
-2.87
-4.84
-7.97
-11.63
-13.86
-12.46
-6.29
4.04
16.87
29.67
40.27
47.82
52.92
57.25
62.76
70.74
81.13
92.44
102.19
108.00
108.73
104.92
98.75
93.19
90.85
93.33
101.02
113.41
129.30
146.68
162.38
172.23
172.09
159.32
134.43
101.22
65.60
33.42
8.29
-9.46
-22.11
-32.72
-42.95
-51.98
-57.28
-56.22
-48.28
-35.89
-23.83
-17.42
-20.47
-34.17
-56.22
-82.87
-110.18
-135.57
-158.42
-179.46
-199.24
-216.78
-229.50
-234.47
-230.49
-219.25
-204.86
-191.75
-181.72
-172.14
-156.50
-127.40
-80.58
-17.88
52.80
120.45
175.34
212.74
234.06
245.20
253.27
263.40
277.21
293.12
308.35
321.00
331.04
339.94
349.14
358.60
366.44
369.78
366.40
356.01
340.45
322.78
305.65
290.21
275.74
260.35
242.27
220.68
196.04
169.59
142.51
115.41
88.23
60.66
32.60
4.36
-23.72
-51.70
-80.42
-111.27
-145.58
-183.70
-224.56
-266.10
-305.91
-342.44
-375.59
-406.66
-437.77
-471.15
-508.88
-552.28
-601.23
-653.24
-702.65
-741.08
-759.57
-752.07
-718.45
-665.36
-603.89
-545.05
-495.53
-455.75
-421.22
-386.02
-346.19
-301.20
-253.07
-204.31
-156.26
-109.03
-62.31
-16.19
28.47
70.38
108.93
144.71
179.38
215.45
255.15
299.70
347.95
395.82
437.20
466.26
480.40
481.94
477.07
471.88
468.86
465.13
454.02
429.09
388.14
334.53
275.59
218.75
167.66
121.95
78.99
36.76
-4.36
-41.91
-72.97
-95.61
-105.48
-100.40
-80.77
-49.83
-12.76
25.64
62.37
96.15
126.57
152.93
173.77
187.88
195.03
196.50
194.47
191.30
188.73
187.52
187.12
186.02
182.73
176.50
167.49
156.57
144.59
131.72
119.76
109.18
99.69
91.04
83.24
76.72
72.16
69.99
70.24
72.36
75.21
77.71
79.20
79.66
79.55
79.52
79.86
80.36
80.01
77.40
71.52
62.21
50.17
36.61
22.84
9.34
-4.31
-20.14
-40.27
-65.88
-96.56
-130.53
-165.50
-199.07
-230.44
-260.01
-290.83
-326.00
-367.83
-417.48
-474.70
-537.59
-601.14
-658.91
-702.92
-728.61
-733.93
-720.37
-692.66
-656.93
-618.99
-581.40
-546.12
-513.61
-487.63
-471.20
-465.69
-469.92
-480.16
-491.89
-499.89
-503.35
-479.65
-418.68
-322.80
-206.63
-89.89
12.28
82.98
129.10
159.52
181.05
194.29
199.37
199.22
197.31
198.02
204.99
221.51
246.34
276.34
304.92
326.61
338.18
339.06
330.90
316.17
298.33
278.45
257.06
232.93
205.70
176.16
146.13
118.10
94.20
76.28
63.96
55.91
49.56
42.55
33.22
20.60
4.54
-14.66
-36.13
-59.42
-83.91
-109.02
-133.83
-157.18
-177.82
-194.51
-206.27
-212.37
-212.74
-207.42
-196.69
-181.16
-161.73
-139.56
-115.81
-91.57
-67.67
-44.77
-23.04
-2.55
16.67
34.50
50.80
65.44
78.39
89.75
99.63
108.85
118.07
127.64
137.40
146.85
155.36
162.51
168.15
172.32
177.09
184.26
194.82
208.51
223.98
239.50
253.79
266.26
276.78
289.40
307.62
333.28
365.64
401.82
438.26
472.30
502.69
529.07
557.65
593.59
639.23
692.82
749.38
803.15
850.19
889.20
920.73
954.31
998.39
1058.08
1133.35
1219.83
1311.78
1405.06
1498.18
1538.41
1487.79
1326.94
1065.56
738.39
387.59
45.83
-268.93
-548.82
-789.79
-979.90
-1109.56
-1176.25
-1187.89
-1161.53
-1117.33
-1071.85
-1034.08
-1005.37
-975.31
-932.29
-868.31
-782.64
-682.23
-578.72
-484.38
-408.68
-357.36
-328.43
-317.22
-318.04
-325.41
-334.45
-340.63
-340.08
-330.70
-313.14
-288.86
-260.91
-232.48
-206.24
-184.00
-166.65
-154.07
-145.03
-137.03
-125.89
-107.58
-79.74
-43.15
-1.92
38.43
73.06
99.65
118.50
130.97
137.08
134.55
119.81
90.76
49.25
1.49
-43.69
-77.92
-96.00
-96.97
-83.63
-61.30
-35.94
-12.94
3.81
12.67
14.43
11.79
8.07
5.86
5.88
7.65
10.52
14.24
19.05
25.07
31.56
36.84
39.12
36.94
30.22
20.15
8.34
-3.89
-15.77
-26.96
-37.43
-47.09
-56.32
-64.81
-71.76
-76.12
-77.08
-74.51
-69.18
-62.60
-52.60
-38.94
-21.39
-0.16
23.61
47.66
69.02
85.08
94.59
98.11
97.01
93.39
89.13
85.20
81.59
77.27
70.36
58.61
40.48
15.74
-13.16
-41.69
-64.93
-79.74
-86.15
-87.11
-86.88
-88.63
-93.37
-99.43
-104.02
-105.02
-102.03
-96.11
-88.38
-79.04
-66.87
-50.16
-27.71
0.19
31.67
63.83
93.57
118.34
136.47
147.27
151.08
149.24
143.93
137.33
130.60
123.14
112.91
97.67
76.63
51.33
25.27
2.35
-14.98
-26.60
-34.35
-40.51
-46.28
-51.10
-53.37
-51.80
-46.54
-39.43
-32.92
-28.66
-26.54
-24.89
-21.54
-15.15
-5.96
4.35
13.66
20.37
24.16
25.66
25.86
25.21
23.28
19.08
11.73
1.39
-10.42
-21.16
-28.30
-30.35
-27.72
-22.47
-17.29
-14.22
-13.75
-14.94
-16.17
-16.36
-15.47
-14.26
-13.68
-14.02
-14.76
-14.91
-13.68
-10.97
-7.45
-4.33
-2.78
-3.57
-6.75
-11.61
-16.92
-21.29
-23.78
-24.14
-23.00
-21.41
-20.39
-20.45
-21.51
-23.10
-24.71
-26.04
-27.09
-27.86
-28.29
-28.28
-27.86
-27.38
-27.56
-29.12
-32.44
-37.26
-42.71
-47.61
-50.99
-52.57
-52.84
-52.91
-53.93
-56.57
-60.72
-65.56
-69.90
-72.73
-73.68
-73.03
-71.47
-69.66
-67.93
-66.33
-64.81
-63.35
-61.90
-60.40
-58.62
-56.30
-53.41
-50.52
-48.84
-49.67
-53.74
-60.83
-70.29
-81.22
-92.90
-104.79
-116.68
-128.31
-139.07
-147.44
-151.02
-147.47
-134.64
-110.71
-73.96
-23.83
37.79
105.41
170.04
221.14
248.99
248.52
221.65
177.73
129.75
89.84
65.82
60.19
71.18
93.30
119.33
141.40
153.03
148.87
126.14
86.09
34.28
-14.24
-42.84
-41.75
-15.08
24.95
65.03
97.07
119.00
132.88
142.32
148.22
151.62
151.77
148.29
138.68
121.35
96.96
68.44
39.04
9.43
-18.38
-44.95
-71.03
-100.90
-138.37
-184.68
-238.17
-295.13
-351.12
-400.34
-436.57
-432.14
-373.77
-271.53
-154.05
-49.98
25.80
72.94
100.03
117.13
131.40
141.42
142.84
133.62
115.72
94.69
76.85
67.20
67.81
78.19
93.23
107.60
118.36
123.10
119.63
106.32
84.06
57.90
37.31
31.02
44.93
79.19
125.32
169.45
197.80
202.24
182.65
146.52
102.64
57.44
21.58
0.84
-4.83
1.13
15.25
35.04
59.52
85.11
107.18
121.85
126.00
119.43
104.95
87.03
68.89
53.01
37.09
17.34
-4.25
-26.56
-47.68
-65.05
-75.77
-85.18
-91.55
-96.19
-101.40
-109.42
-123.31
-145.82
-179.89
-219.83
-263.59
-296.03
-308.53
-299.02
-272.10
-236.71
-200.91
-169.40
-143.60
-124.23
-110.17
-102.54
-101.21
-103.18
-102.96
-93.81
-70.75
-33.20
13.33
60.76
99.43
123.45
132.48
130.56
123.36
115.23
108.08
101.46
95.13
88.59
82.29
77.07
73.27
70.44
67.61
63.77
58.41
52.18
45.83
40.19
35.71
32.31
29.46
26.49
22.92
18.75
14.42
10.42
7.00
4.04
1.13
-2.16
-6.04
-10.34
-14.55
-18.13
-20.68
-22.20
-23.08
-23.82
-24.78
-25.93
-26.73
-25.90
-21.76
-12.46
2.59
21.52
39.68
50.80
49.28
32.58
2.48
-35.26
-72.52
-101.14
-114.66
-109.49
-85.55
-46.19
2.24
51.63
93.92
123.23
137.36
138.06
129.97
118.58
108.28
101.48
98.62
98.76
100.35
101.93
102.50
101.78
100.48
100.06
102.50
109.37
120.52
132.96
141.33
139.33
122.44
90.29
47.38
1.64
-38.52
-67.13
-82.39
-85.96
-81.29
-71.86
-60.35
-48.66
-38.29
-30.55
-26.26
-25.71
-28.37
-33.42
-40.26
-48.85
-59.58
-72.92
-89.34
-107.25
-125.88
-144.93
-164.59
-185.52
-208.87
-236.41
-269.93
-310.23
-355.71
-401.75
-440.91
-465.25
-469.30
-452.46
-419.34
-377.79
-335.79
-298.67
-268.45
-244.43
-224.97
-208.82
-195.14
-182.90
-170.18
-154.33
-132.99
-105.35
-72.49
-36.70
-0.70
34.00
67.62
102.03
139.95
183.83
234.83
292.01
352.16
409.98
459.34
494.96
514.19
518.09
511.27
500.58
492.62
491.00
494.52
497.09
489.66
463.49
413.33
338.91
244.49
136.83
23.37
-88.70
-192.18
-279.43
-342.97
-377.01
-380.00
-355.28
-310.27
-253.65
-192.48
-130.94
-70.96
-13.96
38.18
82.71
116.86
138.98
149.45
150.76
146.94
142.51
141.17
144.54
151.65
159.56
164.66
164.46
158.56
148.59
137.10
126.27
117.18
110.02
104.83
102.02
102.46
106.74
114.45
124.02
132.69
137.46
136.05
127.93
114.38
97.74
79.90
60.88
38.23
8.24
-31.67
-80.45
-132.39
-178.41
-209.47
-220.17
-211.15
-188.69
-162.05
-139.95
-128.06
-127.95
-137.81
-153.35
-168.72
-177.49
-173.86
-154.51
-120.05
-75.41
-28.31
13.48
44.54
62.94
69.64
67.02
57.09
40.78
18.45
-8.96
-38.65
-65.38
-82.02
-81.65
-60.48
-20.46
29.71
76.36
105.11
106.00
77.94
29.88
-21.79
-58.64
-66.81
-41.84
9.89
73.71
132.17
171.49
185.35
175.27
147.61
109.78
67.16
22.42
-23.17
-68.08
-109.91
-147.51
-182.36
-218.12
-257.92
-301.18
-341.76
-369.36
-373.45
-346.46
-287.42
-202.08
-101.08
2.50
95.85
169.20
218.16
244.82
257.88
267.79
282.04
301.79
321.91
334.60
334.28
320.86
291.93
250.20
199.99
145.54
90.46
38.03
-8.39
-45.70
-72.22
-88.40
-95.69
-96.91
-95.28
-93.33
-92.14
-91.56
-90.63
-88.56
-85.21
-80.37
-74.62
-68.87
-63.95
-60.07
-56.84
-53.63
-49.89
-45.53
-40.36
-34.63
-28.81
-23.40
-18.53
-14.03
-9.68
-5.25
-0.65
4.28
9.51
14.95
20.34
25.69
31.11
36.43
41.46
45.87
49.33
51.40
51.77
49.65
44.70
36.86
26.02
12.33
-3.78
-21.60
-40.17
-57.56
-72.82
-85.76
-94.85
-99.37
-98.91
-93.52
-83.66
-70.25
-54.54
-38.22
-22.46
-8.29
2.95
10.44
13.94
13.71
10.53
5.38
-1.03
-7.01
-11.25
-13.44
-13.25
-10.54
-5.29
2.33
11.93
22.17
32.98
43.66
52.47
57.94
58.77
53.96
42.83
24.91
-1.08
-34.26
-68.85
-101.74
-130.78
-154.70
-172.72
-184.39
-189.45
-195.43
-200.78
-203.11
-201.01
-193.36
-179.65
-159.61
-133.58
-94.53
-44.87
11.25
68.11
120.40
164.77
199.78
225.88
244.26
256.04
260.76
259.60
253.36
242.64
229.48
213.72
195.48
174.69
150.77
121.70
86.96
46.57
3.73
-37.97
-75.36
-105.89
-128.22
-142.60
-151.14
-155.69
-158.06
-159.81
-162.51
-167.13
-172.83
-176.62
-173.84
-160.11
-133.04
-94.38
-49.95
-8.00
24.30
43.76
51.61
51.97
49.17
45.92
42.85
39.48
35.46
31.37
28.53
27.96
29.52
32.01
33.75
33.40
30.70
26.38
21.88
18.52
16.95
16.90
17.37
17.23
15.66
12.57
8.48
4.27
0.61
-2.32
-4.85
-7.50
-10.71
-14.63
-19.05
-23.95
-28.89
-33.85
-39.17
-45.35
-52.51
-60.33
-68.18
-75.38
-81.61
-87.14
-92.90
-100.07
-109.51
-121.09
-133.66
-145.54
-155.00
-160.88
-162.99
-162.01
-158.53
-152.64
-143.43
-128.41
-104.86
-70.76
-25.31
30.84
95.29
163.56
228.32
281.13
314.43
324.17
311.87
284.57
252.27
224.03
205.02
194.51
188.73
183.85
178.24
172.73
168.88
167.15
165.66
160.77
148.68
127.86
98.17
61.02
18.86
-25.33
-68.03
-105.32
-133.42
-150.47
-157.36
-157.69
-156.16
-156.65
-160.93
-168.89
-179.10
-190.51
-202.99
-216.54
-230.56
-243.01
-251.04
-252.27
-245.93
-233.25
-216.39
-197.43
-176.29
-151.21
-119.58
-79.19
-29.19
29.44
93.80
158.28
215.75
258.47
279.77
276.70
251.70
212.51
169.59
132.84
106.98
91.79
83.67
78.32
73.16
68.00
63.90
61.53
60.08
57.72
52.93
45.48
36.55
28.09
21.98
18.94
18.35
18.61
17.95
15.36
10.92
5.60
0.79
-2.36
-3.47
-3.00
-1.97
-1.47
-2.12
-3.88
-6.18
-8.25
-9.43
-9.51
-8.69
-7.54
-6.62
-6.29
-6.56
-7.17
-7.75
-7.96
-7.65
-6.89
-5.90
-4.95
-4.22
-3.78
-3.57
-3.45
-3.26
-2.92
-2.37
-1.69
-0.97
-0.33
0.14
0.47
0.78
1.24
2.02
3.20
4.68
6.20
7.47
8.30
8.69
8.94
9.51
10.76
12.91
15.73
18.63
20.96
22.28
22.63
22.53
22.85
24.41
27.54
31.89
36.48
40.15
42.18
42.52
41.82
41.19
41.32
42.30
43.20
42.49
38.42
29.72
15.68
-3.90
-28.39
-55.80
-82.39
-102.65
-111.93
-107.90
-92.18
-69.96
-48.17
-32.36
-24.76
-24.06
-26.66
-29.50
-31.19
-32.17
-33.54
-35.84
-38.40
-39.99
-39.78
-37.90
-35.61
-34.39
-35.43
-38.79
-43.62
-48.51
-52.29
-54.46
-55.37
-56.05
-57.62
-60.81
-65.67
-71.65
-77.81
-83.34
-87.82
-91.20
-93.67
-95.42
-96.21
-95.40
-92.16
-85.20
-73.65
-57.19
-36.19
-11.57
15.37
43.21
70.55
95.54
117.29
135.23
149.04
158.71
164.52
167.00
166.87
164.90
162.37
159.57
156.86
154.40
152.13
149.85
147.23
144.35
140.30
134.37
126.06
115.09
101.36
85.01
66.46
46.32
24.86
3.61
-16.34
-34.13
-49.10
-60.86
-69.31
-74.58
-77.05
-77.34
-75.89
-73.28
-70.00
-66.40
-62.69
-59.03
-55.48
-52.06
-48.79
-45.55
-42.38
-39.29
-36.31
-33.41
-30.62
-27.94
-25.40
-22.99
-20.68
-18.54
-16.57
-14.79
-13.18
-11.74
-10.50
-9.44
-8.56
-7.78
-7.10
-6.47
-5.90
-5.39
-5.00
-4.81
-4.89
-5.25
-5.80
-6.50
-7.29
-8.14
-9.03
-10.08
-11.39
-13.04
-15.05
-17.33
-19.73
-22.17
-24.57
-26.97
-29.58
-32.67
-36.46
-40.96
-45.94
-51.06
-55.96
-60.37
-64.32
-67.99
-71.62
-75.15
-78.12
-79.49
-78.04
-72.87
-64.01
-52.27
-39.50
-28.08
-20.17
-17.02
-18.53
-23.40
-30.11
-37.08
-43.25
-48.43
-52.26
-54.10
-52.62
-46.02
-32.61
-11.58
17.16
52.68
93.11
135.35
174.56
204.48
218.72
213.19
187.34
147.43
103.59
66.10
41.41
30.41
29.34
32.68
35.85
36.80
35.70
32.87
27.91
20.16
8.71
-6.15
-22.56
-37.72
-48.90
-54.43
-54.19
-49.55
-42.57
-35.11
-28.11
-21.57
-14.94
-7.64
0.42
8.61
15.97
21.27
23.76
23.58
21.51
18.69
16.15
14.53
13.82
13.67
13.48
12.77
11.46
9.75
8.01
6.58
5.64
5.18
4.99
4.81
4.47
3.92
3.22
2.46
1.73
1.09
0.57
0.13
-0.26
-0.61
-0.93
-1.23
-1.50
-1.75
-1.97
-2.16
-2.32
-2.48
-2.61
-2.74
-2.84
-2.93
-3.00
-3.05
-3.07
-3.07
-3.06
-3.03
-3.00
-2.95
-2.88
-2.79
-2.68
-2.56
-2.46
-2.40
-2.40
-2.46
-2.54
-2.58
-2.55
-2.42
-2.22
-2.01
-1.85
-1.78
-1.79
-1.86
-1.89
-1.84
-1.67
-1.41
-1.16
-1.03
-1.10
-1.34
-1.66
-1.88
-1.84
-1.48
-0.91
-0.36
-0.12
-0.38
-1.09
-1.98
-2.64
-2.66
-1.90
-0.60
0.69
1.37
1.04
-0.26
-1.97
-3.26
-3.39
-2.04
0.33
2.79
4.27
4.07
2.26
-0.27
-2.24
-2.63
-0.90
2.45
6.42
9.95
12.18
12.45
10.29
5.68
-0.38
-5.39
-5.90
1.07
16.35
37.44
58.87
74.31
79.28
72.50
57.27
38.41
20.26
5.02
-7.22
-17.24
-25.57
-31.74
-34.93
-34.64
-31.69
-27.67
-24.30
-22.86
-23.46
-25.24
-26.94
-27.44
-26.21
-23.69
-20.86
-18.78
-18.13
-18.88
-20.49
-22.09
-23.02
-22.94
-22.14
-21.18
-20.67
-20.99
-22.13
-23.81
-25.60
-27.13
-28.27
-29.16
-30.06
-31.28
-33.01
-35.26
-37.91
-40.70
-43.34
-45.50
-46.88
-47.12
-45.90
-42.96
-38.00
-30.98
-22.08
-11.87
-1.05
9.40
18.61
25.67
29.97
31.23
29.58
25.55
19.92
13.73
7.94
3.51
1.04
0.82
2.76
6.48
11.31
16.45
21.14
24.66
26.51
26.39
24.23
20.13
14.47
7.69
0.15
-7.75
-15.76
-23.61
-31.13
-38.27
-45.07
-51.37
-57.14
-62.48
-67.48
-72.27
-76.98
-81.64
-86.36
-91.20
-95.76
-99.78
-103.18
-105.88
-107.93
-109.44
-110.60
-111.82
-113.66
-116.03
-119.11
-123.03
-127.73
-132.82
-137.50
-140.47
-139.90
-138.25
-135.91
-133.02
-129.69
-125.96
-121.76
-116.95
-111.29
-104.79
-97.70
-89.95
-81.92
-74.13
-66.92
-60.26
-53.73
-46.63
-38.46
-29.18
-18.79
-7.97
2.40
11.63
19.53
26.44
33.08
40.30
48.78
59.28
