1679644452.00
64.000000
-0.00
-0.00
-0.00
-0.00
-0.00
-0.00
-0.00
-0.00
-0.00
-0.00
0.00
0.01
0.01
-0.00
-0.03
-0.05
-0.05
0.00
0.13
0.36
0.66
1.01
1.37
1.72
2.06
2.40
2.79
3.24
3.80
4.42
5.06
5.66
6.20
6.68
7.15
7.68
8.31
9.14
10.09
11.04
11.88
12.56
13.14
13.76
14.65
15.96
17.91
20.32
22.90
25.38
27.58
29.57
31.68
34.32
37.81
42.54
48.15
54.10
59.83
64.97
69.58
74.14
79.34
85.71
93.76
103.00
112.62
121.73
129.77
136.75
143.30
150.75
157.77
166.64
177.95
191.79
206.97
220.57
228.25
225.36
208.53
176.87
132.76
80.05
23.07
-34.94
-92.44
-149.16
-205.23
-260.37
-313.74
-363.87
-409.83
-450.91
-486.50
-515.74
-537.23
-549.22
-549.96
-538.37
-514.21
-478.67
-433.88
-382.45
-327.02
-269.84
-212.63
-156.66
-102.95
-52.37
-5.90
35.58
71.43
101.35
125.50
144.38
158.69
169.15
176.37
180.75
182.57
182.07
179.51
175.23
169.65
163.18
156.15
148.81
141.30
133.69
126.02
118.33
110.69
103.16
95.80
88.68
81.83
75.25
68.95
62.95
57.25
51.86
46.78
42.03
37.59
33.45
29.61
26.07
22.81
19.83
17.11
14.67
12.48
10.54
8.83
7.35
6.07
4.97
4.05
3.27
2.62
2.09
1.65
1.30
1.01
0.79
0.61
0.48
0.37
0.29
0.24
0.20
0.18
0.17
0.17
0.19
0.21
0.23
0.27
0.30
0.35
0.39
0.43
0.48
0.53
0.58
0.63
0.68
0.74
0.80
0.86
0.93
1.01
1.10
1.20
1.31
1.43
1.57
1.73
1.91
2.10
2.32
2.57
2.83
3.13
3.45
3.81
4.20
4.62
5.08
5.58
6.11
6.68
7.29
7.95
8.65
9.39
10.18
11.01
11.89
12.81
13.78
14.81
15.90
17.06
18.28
19.54
20.81
22.06
23.19
24.12
24.71
24.86
24.43
23.32
21.49
18.91
15.64
11.73
7.37
2.75
-1.89
-6.33
-10.37
-13.82
-16.59
-18.64
-19.95
-20.54
-20.48
-19.83
-18.67
-17.12
-15.33
-13.44
-11.56
-9.78
-8.14
-6.63
-5.22
-3.88
-2.55
-1.23
0.03
1.19
2.25
3.30
4.34
5.49
6.86
8.47
10.25
11.99
13.47
14.62
15.57
16.36
17.26
18.54
20.29
22.37
24.34
25.74
26.34
26.37
25.89
25.42
25.48
26.25
27.44
28.29
27.99
26.01
22.50
17.49
11.59
5.43
-0.85
-7.74
-16.48
-28.98
-47.94
-71.60
-100.01
-132.46
-166.71
-198.78
-223.48
-236.04
-233.83
-217.50
-190.77
-159.68
-129.62
-103.85
-83.25
-67.02
-54.01
-43.51
-35.42
-29.61
-26.10
-24.22
-23.11
-22.30
-21.85
-22.19
-23.61
-25.66
-27.05
-26.30
-21.85
-12.80
0.67
17.28
34.97
51.54
65.23
75.12
81.01
83.38
83.02
80.66
76.82
71.87
66.17
60.20
54.52
49.58
45.55
42.35
39.65
37.04
34.20
30.90
27.03
22.50
17.29
11.43
5.06
-1.66
-8.55
-15.58
-22.87
-30.72
-39.47
-49.15
-59.23
-68.29
-74.09
-74.01
-65.78
-48.30
-22.30
9.66
43.63
75.19
100.44
116.79
123.30
120.72
111.04
96.89
80.93
65.28
51.27
39.48
30.00
22.72
17.51
14.19
12.40
11.52
10.75
9.32
6.81
3.21
-1.10
-5.68
-10.24
-14.79
-19.56
-24.83
-30.61
-36.58
-42.05
-46.20
-48.27
-47.76
-44.48
-38.54
-30.19
-19.73
-7.48
6.24
21.04
36.37
51.56
65.84
78.37
88.31
94.87
97.34
95.29
88.67
78.00
64.36
49.28
34.42
21.25
10.70
3.11
-1.85
-4.83
-6.55
-7.53
-7.92
-7.56
-6.15
-3.53
0.13
4.30
8.20
10.96
11.83
10.22
5.76
-1.53
-11.08
-21.62
-31.22
-37.67
-39.08
-34.52
-24.48
-10.72
4.16
17.60
27.75
33.90
36.47
36.60
35.67
34.78
34.64
35.41
36.96
38.97
41.05
42.86
44.10
44.64
44.48
43.85
43.02
42.21
41.45
40.46
38.72
35.69
30.97
24.50
16.63
7.99
-0.67
-8.73
-15.98
-22.65
-29.34
-36.73
-45.20
-54.50
-63.66
-71.23
-75.59
-75.52
-70.52
-60.93
-47.78
-32.59
-16.97
-2.39
9.98
19.38
25.44
28.22
28.18
26.07
22.85
19.50
16.81
15.31
15.14
16.09
17.69
19.39
20.69
21.32
21.25
20.68
19.86
18.91
17.70
15.89
13.07
9.11
4.23
-0.94
-5.73
-9.76
-13.17
-16.49
-20.38
-25.14
-30.42
-35.30
-38.53
-39.05
-36.29
-30.41
-22.15
-12.61
-2.88
6.14
13.92
20.25
25.11
28.44
30.08
29.74
27.26
22.74
16.80
10.49
5.05
1.47
0.23
1.00
2.90
4.77
5.69
5.21
3.40
0.64
-2.70
-6.47
-10.72
-15.60
-21.04
-26.76
-32.31
-37.30
-41.58
-45.48
-49.78
-55.32
-62.47
-70.69
-78.52
-84.02
-85.50
-82.05
-74.03
-63.09
-51.74
-42.65
-38.05
-39.29
-46.54
-58.38
-71.34
-80.56
-81.09
-69.58
-45.60
-12.14
24.98
58.69
82.65
93.72
91.65
78.13
55.79
27.94
-1.40
-27.89
-47.70
-58.47
-58.38
-48.24
-32.46
-18.08
-12.09
-18.54
-37.36
-64.78
-94.75
-118.19
-127.94
-122.34
-105.59
-84.64
-65.08
-49.04
-35.06
-19.26
6.64
49.97
112.94
191.62
278.13
363.73
440.40
501.61
520.90
481.06
387.49
268.31
155.46
67.75
9.25
-24.55
-41.26
-48.48
-48.73
-41.72
-29.72
-17.12
-8.29
-5.41
-8.47
-16.32
-27.33
-37.13
-41.71
-40.06
-34.37
-28.27
-24.52
-23.62
-23.81
-21.98
-13.73
2.97
25.47
47.43
62.40
67.58
65.11
60.28
58.16
61.73
70.14
79.55
85.78
86.65
82.65
75.52
66.42
55.42
42.88
30.70
22.84
24.28
38.97
67.56
106.35
148.14
184.63
209.15
218.54
213.50
197.68
176.15
154.21
136.72
127.63
129.30
141.52
160.70
180.24
192.11
189.52
169.40
133.51
87.75
39.81
-3.50
-38.11
-63.09
-79.81
-90.63
-97.87
-103.44
-108.77
-114.96
-122.69
-132.10
-142.77
-154.07
-165.47
-176.85
-188.55
-201.15
-215.15
-230.64
-247.28
-264.51
-281.86
-299.47
-318.42
-340.78
-368.95
-404.51
-446.83
-492.19
-534.11
-564.83
-577.67
-569.24
-540.74
-497.65
-448.17
-400.58
-360.80
-330.98
-309.42
-291.98
-274.16
-252.96
-227.78
-199.97
-171.68
-144.52
-118.87
-94.14
-69.54
-44.65
-19.50
5.69
30.49
54.13
75.02
90.90
99.50
99.71
92.31
79.74
65.09
50.86
38.29
27.86
20.50
18.59
25.71
45.23
78.19
121.85
169.85
213.82
245.85
260.44
255.30
231.21
191.34
140.89
86.81
37.20
-0.11
-19.79
-20.98
-7.72
12.73
33.06
48.76
59.30
67.01
74.70
83.66
93.10
101.10
106.34
109.00
110.59
112.89
116.80
121.91
126.83
130.09
130.99
129.96
128.31
127.66
129.20
133.16
138.45
142.98
144.33
140.72
131.73
118.52
103.49
89.35
78.19
70.65
65.89
61.94
56.57
48.22
36.67
23.05
9.35
-2.45
-11.31
-17.60
-22.87
-29.06
-37.43
-47.68
-58.04
-65.88
-69.00
-66.53
-59.11
-48.35
-35.98
-23.14
-10.36
2.11
14.01
24.99
34.92
44.00
52.74
61.49
70.12
77.92
83.87
87.20
87.68
85.78
82.29
78.09
74.03
70.85
69.16
69.14
70.32
71.53
71.30
68.52
62.97
55.45
47.36
40.10
34.51
30.76
28.49
27.23
26.58
26.25
25.97
25.34
23.76
20.50
14.90
6.62
-3.95
-15.35
-25.00
-29.88
-27.62
-17.98
-3.49
11.09
20.55
21.41
13.29
-1.22
-18.07
-33.61
-45.90
-54.73
-60.68
-64.12
-64.79
-62.30
-56.93
-50.16
-44.22
-41.10
-41.53
-44.59
-48.26
-50.45
-50.10
-47.70
-44.92
-43.79
-45.78
-51.22
-59.29
-68.54
-77.38
-84.58
-89.35
-91.32
-90.39
-86.72
-80.67
-72.78
-63.66
-53.88
-43.90
-34.09
-24.81
-16.47
-9.58
-4.65
-1.95
-1.28
-1.81
-2.25
-1.21
2.33
8.53
16.70
25.53
33.70
40.25
44.89
47.92
49.89
51.46
53.07
55.00
57.24
59.50
61.13
61.23
58.84
53.40
45.09
34.97
24.87
16.90
12.73
13.02
17.22
23.73
30.40
35.24
36.97
35.34
31.11
25.76
20.99
18.20
17.90
19.54
21.71
22.67
21.09
16.66
10.21
3.29
-2.43
-5.91
-7.03
-6.43
-5.14
-4.07
-3.76
-4.31
-5.59
-7.35
-9.42
-11.70
-14.08
-16.44
-18.64
-20.55
-22.21
-23.88
-26.00
-29.00
-33.08
-37.93
-42.72
-46.13
-46.75
-43.46
-35.80
-24.09
-9.31
7.06
23.26
37.24
46.92
50.66
47.93
39.93
29.64
20.91
17.09
19.53
27.18
37.11
46.06
51.81
53.86
53.02
50.53
47.17
42.96
37.45
30.18
21.03
10.28
-1.52
-13.74
-25.81
-37.32
-47.93
-57.37
-65.38
-71.59
-75.48
-76.43
-73.90
-67.82
-58.85
-48.43
-38.44
-30.53
-25.55
-23.27
-22.61
-22.23
-21.07
-18.59
-14.69
-9.40
-2.71
5.25
13.89
22.03
28.15
30.96
30.04
26.11
20.71
15.58
11.95
10.16
9.76
9.87
9.63
8.51
6.42
3.50
0.05
-3.75
-7.82
-12.16
-16.73
-21.26
-25.24
-27.97
-28.68
-26.81
-22.19
-15.23
-6.90
1.49
8.64
13.71
16.58
17.89
18.72
19.96
21.94
24.24
25.95
26.23
24.78
22.03
18.85
16.15
14.44
13.73
13.75
14.10
14.49
14.69
14.49
13.70
12.36
10.77
9.49
9.02
9.53
10.64
11.50
11.19
9.13
5.41
0.79
-3.60
-6.64
-7.57
-6.26
-3.17
0.74
4.36
6.93
8.25
8.83
9.58
11.34
14.34
18.06
21.39
23.21
23.07
21.38
19.31
18.15
18.73
21.00
24.20
27.29
29.43
30.21
29.73
28.22
25.92
22.82
18.91
14.32
9.54
5.36
2.60
1.63
2.04
2.50
1.15
-3.70
-12.74
-25.19
-38.83
-50.74
-58.33
-60.28
-56.92
-49.96
-41.69
-34.16
-28.50
-24.91
-22.88
-21.67
-20.59
-19.14
-16.99
-14.01
-10.35
-6.54
-3.38
-1.66
-1.81
-3.58
-6.05
-8.00
-8.39
-6.80
-3.49
0.78
5.07
8.58
10.73
11.15
9.70
6.51
2.04
-2.94
-7.55
-11.14
-13.41
-14.62
-15.38
-16.44
-18.37
-21.36
-25.00
-28.45
-30.59
-30.43
-27.55
-22.28
-15.71
-9.17
-3.75
0.05
2.42
3.85
4.76
5.20
4.94
3.76
1.74
-0.67
-2.87
-4.30
-4.74
-4.27
-3.19
-1.79
-0.26
1.29
2.77
4.04
4.90
5.16
4.67
3.42
1.52
-0.79
-3.25
-5.59
-7.62
-9.28
-10.70
-12.17
-14.03
-16.63
-20.09
-24.27
-28.62
-32.31
-34.41
-34.18
-31.34
-26.15
-19.33
-11.89
-4.72
1.51
6.44
9.99
12.15
13.06
12.86
11.80
10.21
8.44
6.87
5.77
5.29
5.43
6.04
6.85
7.57
7.98
8.01
7.77
7.47
7.25
7.08
6.78
6.09
4.83
3.07
1.09
-0.77
-2.32
-3.62
-4.97
-6.75
-9.26
-12.61
-16.66
-21.07
-25.29
-28.65
-30.39
-29.90
-26.91
-21.67
-14.93
-7.70
-0.94
4.78
9.32
12.80
15.30
16.79
17.13
16.26
14.42
12.19
10.35
9.60
10.25
12.13
14.66
17.11
18.91
19.83
19.97
19.68
19.30
19.05
18.92
18.66
17.91
16.28
13.61
10.00
5.87
1.81
-1.65
-4.24
-6.15
-7.91
-10.14
-13.30
-17.40
-21.98
-26.23
-29.21
-30.09
-28.41
-24.15
-17.72
-9.95
-1.72
6.11
12.90
18.25
21.93
23.77
23.80
22.32
19.94
17.55
16.04
15.95
17.25
19.30
21.09
21.52
19.84
15.88
10.16
3.82
-1.65
-4.92
-5.30
-3.10
0.47
3.76
5.36
4.62
1.78
-2.40
-7.07
-11.68
-15.94
-19.67
-22.73
-25.02
-26.68
-28.16
-30.03
-32.62
-35.70
-38.35
-39.34
-37.59
-32.77
-25.33
-16.43
-7.42
0.60
7.06
11.91
15.48
18.20
20.35
22.01
23.12
23.66
23.72
23.61
23.62
23.92
24.48
25.05
25.38
25.36
25.10
24.89
25.03
25.64
26.52
27.19
27.11
25.92
23.59
20.38
16.66
12.74
8.74
4.72
0.78
-2.84
-5.91
-8.35
-10.29
-12.13
-14.21
-16.56
-18.77
-20.13
-19.94
-17.87
-14.07
-9.10
-3.64
1.70
6.53
10.60
13.72
15.79
16.91
17.36
17.60
18.01
18.64
19.06
18.61
16.76
13.59
9.89
6.84
5.52
6.28
8.53
10.99
12.30
11.51
8.48
3.74
-1.92
-7.80
-13.44
-18.58
-23.04
-26.66
-29.49
-31.99
-34.97
-39.28
-45.24
-52.26
-58.87
-63.26
-64.06
-61.04
-55.17
-48.28
-42.11
-37.61
-34.64
-32.21
-29.18
-24.91
-19.60
-14.17
-9.71
-6.99
-6.05
-6.26
-6.76
-6.83
-6.28
-5.36
-4.42
-3.61
-2.65
-1.10
1.35
4.40
7.22
8.80
8.59
6.94
4.99
4.03
4.74
6.69
8.60
8.95
6.94
2.78
-2.58
-8.18
-13.74
-19.58
-26.21
-33.56
-40.52
-45.29
-46.13
-42.31
-34.47
-24.31
-13.78
-4.27
3.75
10.57
16.60
21.84
25.82
27.90
27.76
25.77
22.80
19.93
17.90
16.94
16.78
16.99
17.29
17.62
18.16
19.10
20.44
21.95
23.17
23.42
22.03
18.50
12.68
4.96
-3.80
-12.49
-19.98
-25.55
-29.14
-31.33
-33.31
-36.32
-41.19
-47.87
-55.23
-61.32
-63.96
-61.42
-53.04
-39.44
-22.41
-4.43
11.94
24.64
32.51
35.49
34.53
31.26
27.47
24.57
23.30
23.64
24.97
26.40
27.01
26.14
23.64
19.88
15.83
12.78
11.87
13.61
17.46
22.01
25.40
26.08
23.40
17.78
10.44
2.80
-4.03
-9.56
-13.89
-17.52
-21.05
-25.04
-29.97
-36.06
-43.15
-50.53
-56.95
-60.85
-60.77
-55.86
-46.18
-32.76
-17.33
-1.87
11.85
22.67
30.17
34.59
36.68
37.31
37.24
36.92
36.53
36.09
35.64
35.36
35.51
36.32
37.91
40.15
42.70
45.13
47.01
48.03
47.97
46.72
44.22
40.53
35.86
30.48
24.64
18.47
11.94
4.98
-2.35
-9.85
-17.26
-24.39
-31.27
-38.08
-44.89
-51.47
-57.14
-61.07
-62.64
-61.60
-58.08
-52.26
-44.07
-33.28
-19.69
-3.62
14.04
31.94
48.71
63.33
75.21
84.07
89.81
92.44
92.22
89.88
86.45
83.03
80.27
78.06
75.72
72.41
67.67
61.76
55.47
49.70
45.04
41.67
39.56
38.65
38.81
39.56
39.81
37.96
32.48
22.69
9.20
-6.44
-22.57
-38.30
-53.71
-69.18
-84.20
-96.63
-103.00
-99.83
-85.41
-60.80
-29.75
2.69
31.90
54.97
70.96
80.46
84.62
84.70
81.70
76.57
70.21
63.48
57.11
51.64
47.52
45.20
45.02
46.94
50.32
53.92
56.21
55.93
52.50
46.01
37.01
26.05
13.61
0.16
-13.63
-26.81
-38.38
-47.68
-54.69
-60.12
-65.02
-70.26
-75.98
-81.24
-84.29
-83.20
-76.69
-64.82
-49.21
-32.51
-17.58
-6.47
0.04
2.33
1.42
-1.60
-5.91
-10.82
-15.70
-19.86
-22.76
-24.33
-25.02
-25.63
-26.84
-28.81
-31.05
-32.73
-33.17
-32.22
-30.35
-28.38
-27.08
-26.81
-27.39
-28.30
-28.90
-28.71
-27.62
-25.88
-24.05
-22.86
-22.93
-24.55
-27.42
-30.68
-33.03
-33.17
-30.23
-24.03
-15.07
-4.29
7.35
19.01
29.97
39.44
46.51
50.28
50.25
46.76
40.93
34.48
29.02
25.57
24.24
24.38
25.04
25.43
25.26
24.72
24.23
24.14
24.50
24.98
24.96
23.83
21.21
17.06
11.71
5.65
-0.66
-6.98
-13.29
-19.79
-26.69
-34.14
-42.08
-50.16
-57.75
-63.93
-67.65
-67.95
-64.24
-56.52
-45.45
-32.26
-18.38
-5.22
6.09
14.81
20.55
23.24
23.10
20.65
16.67
12.24
8.47
6.34
6.33
8.39
11.93
16.24
20.69
24.92
28.76
32.06
34.53
35.75
35.27
32.86
28.63
23.01
16.58
9.94
3.55
-2.32
-7.61
-12.42
-17.10
-22.11
-27.91
-34.61
-41.86
-48.73
-53.90
-56.06
-54.30
-48.46
-39.12
-27.48
-14.93
-2.74
8.16
17.16
23.97
28.50
30.82
31.24
30.28
28.60
26.86
25.51
24.73
24.46
24.48
24.62
24.81
25.07
25.48
26.06
26.72
27.27
27.36
26.64
24.78
21.59
17.15
11.81
6.12
0.69
-4.09
-8.12
-11.74
-15.56
-20.28
-26.39
-33.95
-42.40
-50.58
-56.96
-60.01
-58.71
-52.82
-43.04
-30.74
-17.60
-5.14
5.61
14.20
20.64
25.17
28.09
29.55
29.68
28.64
26.77
24.58
22.65
21.44
21.16
21.70
22.75
23.93
25.03
25.97
26.82
27.58
28.16
28.24
27.42
25.33
21.80
17.00
11.40
5.64
0.30
-4.27
-8.11
-11.55
-15.14
-19.37
-24.53
-30.64
-37.35
-44.06
-49.93
-54.07
-55.61
-53.92
-48.78
-40.41
-29.59
-17.44
-5.19
6.11
15.68
23.12
28.30
31.19
31.91
30.70
28.01
24.53
21.06
18.30
16.67
16.22
16.72
17.78
19.06
20.31
21.41
22.27
22.82
22.96
22.59
21.67
20.13
17.99
15.28
12.06
8.43
4.50
0.41
-3.71
-7.78
-11.84
-16.05
-20.61
-25.64
-31.00
-36.23
-40.54
-43.00
-42.85
-39.65
-33.49
-24.95
-14.93
-4.48
5.46
14.15
21.07
25.89
28.48
28.86
27.34
24.47
21.06
17.99
15.94
15.25
15.77
17.03
18.46
19.62
20.34
20.63
20.57
20.19
19.40
18.07
16.09
13.43
10.15
6.39
2.30
-1.95
-6.18
-10.23
-14.05
-17.75
-21.55
-25.73
-30.46
-35.61
-40.68
-44.92
-47.47
-47.56
-44.84
-39.36
-31.67
-22.55
-12.89
-3.48
5.16
12.68
18.83
23.37
26.08
26.82
25.73
23.26
20.11
17.03
14.59
12.98
12.10
11.68
11.41
11.16
10.92
10.77
10.72
10.70
10.50
9.85
8.51
6.36
3.49
0.16
-3.25
-6.38
-9.03
-11.25
-13.32
-15.63
-18.54
-22.23
-26.61
-31.36
-35.86
-39.37
-41.12
-40.56
-37.48
-32.14
-25.15
-17.30
-9.35
-1.89
4.72
10.25
14.46
17.18
18.28
17.87
16.30
14.13
11.98
10.31
9.35
9.07
9.30
9.82
10.48
11.21
11.97
12.75
13.43
13.83
13.72
12.85
11.12
8.57
5.42
1.98
-1.38
-4.45
-7.14
-9.61
-12.18
-15.17
-18.84
-23.18
-27.89
-32.44
-36.16
-38.40
-38.73
-36.98
-33.32
-28.16
-21.99
-15.39
-8.84
-2.78
2.40
6.39
8.96
9.96
9.37
7.33
4.17
0.34
-3.62
-7.24
-10.17
-12.30
-13.80
-14.91
-15.87
-16.79
-17.67
-18.49
-19.38
-20.66
-22.71
-25.83
-30.04
-35.07
-40.38
-45.41
-49.74
-53.28
-56.28
-59.26
-62.79
-67.16
-72.22
-77.20
-80.91
-82.15
-80.18
-75.06
-67.58
-58.88
-49.97
-41.36
-33.11
-25.05
-16.99
-8.84
-0.59
7.72
15.90
23.33
28.98
31.68
30.71
26.34
19.88
13.07
7.40
3.41
0.69
-1.59
-3.93
-6.22
-7.76
-7.82
-6.13
-3.07
0.59
4.08
7.04
9.53
11.81
14.02
16.08
17.73
18.76
19.10
18.84
18.11
16.92
15.28
13.37
11.80
11.56
13.72
18.80
26.38
35.07
43.08
48.95
52.09
52.87
52.16
50.80
49.26
47.70
46.25
45.26
45.28
46.70
49.43
52.85
56.06
58.42
59.85
60.73
61.59
62.60
63.40
63.30
61.69
58.52
54.38
50.26
47.02
45.02
43.93
42.89
40.94
37.36
31.93
24.85
16.71
8.20
0.06
-6.98
-12.37
-15.80
-17.37
-17.60
-17.27
-17.12
-17.62
-18.83
-20.56
-22.58
-24.84
-27.46
-30.56
-34.03
-37.41
-40.12
-41.65
-41.83
-40.80
-38.84
-36.13
-32.70
-28.60
-24.14
-20.03
-17.24
-16.58
-18.33
-22.04
-26.67
-30.96
-33.84
-34.77
-33.81
-31.51
-28.62
-25.85
-23.73
-22.55
-22.30
-22.81
-23.68
-24.41
-24.47
-23.44
-21.10
-17.45
-12.75
-7.42
-2.03
2.86
6.79
9.42
10.64
10.51
9.22
7.04
4.29
1.27
-1.72
-4.34
-6.30
-7.42
-7.69
-7.27
-6.48
-5.63
-5.08
-5.02
-5.57
-6.72
-8.31
-10.18
-12.10
-13.97
-15.73
-17.32
-18.66
-19.63
-20.08
-19.89
-19.02
-17.60
-16.02
-14.94
-15.24
-17.63
-22.30
-28.51
-34.49
-37.99
-37.16
-31.40
-21.69
-10.15
0.95
9.93
15.98
18.86
18.39
14.51
7.59
-1.02
-8.89
-13.33
-12.67
-7.31
0.25
6.56
8.96
6.82
1.63
-4.07
-8.10
-9.66
-9.31
-8.26
-7.39
-6.84
-6.14
-4.93
-3.35
-2.22
-2.47
-4.61
-8.32
-12.65
-16.51
-19.31
-21.23
-23.03
-25.64
-29.45
-34.11
-38.55
-41.43
-41.69
-38.89
-33.31
-25.80
-17.49
-9.43
-2.46
2.98
6.84
9.32
10.75
11.41
11.43
10.85
9.75
8.41
7.30
6.88
7.40
8.77
10.62
12.57
14.45
16.31
18.39
20.75
23.19
25.23
26.32
26.04
24.26
21.14
17.02
12.38
7.67
3.23
-0.70
-4.06
-7.00
-9.85
-13.01
-16.82
-21.42
-26.55
-31.60
-35.61
-37.60
-36.78
-32.95
-26.41
-17.94
-8.50
1.00
9.87
17.61
23.86
28.31
30.75
31.08
29.49
26.48
22.92
19.82
18.17
18.52
20.89
24.66
28.92
32.84
35.94
38.23
39.99
41.44
42.56
43.08
42.63
40.92
37.89
33.71
28.65
23.03
17.16
11.41
6.03
1.19
-3.18
-7.34
-11.67
-16.41
-21.53
-26.61
-30.91
-33.58
-33.86
-31.35
-26.09
-18.58
-9.64
-0.17
9.00
17.24
24.12
29.40
32.94
34.70
34.76
33.40
31.10
28.54
26.43
25.28
25.29
26.25
27.76
29.41
30.97
32.44
33.95
35.54
37.06
38.14
38.32
37.22
34.69
30.89
26.29
21.59
17.57
14.84
13.65
13.76
14.49
14.88
13.94
10.89
5.30
-2.74
-12.54
-22.79
-31.74
-37.63
-39.13
-35.83
-28.36
-18.11
-6.75
4.35
14.35
22.95
30.10
35.66
39.35
40.82
40.00
37.29
33.55
29.86
27.10
25.65
25.32
25.59
25.88
25.93
25.79
25.73
25.93
26.36
26.73
26.66
25.78
23.93
21.08
17.40
13.08
8.41
3.60
-1.14
-5.71
-10.08
-14.17
-17.99
-21.55
-25.06
-28.88
-33.42
-38.85
-44.92
-50.83
-55.36
-57.29
-55.76
-50.56
-42.21
-31.76
-20.54
-9.77
-0.42
6.99
12.36
15.82
17.65
18.15
17.52
16.02
13.96
11.75
9.89
8.77
8.53
9.12
10.38
12.11
14.15
16.34
18.42
20.06
20.89
20.67
19.29
16.84
13.57
9.81
5.92
2.25
-0.91
-3.49
-5.71
-8.05
-11.11
-15.32
-20.70
-26.79
-32.78
-37.69
-40.69
-41.18
-38.87
-33.83
-26.42
-17.36
-7.61
1.79
9.93
16.18
20.27
22.25
22.31
20.78
18.05
14.62
11.05
7.90
5.59
4.26
3.81
4.07
4.91
6.36
8.52
11.36
14.61
17.72
19.95
20.66
19.39
16.03
10.87
4.49
-2.30
-8.58
-13.52
-16.65
-18.02
-18.25
-18.33
-19.32
-21.95
-26.48
-32.54
-39.20
-45.16
-48.97
-49.44
-45.94
-38.68
-28.70
-17.58
-6.98
1.87
8.43
12.85
15.71
17.63
19.01
19.91
20.22
19.84
18.88
17.74
16.89
16.68
17.17
18.21
19.46
20.75
22.10
23.71
25.68
27.78
29.37
29.61
27.86
24.01
18.56
12.49
6.85
2.36
-0.76
-2.76
-4.23
-5.80
-8.08
-11.49
-16.21
-22.13
-28.77
-35.30
-40.62
-43.73
-43.87
-40.81
-34.86
-26.76
-17.47
-8.04
0.62
7.84
13.22
16.72
18.48
18.78
18.00
16.49
14.65
12.90
11.61
11.02
11.20
12.03
13.21
14.45
15.55
16.41
17.03
17.35
17.27
16.67
15.41
13.53
11.12
8.29
5.16
1.81
-1.64
-5.04
-8.22
-11.08
-13.65
-16.19
-19.07
-22.65
-27.12
-32.27
-37.50
-41.86
-44.34
-44.09
-40.77
-34.70
-26.75
-18.12
-9.95
-3.01
2.35
6.18
8.69
10.09
10.55
10.18
9.15
7.71
6.22
5.12
4.79
5.46
7.10
9.39
11.88
14.14
15.89
17.05
17.68
17.77
17.26
15.99
13.85
10.92
7.44
3.78
0.30
-2.76
-5.34
-7.52
-9.55
-11.80
-14.63
-18.31
-22.86
-28.01
-33.17
-37.57
-40.45
-41.16
-39.37
-35.12
-28.83
-21.25
-13.29
-5.83
0.51
5.38
8.75
10.73
11.48
11.14
9.91
8.12
6.21
4.72
4.08
4.53
5.96
8.07
10.38
12.52
14.23
15.50
16.45
17.22
17.82
18.08
17.70
16.42
14.16
11.08
7.57
4.06
0.90
-1.77
-4.06
-6.23
-8.68
-11.76
-15.71
-20.54
-25.92
-31.20
-35.49
-37.90
-37.75
-34.78
-29.26
-21.86
-13.52
-5.24
2.11
7.96
12.04
14.41
15.29
15.01
13.92
12.36
10.71
9.34
8.58
8.62
9.43
10.77
12.32
13.74
14.81
15.52
15.98
16.33
16.64
16.85
16.71
15.94
14.27
11.59
8.02
3.85
-0.50
-4.62
-8.20
-11.15
-13.59
-15.83
-18.28
-21.35
-25.29
-30.07
-35.33
-40.36
-44.29
-46.22
-45.53
-42.02
-35.99
-28.24
-19.78
-11.69
-4.73
0.72
4.72
7.54
9.46
10.66
11.17
11.00
10.28
9.29
8.42
8.08
8.40
9.41
10.88
12.56
14.20
15.58
16.56
16.95
16.58
15.29
12.97
9.65
5.51
0.87
-3.82
-8.07
-11.46
-13.73
-14.81
-14.86
-14.19
-13.31
-12.75
-13.11
-14.81
-18.00
-22.44
-27.52
-32.35
-35.99
-37.65
-36.90
-33.70
-28.48
-21.90
-14.80
-7.92
-1.83
3.17
6.94
9.39
10.43
10.06
8.45
6.08
3.64
1.84
1.17
1.69
3.13
5.10
7.36
9.96
13.05
16.76
20.91
24.99
28.30
30.24
30.53
29.31
27.10
24.54
22.18
20.28
18.74
17.18
15.13
12.15
8.05
2.88
-3.11
-9.46
-15.54
-20.63
-24.01
-25.07
-23.58
-19.73
-14.11
-7.59
-0.97
5.07
10.10
13.82
15.96
16.22
14.42
10.74
5.97
1.36
-1.77
-2.60
-1.23
1.40
3.95
5.34
5.31
4.47
3.93
4.58
6.67
9.63
12.45
14.14
14.22
12.74
10.21
7.28
4.47
2.07
0.14
-1.45
-2.84
-4.29
-6.13
-8.79
-12.59
-17.53
-23.12
-28.30
-31.79
-32.48
-29.86
-24.27
-16.72
-8.50
-0.79
5.70
10.73
14.41
16.98
18.69
19.69
20.04
19.67
18.38
16.01
12.58
8.40
4.13
0.56
-1.66
-2.25
-1.36
0.55
3.03
5.78
8.62
11.35
13.62
14.86
14.58
12.56
8.99
4.49
-0.15
-4.20
-7.19
-9.05
-10.12
-11.09
-12.78
-15.84
-20.46
-26.19
-32.06
-36.85
-39.48
-39.30
-36.19
-30.54
-23.07
-14.62
-6.01
2.09
9.14
14.80
18.89
21.33
22.17
21.63
20.09
18.06
16.10
14.64
13.90
13.81
14.14
14.72
15.40
16.14
16.90
17.51
17.77
17.46
16.44
14.71
12.31
9.40
6.10
2.56
-1.02
-4.43
-7.46
-10.02
-12.22
-14.35
-16.85
-20.17
-24.56
-29.94
-35.77
-41.10
-44.78
-45.81
-43.72
-38.72
-31.59
-23.43
-15.20
-7.53
-0.71
5.18
10.04
13.66
15.79
16.37
15.60
14.08
12.55
11.61
11.50
12.09
13.02
14.03
15.12
16.49
18.22
20.05
21.32
21.19
19.21
15.60
11.24
7.26
4.49
3.03
2.41
1.97
1.49
1.24
1.66
2.83
4.01
3.76
0.60
-6.10
-15.50
-25.42
-33.06
-36.15
-33.79
-26.78
-17.17
-7.37
0.62
5.78
8.09
8.27
7.35
6.26
5.54
5.33
5.38
5.32
4.89
4.10
3.17
2.43
2.14
2.34
2.92
3.78
4.98
6.75
9.24
12.34
15.58
18.20
19.46
19.00
16.87
13.56
9.67
5.78
2.25
-0.79
-3.42
-5.89
-8.51
-11.69
-15.65
-20.31
-25.15
-29.22
-31.40
-30.79
-27.06
-20.65
-12.57
-4.15
3.49
9.66
14.27
17.61
20.03
21.79
22.94
23.40
23.20
22.52
21.73
21.19
21.11
21.46
22.00
22.44
22.55
22.25
21.70
21.17
20.95
21.21
21.76
22.08
21.38
19.02
14.82
9.28
3.47
-1.48
-4.80
-6.55
-7.59
-9.19
-12.50
-18.08
-25.76
-34.73
-43.73
-51.25
-55.65
-55.47
-49.86
-39.11
-25.00
-10.43
1.46
8.50
10.42
8.90
6.66
6.09
8.13
12.04
16.14
18.86
19.65
19.12
18.56
18.95
20.48
22.44
23.67
23.37
21.45
18.68
16.27
15.22
15.87
17.69
19.57
20.29
19.11
16.05
11.73
7.06
2.74
-1.03
-4.57
-8.48
-13.22
-18.80
-24.71
-30.15
-34.40
-37.17
-38.54
-38.80
-38.06
-36.10
-32.52
-27.02
-19.83
-11.67
-3.52
3.89
10.32
15.95
20.99
25.27
28.13
28.79
26.88
22.82
17.85
13.49
10.90
10.45
11.64
13.49
15.08
15.97
16.30
16.49
16.90
17.49
17.83
17.24
15.12
11.23
5.83
-0.39
-6.55
-11.95
-16.19
-19.28
-21.40
-22.76
-23.54
-24.02
-24.67
-26.05
-28.57
-32.04
-35.49
-37.48
-36.56
-31.96
-23.92
-13.51
-2.23
8.56
17.92
25.31
30.38
32.90
32.83
30.48
26.71
22.72
19.72
18.39
18.72
20.05
21.52
22.43
22.64
22.45
22.28
22.40
22.67
22.68
22.00
20.39
17.92
14.80
11.26
7.40
3.24
-1.11
-5.40
-9.27
-12.50
-15.25
-18.05
-21.64
-26.53
-32.59
-38.96
-44.26
-47.11
-46.61
-42.64
-35.82
-27.24
-18.06
-9.16
-1.05
6.09
12.26
17.41
21.31
23.51
23.57
21.34
17.22
12.25
7.76
4.86
4.01
4.90
6.59
8.08
8.72
8.47
7.75
7.12
6.80
6.55
5.81
4.00
0.93
-3.08
-7.38
-11.22
-14.08
-15.79
-16.54
-16.61
-16.37
-16.26
-16.76
-18.37
-21.41
-25.79
-30.95
-35.95
-39.76
-41.56
-40.90
-37.66
-31.99
-24.20
-14.74
-4.19
6.70
17.13
26.32
33.59
38.45
40.59
39.90
36.54
31.05
24.47
18.19
13.74
12.34
14.33
18.97
24.59
29.22
31.35
30.49
27.25
22.79
18.29
14.31
10.87
7.66
4.46
1.41
-1.08
-2.58
-3.03
-2.81
-2.74
-3.67
-6.15
-10.21
-15.38
-20.96
-26.34
-31.19
-35.46
-39.15
-42.08
-43.77
-43.55
-40.83
-35.37
-27.42
-17.81
-7.76
1.32
8.21
12.27
13.63
13.06
11.58
9.99
8.57
7.18
5.57
3.79
2.24
1.42
1.64
2.86
4.66
6.57
8.29
9.72
10.89
11.76
12.16
11.80
10.44
8.01
4.62
0.65
-3.37
-6.86
-9.39
-10.88
-11.73
-12.76
-14.86
-18.57
-23.78
-29.58
-34.60
-37.44
-37.22
-33.80
-27.73
-19.94
-11.38
-2.79
5.31
12.49
18.29
22.21
23.99
23.71
22.00
19.80
18.04
17.27
17.38
17.78
17.71
16.75
15.06
13.32
12.34
12.56
13.80
15.26
15.97
15.18
12.67
8.77
4.05
-0.99
-6.09
-11.24
-16.54
-21.97
-27.40
-32.69
-37.90
-43.36
-49.56
-56.83
-64.98
-73.11
-79.75
-83.28
-82.54
-77.37
-68.65
-58.02
-47.15
-37.25
-28.69
-21.27
-14.50
-8.15
-2.35
2.62
6.66
10.18
14.18
19.90
28.30
39.60
53.22
68.03
82.75
96.23
107.50
115.57
119.56
118.90
113.75
105.23
95.20
85.51
77.26
70.33
63.59
55.45
44.76
31.39
16.32
1.31
-11.84
-22.09
-29.69
-36.03
-42.85
-51.26
-60.98
-70.31
-76.85
-78.66
-75.06
-66.83
-55.77
-43.82
-32.54
-23.02
-16.20
-13.02
-14.17
-19.69
-28.40
-38.02
-45.72
-49.08
-46.97
-39.75
-29.01
-16.87
-5.04
5.56
14.82
22.98
30.14
36.07
40.26
42.20
41.67
38.86
34.33
28.82
23.03
17.43
12.25
7.59
3.56
0.34
-1.97
-3.43
-4.44
-5.60
-7.35
-9.68
-11.90
-12.89
-11.54
-7.21
0.03
9.61
20.79
32.80
44.65
54.74
60.93
61.09
54.09
40.65
23.54
6.67
-6.34
-13.59
-15.30
-13.28
-9.72
-6.12
-2.88
0.36
4.00
7.87
11.21
13.00
12.63
10.17
6.41
2.41
-0.93
-3.37
-5.25
-7.34
-10.33
-14.54
-19.82
-25.71
-31.70
-37.34
-42.21
-45.78
-47.31
-46.09
-41.69
-34.37
-25.01
-14.93
-5.45
2.36
7.79
10.43
10.11
6.99
1.65
-4.81
-11.07
-15.99
-19.01
-20.43
-21.24
-22.65
-25.55
-30.18
-36.11
-42.57
-48.79
-54.42
-59.57
-64.72
-70.36
-76.66
-83.30
-89.55
-94.54
-97.59
-98.30
-96.54
-92.59
-87.11
-81.29
-76.62
-74.40
-75.09
-77.82
-80.56
-80.79
-76.69
-67.89
-55.68
-42.25
-29.70
-19.14
-10.40
-2.58
5.21
13.36
21.77
30.44
40.12
52.41
69.23
91.66
118.93
148.23
175.56
197.37
211.85
219.37
221.65
220.54
217.13
211.79
204.71
196.56
188.48
181.50
175.94
171.38
167.13
162.81
158.38
153.69
147.80
138.99
125.54
106.96
84.69
61.68
41.11
25.03
13.76
6.35
1.53
-1.57
-3.38
-4.32
-5.21
-7.27
-11.63
-18.62
-27.55
-37.02
-45.52
-52.03
-56.37
-59.07
-61.02
-63.05
-65.66
-68.94
-72.61
-76.31
-79.73
-82.77
-85.55
-88.28
-91.27
-94.84
-99.30
-104.95
-111.96
-120.31
-129.65
-139.19
-147.68
-153.53
-155.15
-151.37
-141.84
-127.19
-108.79
-88.30
-67.15
-46.42
-26.99
-9.83
3.98
13.53
18.57
20.02
19.63
19.56
21.62
26.71
34.64
44.27
53.90
61.76
66.56
67.83
66.00
62.19
57.71
53.65
50.62
48.75
47.77
47.19
46.35
44.56
41.19
36.00
29.27
21.74
14.27
7.44
1.40
-4.05
-9.17
-14.08
-18.85
-23.64
-28.90
-35.23
-43.03
-52.10
-61.53
-69.84
-75.42
-77.05
-74.28
-67.52
-57.80
-46.36
-34.38
-22.64
-11.61
-1.56
7.28
14.63
20.22
23.85
25.49
25.24
23.39
20.41
16.95
13.77
11.62
10.90
11.59
13.21
15.03
16.43
17.08
17.07
16.62
15.90
14.83
13.17
10.72
7.59
4.24
1.32
-0.54
-1.16
-0.86
-0.54
-1.30
-4.13
-9.48
-17.02
-25.70
-34.02
-40.40
-43.67
-43.26
-39.26
-32.20
-22.90
-12.29
-1.32
9.00
17.73
24.10
27.73
28.76
27.76
25.57
22.94
20.44
18.36
16.81
15.90
15.79
16.54
18.07
20.05
21.94
23.15
23.25
22.07
19.65
16.17
11.90
7.14
2.28
-2.28
-6.22
-9.49
-12.47
-15.86
-20.48
-26.86
-34.85
-43.60
-51.64
-57.33
-59.32
-56.91
-50.19
-39.95
-27.40
-13.89
-0.68
11.26
21.20
28.72
33.61
35.92
35.93
34.19
31.35
28.16
25.21
22.91
21.40
20.59
20.27
20.26
20.44
20.80
21.33
21.90
22.16
21.64
19.88
16.67
12.17
6.86
1.38
-3.74
-8.26
-12.30
-16.24
-20.63
-26.01
-32.69
-40.69
-49.50
-58.05
-64.88
-68.46
-67.65
-62.04
-52.07
-38.88
-23.96
-8.81
5.33
17.55
27.26
34.15
38.12
39.35
38.26
35.47
31.73
27.78
24.29
21.71
20.23
19.76
20.00
20.61
21.31
21.95
22.52
22.95
23.09
22.66
21.34
18.88
15.29
10.81
5.90
1.00
-3.58
-7.86
-12.13
-16.89
-22.70
-29.88
-38.34
-47.39
-55.79
-61.96
-64.39
-62.08
-54.87
-43.49
-29.33
-14.08
0.75
14.07
25.24
34.00
40.25
44.00
45.33
44.47
41.87
38.23
34.32
30.88
28.35
26.84
26.13
25.91
25.89
25.94
26.06
26.24
26.27
25.77
24.31
21.60
17.62
12.68
7.26
1.83
-3.31
-8.09
-12.65
-17.32
-22.46
-28.38
-35.26
-42.90
-50.69
-57.60
-62.39
-63.88
-61.33
-54.63
-44.33
-31.51
-17.43
-3.41
9.46
20.36
28.69
34.17
36.78
36.78
34.70
31.28
27.30
23.46
20.27
17.98
16.61
16.08
16.24
16.96
18.08
19.37
20.52
21.17
20.97
19.71
17.32
13.91
9.79
5.32
0.88
-3.28
-7.24
-11.35
-16.18
-22.25
-29.66
-37.89
-45.78
-51.78
-54.44
-52.84
-46.85
-37.08
-24.68
-10.96
2.78
15.43
26.09
34.07
38.99
40.85
40.02
37.20
33.17
28.71
24.39
20.62
17.63
15.56
14.43
14.19
14.65
15.53
16.51
17.23
17.35
16.56
14.67
11.64
7.60
2.91
-2.00
-6.71
-11.00
-14.98
-19.05
-23.85
-29.97
-37.69
-46.70
-55.96
-63.89
-68.72
-69.04
-64.20
-54.56
-41.35
-26.31
-11.23
2.44
13.77
22.36
28.17
31.43
32.50
31.82
29.85
27.06
23.92
20.81
18.10
16.03
14.72
14.17
14.23
14.70
15.34
15.96
16.32
16.19
15.34
13.56
10.71
6.79
1.94
-3.54
-9.26
-14.94
-20.46
-26.02
-32.09
-39.27
-47.93
-57.92
-68.44
-78.07
-85.21
-88.46
-87.12
-81.42
-72.39
-61.64
-50.82
-41.34
-34.06
-29.27
-26.80
-26.20
-26.87
-28.16
-29.29
-29.44
-27.94
-24.58
-19.94
-15.34
-12.17
-11.23
-12.10
-13.24
-12.73
-9.37
-3.42
3.46
9.07
11.86
11.69
9.78
7.88
7.21
7.93
9.32
10.44
10.85
10.75
10.67
10.88
11.12
10.71
9.06
6.32
3.55
2.36
4.16
9.50
17.80
27.57
37.07
44.96
50.68
54.31
56.33
57.10
56.83
55.59
53.63
51.58
50.27
50.39
52.17
55.21
58.67
61.65
63.52
64.16
63.94
63.47
63.17
62.97
62.35
60.45
56.56
50.41
42.33
33.14
23.77
14.86
6.63
-1.13
-8.80
-16.69
-24.84
-33.00
-40.65
-47.01
-51.24
-52.54
-50.54
-45.37
-37.69
-28.46
-18.60
-8.87
0.25
8.41
15.24
20.36
23.46
24.48
23.79
22.22
20.81
20.48
21.65
24.13
27.23
30.18
32.47
34.07
35.23
36.22
37.05
37.36
36.62
34.40
30.64
25.69
20.09
14.51
9.39
5.02
1.34
-1.99
-5.53
-9.87
-15.39
-21.93
-28.76
-34.72
-38.57
-39.41
-36.92
-31.42
-23.65
-14.62
-5.34
3.30
10.56
15.95
19.20
20.40
19.85
18.02
15.46
12.69
10.21
8.40
7.45
7.36
7.93
8.81
9.65
10.19
10.30
9.98
9.34
8.47
7.43
6.15
4.48
2.21
-0.82
-4.59
-8.82
-13.08
-16.92
-20.11
-22.73
-25.18
-27.99
-31.61
-36.15
-41.27
-46.20
-49.89
-51.27
-49.59
-44.72
-37.13
-27.82
-18.02
-8.80
-0.91
5.26
9.55
11.93
12.42
11.21
8.65
5.33
1.91
-0.94
-2.77
-3.38
-2.90
-1.64
-0.07
1.41
2.60
3.55
4.56
5.92
7.73
9.74
11.37
11.99
11.22
9.11
6.12
2.94
0.16
-1.91
-3.36
-4.56
-6.03
-8.31
-11.77
-16.53
-22.29
-28.41
-33.93
-37.86
-39.45
-38.32
-34.59
-28.76
-21.66
-14.19
-7.27
-1.67
2.01
3.50
2.85
0.45
-3.12
-7.15
-11.04
-14.33
-16.66
-17.85
-17.79
-16.47
-14.01
-10.62
-6.65
-2.49
1.46
4.84
7.43
9.16
10.04
10.10
9.31
7.68
5.22
2.14
-1.28
-4.69
-7.82
-10.61
-13.19
-15.87
-18.97
-22.81
-27.58
-33.36
-39.96
-46.86
-53.11
-57.56
-59.09
-56.99
-51.21
-42.43
-31.78
-20.56
-9.93
-0.66
6.86
12.54
16.45
18.73
19.53
19.05
17.62
15.69
13.76
12.39
11.89
12.38
13.64
15.28
16.87
18.06
18.70
18.79
18.46
17.81
16.89
15.60
13.81
11.43
8.57
5.47
2.53
0.04
-1.94
-3.69
-5.69
-8.49
-12.46
-17.65
-23.76
-30.20
-36.08
-40.39
-42.13
-40.56
-35.43
-27.15
-16.67
-5.24
5.92
15.92
24.23
30.63
35.02
37.35
37.64
36.11
33.23
29.70
26.29
23.62
22.03
21.51
21.79
22.45
23.11
23.51
23.49
23.02
22.07
20.58
18.44
15.52
11.78
7.41
2.77
-1.68
-5.54
-8.73
-11.40
-13.97
-16.87
-20.43
-24.85
-30.23
-36.52
-43.51
-50.65
-56.96
-61.17
-62.07
-58.88
-51.57
-40.90
-28.15
-14.76
-1.99
9.30
18.62
25.77
30.70
33.43
34.15
33.17
31.04
28.46
26.16
24.75
24.53
25.44
27.17
29.27
31.34
33.13
34.56
35.60
36.19
36.23
35.54
33.91
31.21
27.41
22.67
17.27
11.61
6.06
0.84
-4.07
-8.94
-14.21
-20.37
-27.81
-36.67
-46.67
-57.03
-66.54
-73.73
-77.23
-76.11
-70.15
-59.97
-46.80
-32.24
-17.86
-4.89
5.90
14.18
19.88
23.04
23.82
22.56
19.88
16.69
14.03
12.71
13.09
14.92
17.58
20.38
22.82
24.76
26.26
27.40
28.15
28.34
27.69
25.99
23.11
19.07
14.09
8.58
3.04
-2.13
-6.68
-10.72
-14.60
-18.83
-23.89
-30.12
-37.64
-46.28
-55.49
-64.19
-70.94
-74.10
-72.37
-65.23
-53.22
-37.85
-21.14
-5.06
8.94
20.12
28.37
33.87
36.86
37.58
36.25
33.35
29.59
25.83
22.92
21.33
21.13
21.98
23.38
24.89
26.32
27.62
28.73
29.44
29.41
28.23
25.63
21.65
16.65
11.23
6.10
1.85
-1.23
-3.22
-4.62
-6.24
-8.94
-13.40
-19.80
-27.61
-35.59
-42.04
-45.21
-43.83
-37.40
-26.37
-11.88
4.52
21.23
36.86
50.33
60.87
68.00
71.49
71.50
68.55
63.65
58.01
52.86
49.12
47.13
46.65
46.99
47.41
47.31
46.43
44.80
42.45
39.34
35.29
30.21
24.20
17.53
10.50
3.18
-4.56
-12.91
-21.86
-31.09
-40.16
-48.78
-57.08
-65.49
-74.32
-83.33
-91.53
-97.34
-99.17
-95.95
-87.43
-74.17
-57.39
-38.55
-19.26
-0.97
15.21
28.56
38.78
45.85
49.91
51.11
49.74
46.33
41.78
37.24
33.79
32.03
31.92
32.84
33.99
34.78
35.06
34.98
34.80
34.55
33.99
32.68
30.19
26.37
21.39
15.66
9.68
3.90
-1.51
-6.59
-11.60
-16.91
-22.86
-29.67
-37.34
-45.59
-53.78
-60.82
-65.33
-65.81
-61.17
-51.07
-36.26
-18.43
0.31
17.94
33.05
44.93
53.39
58.46
60.25
59.03
55.44
50.63
46.14
43.42
43.26
45.45
48.86
52.05
53.83
53.74
51.98
49.21
46.11
43.17
40.69
38.74
37.21
35.76
33.83
30.80
26.24
20.20
13.11
5.69
-1.47
-8.12
-14.40
-20.78
-27.78
-35.80
-44.93
-54.75
-64.23
-71.87
-75.99
-75.30
-69.32
-58.61
-44.67
-29.46
-14.93
-2.50
7.03
13.50
17.12
18.24
17.23
14.51
10.61
6.29
2.44
-0.16
-1.06
-0.34
1.53
3.92
6.30
8.46
10.39
12.18
13.75
14.86
15.16
14.32
12.18
8.75
4.24
-1.00
-6.56
-12.01
-17.09
-21.65
-25.75
-29.60
-33.56
-38.12
-43.67
-50.40
-57.96
-65.42
-71.33
-74.10
-72.46
-65.93
-54.96
-40.82
-25.15
-9.59
4.53
16.26
25.04
30.60
33.05
32.77
30.47
27.01
23.33
20.23
18.32
17.86
18.81
20.88
23.58
26.38
28.79
30.52
31.45
31.59
30.99
29.64
27.41
24.19
20.00
15.09
9.95
5.10
0.98
-2.32
-5.03
-7.70
-10.96
-15.31
-20.99
-27.84
-35.36
-42.66
-48.57
-51.84
-51.41
-46.74
-38.05
-26.30
-13.01
0.19
11.92
21.35
28.18
32.48
34.53
34.61
32.99
30.09
26.43
22.71
19.66
17.84
17.50
18.52
20.44
22.68
24.70
26.18
27.04
27.34
27.21
26.68
25.61
23.86
21.22
17.66
13.27
8.33
3.19
-1.79
-6.37
-10.45
-14.13
-17.71
-21.62
-26.34
-32.20
-39.18
-46.75
-53.87
-59.20
-61.47
-59.82
-54.12
-45.02
-33.70
-21.63
-10.12
-0.13
7.81
13.61
17.39
19.40
19.92
19.23
17.62
15.48
13.32
11.69
11.08
11.74
13.54
16.05
18.69
20.96
22.58
23.54
23.98
23.96
23.46
22.30
20.32
17.46
13.87
9.85
5.76
1.89
-1.64
-4.87
-7.94
-11.07
-14.49
-18.38
-22.89
-28.13
-34.01
-40.24
-46.13
-50.73
-52.92
-51.78
-46.96
-38.87
-28.59
-17.56
-7.10
1.91
9.09
14.43
18.08
20.13
20.69
19.95
18.24
16.07
13.97
12.34
11.40
11.18
11.61
12.55
13.84
15.24
16.48
17.40
17.91
18.06
17.94
17.62
17.01
15.92
14.14
11.58
8.37
4.78
1.18
-2.17
-5.25
-8.21
-11.28
-14.73
-18.67
-23.12
-28.04
-33.24
-38.43
-43.10
-46.53
-47.90
-46.55
-42.26
-35.44
-27.04
-18.28
-10.30
-3.85
0.85
3.93
5.68
6.35
6.06
4.94
3.21
1.28
-0.31
-1.11
-0.86
0.34
2.12
4.03
5.73
7.10
8.20
9.17
10.06
10.73
10.92
10.31
8.68
6.10
2.86
-0.55
-3.67
-6.22
-8.21
-9.87
-11.57
-13.62
-16.24
-19.51
-23.38
-27.63
-31.83
-35.30
-37.22
-36.86
-33.85
-28.36
-21.14
-13.23
-5.66
0.85
5.93
9.50
11.60
12.30
11.69
9.92
7.34
4.46
1.90
0.23
-0.17
0.74
2.64
4.99
7.22
8.92
9.97
10.49
10.76
10.92
10.97
10.66
9.66
7.76
4.99
1.62
-1.95
-5.34
-8.38
-11.09
-13.68
-16.46
-19.72
-23.74
-28.71
-34.66
-41.30
-47.95
-53.56
-56.97
-57.25
-54.02
-47.68
-39.28
-30.15
-21.55
-14.31
-8.76
-4.84
-2.33
-0.99
-0.64
-1.13
-2.21
-3.53
-4.62
-5.03
-4.45
-2.92
-0.70
1.76
4.04
5.92
7.40
8.62
9.71
10.62
11.10
10.83
9.58
7.34
4.34
0.93
-2.50
-5.77
-8.81
-11.72
-14.64
-17.72
-21.18
-25.25
-30.18
-36.04
-42.60
-49.15
-54.68
-57.97
-58.04
-54.52
-47.72
-38.62
-28.51
-18.68
-10.05
-3.09
2.14
5.83
8.17
9.33
9.42
8.58
7.10
5.48
4.27
4.00
4.95
7.07
9.97
13.12
16.03
18.38
20.04
21.02
21.34
20.97
19.82
17.81
14.98
11.51
7.73
4.00
0.62
-2.34
-4.96
-7.49
-10.21
-13.42
-17.35
-22.21
-28.00
-34.51
-41.09
-46.75
-50.28
-50.66
-47.40
-40.78
-31.75
-21.59
-11.51
-2.42
5.23
11.20
15.40
17.70
18.04
16.53
13.57
9.85
6.20
3.39
1.87
1.73
2.63
4.10
5.60
6.79
7.59
8.10
8.48
8.77
8.81
8.29
6.89
4.43
1.04
-2.90
-6.94
-10.72
-14.16
-17.47
-21.07
-25.28
-30.17
-35.41
-40.26
-43.67
-44.57
-42.06
-35.66
-25.42
-11.95
3.68
20.03
35.61
49.08
59.66
67.12
71.78
74.11
74.45
72.92
69.54
64.51
58.44
52.22
46.79
42.77
40.19
38.63
37.50
36.33
34.98
33.52
32.01
30.33
28.14
25.01
20.68
15.25
9.22
3.29
-1.85
-5.93
-9.25
-12.55
-16.90
-23.20
-31.96
-42.90
-55.00
-66.56
-75.60
-80.28
-79.42
-72.87
-61.43
-46.67
-30.52
-14.78
-0.85
10.44
18.71
24.01
26.59
26.86
25.35
22.69
19.61
16.85
15.07
14.65
15.67
17.88
20.79
23.97
27.10
30.10
33.01
35.86
38.47
40.50
41.45
40.92
38.78
35.20
30.66
25.67
20.63
15.73
10.92
5.92
0.34
-6.23
-14.10
-23.15
-32.73
-41.47
-47.66
-49.63
-46.38
-37.95
-25.37
-10.35
5.35
20.26
33.49
44.59
53.37
59.73
63.57
64.89
63.94
61.30
57.81
54.42
51.91
50.70
50.77
51.76
53.16
54.54
55.66
56.44
56.83
56.68
55.62
53.23
49.16
43.32
36.04
28.02
20.11
13.10
7.46
3.18
-0.16
-3.34
-7.28
-12.78
-20.36
-30.04
-41.16
-52.42
-62.13
-68.61
-70.59
-67.56
-59.82
-48.39
-34.65
-19.99
-5.62
7.56
18.91
27.89
34.00
36.91
36.59
33.51
28.61
23.11
18.21
14.80
13.20
13.28
14.51
16.27
18.02
19.37
20.14
20.30
19.88
18.91
17.37
15.19
12.28
8.62
4.29
-0.55
-5.63
-10.60
-15.13
-18.98
-22.08
-24.66
-27.23
-30.43
-34.75
-40.25
-46.36
-51.89
-55.36
-55.45
-51.35
-43.03
-31.28
-17.37
-2.78
11.16
23.49
33.56
41.04
45.78
47.78
47.24
44.67
40.86
36.77
33.31
31.13
30.41
30.91
32.15
33.60
34.90
35.91
36.64
37.15
37.39
37.15
36.10
33.95
30.60
26.18
21.04
15.62
10.34
5.42
0.91
-3.34
-7.63
-12.38
-18.00
-24.69
-32.33
-40.30
-47.49
-52.49
-54.02
-51.32
-44.42
-34.18
-22.01
-9.51
1.97
11.50
18.69
23.55
26.30
27.31
26.92
25.53
23.52
21.31
19.33
17.99
17.58
18.19
19.67
21.67
23.70
25.31
26.23
26.40
25.95
25.02
23.70
21.90
19.47
16.30
12.44
8.13
3.69
-0.53
-4.37
-7.87
-11.25
-14.88
-19.10
-24.15
-30.12
-36.89
-44.09
-51.07
-56.90
-60.51
-60.95
-57.63
-50.59
-40.55
-28.78
-16.71
-5.63
3.64
10.74
15.68
18.65
19.85
19.47
17.75
15.05
11.90
8.97
6.83
5.77
5.74
6.31
7.00
7.42
7.51
7.46
7.53
7.83
8.16
8.14
7.35
5.63
3.15
0.37
-2.23
-4.37
-6.12
-7.86
-9.99
-12.75
-16.07
-19.67
-23.29
-26.93
-30.82
-35.24
-40.13
-44.81
-48.19
-49.09
-46.82
-41.50
-33.94
-25.36
-16.83
-9.06
-2.37
3.11
7.29
10.04
11.25
11.02
9.67
7.75
5.85
4.46
3.78
3.83
4.42
5.33
6.43
7.66
9.05
10.55
12.02
13.20
13.79
13.58
12.48
10.57
8.04
5.14
2.08
-0.97
-3.95
-6.85
-9.72
-12.70
-15.99
-19.85
-24.39
-29.51
-34.74
-39.21
-41.91
-41.91
-38.72
-32.51
-24.01
-14.36
-4.69
4.03
11.20
16.50
19.87
21.41
21.34
19.95
17.59
14.72
11.86
9.56
8.30
8.29
9.43
11.28
13.23
14.72
15.42
15.34
14.69
13.73
12.59
11.21
9.36
6.81
3.46
-0.56
-4.99
-9.48
-13.71
-17.51
-20.87
-23.91
-26.87
-30.08
-33.88
-38.44
-43.69
-49.13
-53.83
-56.66
-56.65
-53.31
-46.82
-38.04
-28.12
-18.26
-9.41
-2.13
3.40
7.21
9.47
10.39
10.14
8.90
6.94
4.60
2.39
0.81
0.25
0.83
2.37
4.42
6.45
8.07
9.13
9.73
10.04
10.10
9.73
8.62
6.46
3.24
-0.75
-4.97
-8.88
-12.19
-14.96
-17.49
-20.20
-23.44
-27.36
-32.09
-37.62
-43.87
-50.53
-57.02
-62.46
-65.80
-65.99
-62.40
-55.03
-44.63
-32.52
-20.24
-9.05
0.33
7.77
13.50
17.82
20.85
22.61
23.26
23.19
23.06
23.60
25.29
28.16
31.81
35.61
38.97
41.52
43.20
44.27
45.09
45.93
46.88
47.76
48.21
47.85
46.24
43.04
38.05
31.23
22.93
13.98
5.53
-1.22
-5.62
-8.01
-9.79
-12.98
-19.42
-29.96
-43.99
-59.60
-74.16
-85.10
-90.65
-90.18
-84.16
-73.91
-61.18
-47.74
-35.07
-24.27
-15.88
-10.09
-6.76
-5.49
-5.67
-6.57
-7.42
-7.62
-6.83
-5.04
-2.49
0.49
3.62
6.72
9.72
12.54
15.10
17.31
19.06
20.32
21.08
21.32
20.91
19.66
17.38
14.04
9.85
5.21
0.60
-3.68
-7.69
-11.82
-16.66
-22.72
-30.07
-38.29
-46.44
-53.32
-57.70
-58.66
-55.73
-49.04
-39.30
-27.66
-15.49
-4.07
5.63
13.03
17.87
20.20
20.21
18.19
14.64
10.21
5.79
2.30
0.49
0.79
3.18
7.28
12.48
18.13
23.72
28.90
33.48
37.29
40.15
41.86
42.27
41.31
39.04
35.68
31.56
27.08
22.59
18.26
14.03
9.51
4.15
-2.59
-11.04
-21.00
-31.73
-41.95
-50.12
-54.81
-55.00
-50.39
-41.42
-29.12
-14.83
0.04
14.27
26.89
37.25
44.94
49.88
52.19
52.25
50.53
47.59
44.01
40.44
37.48
35.67
35.21
35.87
37.07
38.10
38.48
38.18
37.55
37.00
36.70
36.39
35.45
33.26
29.51
24.30
18.07
11.45
4.94
-1.08
-6.48
-11.31
-15.82
-20.38
-25.51
-31.69
-39.17
-47.81
-56.91
-65.25
-71.25
-73.33
-70.40
-62.18
-49.43
-33.73
-17.09
-1.34
12.19
22.89
30.67
35.73
38.37
38.87
37.59
34.99
31.77
28.70
26.52
25.68
26.28
28.01
30.32
32.61
34.43
35.63
36.27
36.46
36.20
35.31
33.47
30.42
26.10
20.75
14.86
8.98
3.54
-1.38
-5.99
-10.68
-15.86
-21.84
-28.76
-36.64
-45.26
-54.09
-62.25
-68.46
-71.36
-69.80
-63.31
-52.30
-37.98
-22.08
-6.34
7.85
19.53
28.18
33.59
35.82
35.20
32.42
28.51
24.69
22.07
21.35
22.54
25.10
28.17
31.01
33.37
35.49
37.88
40.86
44.22
47.16
48.62
47.75
44.31
38.76
32.03
25.06
18.45
12.27
6.13
-0.54
-8.30
-17.48
-28.01
-39.34
-50.37
-59.48
-64.83
-64.84
-58.64
-46.44
-29.57
-10.06
9.84
28.22
43.83
56.03
64.60
69.52
70.90
68.93
64.11
57.30
49.63
42.32
36.30
31.99
29.22
27.36
25.69
23.71
21.33
18.75
16.25
13.91
11.47
8.40
4.22
-1.25
-7.70
-14.41
-20.63
-25.82
-29.97
-33.64
-37.72
-43.09
-50.35
-59.47
-69.80
-80.04
-88.56
-93.65
-94.00
-88.94
-78.75
-64.53
-47.96
-30.89
-14.89
-1.02
10.23
18.69
24.40
27.42
27.95
26.42
23.63
20.67
18.65
18.45
20.29
23.79
28.08
32.26
35.66
38.11
39.77
40.85
41.39
41.14
39.69
36.74
32.29
26.76
20.78
14.98
9.75
5.11
0.83
-3.53
-8.43
-14.32
-21.50
-29.99
-39.41
-48.80
-56.78
-61.79
-62.58
-58.59
-50.12
-38.30
-24.72
-10.99
1.59
12.21
20.49
26.35
29.86
31.17
30.53
28.36
25.27
21.97
19.20
17.49
17.04
17.66
18.97
20.52
21.97
23.21
24.26
25.14
25.73
25.77
24.87
22.73
19.19
14.42
8.89
3.23
-1.94
-6.27
-9.84
-13.16
-17.03
-22.16
-28.86
-36.79
-44.97
-51.96
-56.33
-57.01
-53.59
-46.39
-36.32
-24.64
-12.63
-1.42
8.15
15.57
20.56
23.06
23.22
21.38
18.14
14.27
10.64
8.00
6.80
7.05
8.44
10.50
12.83
15.22
17.62
20.00
22.13
23.66
24.17
23.40
21.44
18.66
15.54
12.47
9.58
6.68
3.44
-0.53
-5.53
-11.64
-18.67
-26.10
-33.04
-38.37
-40.91
-39.79
-34.73
-26.18
-15.26
-3.48
7.75
17.39
24.93
30.29
33.61
35.05
34.76
32.92
29.92
26.31
22.79
20.00
18.26
17.57
17.59
17.84
17.99
17.93
17.75
17.60
17.43
16.97
15.78
13.49
10.01
5.64
0.94
-3.49
-7.25
-10.29
-12.85
-15.35
-18.29
-22.07
-27.01
-33.12
-40.07
-47.03
-52.82
-56.16
-56.04
-52.13
-44.88
-35.37
-24.94
-14.78
-5.65
2.12
8.51
13.59
17.35
19.75
20.77
20.51
19.24
17.42
15.55
14.09
13.37
13.49
14.30
15.49
16.70
17.63
18.21
18.48
18.54
18.36
17.71
16.32
13.95
10.66
6.77
2.72
-1.06
-4.41
-7.38
-10.22
-13.23
-16.72
-20.90
-25.91
-31.71
-37.95
-43.91
-48.56
-50.85
-49.97
-45.73
-38.66
-29.78
-20.34
-11.47
-3.90
2.09
6.53
9.59
11.42
12.18
12.01
11.12
9.84
8.53
7.53
7.05
7.22
8.00
9.28
10.82
12.35
13.63
14.54
15.09
15.32
15.25
14.77
13.67
11.80
9.14
5.92
2.58
-0.47
-3.00
-5.00
-6.73
-8.58
-10.96
-14.15
-18.30
-23.33
-28.86
-34.26
-38.68
-41.31
-41.55
-39.18
-34.49
-28.14
-21.01
-13.99
-7.77
-2.76
0.92
3.32
4.59
4.86
4.24
2.92
1.22
-0.40
-1.44
-1.51
-0.53
1.33
3.63
5.93
7.88
9.35
10.34
10.92
11.09
10.79
9.94
8.47
6.39
3.85
1.06
-1.68
-4.06
-5.92
-7.30
-8.50
-10.02
-12.40
-15.99
-20.73
-26.08
-31.12
-34.80
-36.26
-35.06
-31.30
-25.56
-18.68
-11.56
-4.93
0.69
4.99
7.84
9.18
9.06
7.59
5.07
1.91
-1.33
-4.07
-5.83
-6.36
-5.74
-4.34
-2.71
-1.37
-0.62
-0.48
-0.77
-1.29
-1.97
-2.98
-4.58
-6.99
-10.23
-14.04
-18.00
-21.71
-24.96
-27.74
-30.26
-32.83
-35.72
-39.19
-43.40
-48.44
-54.18
-60.20
-65.69
-69.53
-70.54
-67.79
-60.96
-50.44
-37.42
-23.54
-10.50
0.29
8.07
12.77
14.98
15.56
15.39
15.10
15.05
15.48
16.50
18.14
20.21
22.22
23.60
23.91
23.26
22.26
21.85
22.76
25.07
28.25
31.35
33.41
33.91
32.81
30.40
27.05
23.10
18.79
14.39
10.12
6.18
2.55
-1.01
-5.01
-10.01
-16.42
-24.20
-32.72
-40.82
-47.08
-50.20
-49.35
-44.51
-36.36
-26.20
-15.43
-5.27
3.49
10.50
15.71
19.10
20.70
20.48
18.61
15.56
12.08
9.07
7.25
6.96
8.01
9.85
11.84
13.47
14.54
15.15
15.55
15.97
16.44
16.75
16.52
15.29
12.73
8.81
3.82
-1.70
-7.10
-11.93
-16.09
-19.89
-23.96
-29.00
-35.50
-43.51
-52.51
-61.50
-69.11
-73.97
-75.00
-71.75
-64.43
-53.91
-41.53
-28.74
-16.83
-6.65
1.36
7.16
10.89
12.82
13.20
12.49
11.30
10.37
10.39
11.76
14.46
18.12
22.15
26.15
29.99
33.76
37.63
41.51
45.03
47.57
48.57
47.74
45.23
41.61
37.60
33.79
30.42
27.33
24.07
20.04
14.78
8.04
0.04
-8.57
-16.72
-23.10
-26.44
-25.84
-21.00
-12.39
-1.07
11.54
24.06
35.36
44.61
51.37
55.39
56.70
55.58
52.59
48.53
44.27
40.60
38.03
36.69
36.38
36.70
37.24
37.69
37.97
38.12
38.19
38.11
37.71
36.67
34.75
31.88
28.25
24.25
20.30
16.70
13.53
10.54
7.32
3.34
-1.87
-8.58
-16.69
-25.61
-34.27
-41.25
-45.14
-45.00
-40.66
-32.78
-22.65
-11.63
-0.83
9.12
17.87
25.15
30.47
33.23
33.00
29.83
24.47
18.20
12.44
8.35
6.55
7.08
9.56
13.39
17.89
22.35
26.09
28.57
29.37
28.41
25.84
22.07
17.60
12.85
8.09
3.43
-1.11
-5.47
-9.55
-13.29
-16.85
-20.62
-25.24
-31.29
-38.86
-47.39
-55.55
-61.61
-63.97
-61.63
-54.58
-43.71
-30.54
-16.71
-3.60
7.86
17.28
24.54
29.63
32.55
33.29
32.03
29.19
25.47
21.77
18.91
17.46
17.64
19.28
21.98
25.25
28.68
32.06
35.31
38.41
41.14
43.06
43.58
42.17
38.63
33.24
26.67
19.70
12.95
6.66
0.76
-5.00
-10.87
-17.04
-23.64
-30.78
-38.54
-46.85
-55.31
-63.07
-68.90
-71.54
-70.01
-64.09
-54.37
-42.21
-29.26
-17.04
-6.56
1.73
7.77
11.72
13.67
13.77
12.32
9.89
7.30
5.37
4.66
5.31
7.01
9.29
11.68
13.90
15.87
17.50
18.69
19.19
18.79
17.38
15.01
11.90
8.38
4.71
1.15
-2.17
-5.18
-7.89
-10.35
-12.68
-15.08
-17.74
-20.80
-24.21
-27.67
-30.55
-32.01
-31.22
-27.61
-21.16
-12.40
-2.27
8.10
17.71
25.83
32.05
36.19
38.28
38.53
37.33
35.27
33.06
31.34
30.52
30.64
31.34
32.02
32.09
31.22
29.47
27.20
24.86
22.68
20.52
17.95
14.54
10.08
4.80
-0.73
-5.86
-10.14
-13.51
-16.25
-18.91
-22.11
-26.37
-31.93
-38.68
-45.99
-52.84
-58.02
-60.42
-59.30
-54.57
-46.71
-36.70
-25.72
-14.88
-5.07
3.19
9.73
14.66
18.25
20.81
22.62
23.83
24.60
25.06
25.40
25.74
26.20
26.79
27.50
28.29
29.16
30.14
31.18
32.08
32.50
32.01
30.21
26.93
22.33
16.77
10.75
4.70
-1.07
-6.44
-11.42
-16.11
-20.73
-25.60
-31.12
-37.53
-44.80
-52.40
-59.33
-64.36
-66.47
-65.16
-60.64
-53.77
-45.80
-37.91
-31.04
-25.67
-21.86
-19.41
-18.03
-17.50
-17.68
-18.55
-20.10
-22.28
-24.88
-27.51
-29.65
-30.73
-30.30
-28.15
-24.45
-19.67
-14.60
-10.08
-6.78
-4.94
-4.32
-4.31
-4.24
-3.72
-2.80
-1.92
-1.51
-1.77
-2.45
-3.04
-3.16
-2.86
-2.72
-3.57
-5.99
-9.85
-14.23
-17.68
-18.75
-16.59
-11.15
-3.17
6.22
15.94
25.22
33.68
41.22
47.80
53.31
57.58
60.44
61.80
61.77
60.66
58.92
57.07
55.49
54.41
53.81
53.45
53.06
52.30
50.94
48.75
45.53
41.06
35.17
27.88
19.44
10.29
0.95
-8.18
-16.93
-25.36
-33.50
-41.28
-48.46
-54.80
-60.30
-65.21
-69.89
-74.47
-78.66
-81.75
-82.87
-81.30
-76.64
-68.89
-58.41
-45.80
-31.93
-17.87
-4.77
6.30
14.66
20.08
22.78
23.21
21.98
19.74
17.20
14.98
13.56
13.15
13.70
14.95
16.62
18.50
20.40
22.15
23.57
24.42
24.50
23.65
21.80
18.98
15.34
11.09
6.49
1.76
-3.02
-7.93
-13.14
-18.84
-25.14
-32.17
-40.02
-48.76
-58.23
-67.86
-76.56
-82.79
-84.98
-82.04
-73.71
-60.62
-44.12
-25.84
-7.27
10.49
26.79
41.36
54.12
65.03
74.00
80.94
85.78
88.58
89.55
88.91
86.90
83.65
79.18
73.56
66.92
59.50
51.53
43.21
34.51
25.35
15.62
5.35
-5.24
-15.73
-25.68
-34.70
-42.52
-49.03
-54.25
-58.29
-61.36
-63.80
-66.08
-68.77
-72.34
-77.00
-82.41
-87.64
-91.35
-92.14
-89.09
-82.02
-71.62
-59.11
-45.86
-33.00
-21.27
-11.08
-2.70
3.68
7.90
9.95
10.10
8.92
7.15
5.55
4.72
4.98
6.25
8.17
10.28
12.13
13.51
14.43
15.03
15.38
15.41
14.89
13.51
11.08
7.60
3.27
-1.55
-6.50
-11.26
-15.66
-19.71
-23.52
-27.32
-31.34
-35.77
-40.63
-45.69
-50.38
-53.84
-54.99
-52.85
-46.83
-36.96
-24.02
-9.31
5.60
19.22
30.47
38.64
43.43
44.86
43.23
39.10
33.22
26.49
19.77
13.76
8.94
5.53
3.58
3.05
3.80
5.64
8.21
11.05
13.66
15.60
16.67
16.88
16.50
15.91
15.47
15.43
15.79
16.31
16.49
15.71
13.37
9.09
2.99
-4.17
-11.11
-16.25
-18.21
-16.16
-10.11
-0.89
10.19
21.67
32.28
41.11
47.67
51.69
53.15
52.17
49.09
44.46
39.00
33.51
28.65
24.87
22.27
20.75
20.06
19.93
20.18
20.65
21.10
21.22
20.57
18.74
15.49
10.86
5.25
-0.75
-6.53
-11.67
-16.12
-20.24
-24.70
-30.24
-37.41
-46.26
-56.21
-65.98
-73.93
-78.35
-77.95
-72.22
-61.57
-47.20
-30.81
-14.15
1.29
14.47
24.88
32.36
36.97
38.96
38.74
36.90
34.14
31.29
29.05
27.87
27.80
28.56
29.72
30.92
32.04
33.07
34.11
35.02
35.49
35.02
33.17
29.81
25.14
19.66
13.94
8.46
3.40
-1.38
-6.26
-11.84
-18.67
-27.04
-36.73
-46.84
-55.90
-62.23
-64.32
-61.29
-53.19
-40.96
-26.19
-10.74
3.75
16.13
25.84
32.79
37.18
39.27
39.31
37.59
34.58
30.95
27.54
25.09
24.01
24.25
25.38
26.84
28.17
29.16
29.83
30.26
30.46
30.23
29.23
27.13
23.74
19.19
13.89
8.41
3.27
-1.29
-5.36
-9.42
-14.13
-20.14
-27.74
-36.66
-46.01
-54.31
-59.90
-61.26
-57.55
-48.81
-36.05
-20.92
-5.27
9.19
21.34
30.56
36.76
40.10
40.92
39.67
36.91
33.35
29.79
26.97
25.38
25.16
26.05
27.60
29.29
30.79
31.98
32.93
33.67
34.06
33.79
32.51
30.04
26.49
22.25
17.82
13.57
9.58
5.60
1.16
-4.23
-10.93
-18.90
-27.64
-36.15
-43.06
-46.98
-46.82
-42.17
-33.49
-21.95
-9.09
3.54
14.74
23.78
30.37
34.45
36.19
35.80
33.69
30.39
26.60
23.10
20.54
19.37
19.63
21.00
22.89
24.66
25.84
26.31
26.13
25.51
24.49
22.89
20.42
16.84
12.20
6.88
1.43
-3.64
-8.08
-11.96
-15.63
-19.60
-24.34
-30.24
-37.44
-45.67
-54.16
-61.66
-66.67
-67.86
-64.53
-56.84
-45.80
-32.95
-19.88
-7.85
2.41
10.59
16.65
20.67
22.74
23.03
21.88
19.82
17.56
15.79
15.01
15.38
16.71
18.58
20.50
22.13
23.37
24.26
24.86
25.15
24.98
24.12
22.40
19.77
16.38
12.50
8.45
4.51
0.84
-2.54
-5.77
-9.08
-12.78
-17.20
-22.61
-29.08
-36.36
-43.77
-50.25
-54.59
-55.74
-53.17
-47.06
-38.20
-27.81
-17.12
-7.21
1.29
8.04
13.00
16.23
17.88
18.14
17.28
15.68
13.83
12.26
11.43
11.59
12.72
14.49
16.42
18.07
19.20
19.82
20.12
20.21
20.08
19.54
18.37
16.43
13.75
10.55
7.11
3.69
0.45
-2.53
-5.23
-7.74
-10.20
-12.87
-16.10
-20.24
-25.54
-31.88
-38.81
-45.39
-50.43
-52.72
-51.44
-46.47
-38.48
-28.71
-18.60
-9.35
-1.60
4.45
8.89
11.81
13.25
13.16
11.68
9.17
6.26
3.69
2.16
2.07
3.41
5.85
8.75
11.47
13.52
14.71
15.13
15.01
14.51
13.69
12.41
10.53
8.00
4.97
1.72
-1.42
-4.21
-6.55
-8.55
-10.46
-12.61
-15.40
-19.15
-23.95
-29.65
-35.67
-41.14
-45.02
-46.36
-44.59
-39.66
-32.08
-22.76
-12.82
-3.28
5.08
11.82
16.81
20.10
21.83
22.13
21.18
19.28
16.83
14.42
12.68
12.06
12.69
14.33
16.46
18.45
19.84
20.39
20.16
19.34
18.18
16.81
15.25
13.36
10.99
8.08
4.68
1.05
-2.53
-5.94
-9.31
-13.08
-17.77
-23.76
-30.99
-39.06
-47.25
-54.83
-61.17
-65.77
-68.21
-68.09
-65.16
-59.35
-50.98
-40.79
-29.73
-18.77
-8.69
0.02
7.13
12.50
16.05
17.81
17.95
16.91
15.34
13.96
13.37
13.88
15.38
17.52
19.77
21.71
23.12
24.00
24.50
24.72
24.71
24.36
23.49
21.98
19.83
17.19
14.34
11.53
8.90
6.39
3.80
0.87
-2.62
-6.82
-11.86
-17.85
-24.80
-32.43
-40.10
-46.70
-50.92
-51.55
-48.00
-40.49
-30.11
-18.43
-7.06
2.81
10.49
15.87
19.12
20.51
20.28
18.67
15.98
12.70
9.41
6.75
5.17
4.86
5.66
7.23
9.11
10.94
12.47
13.55
14.06
13.89
12.92
11.03
8.18
4.46
0.08
-4.67
-9.48
-14.04
-18.22
-22.06
-25.79
-29.76
-34.31
-39.66
-45.81
-52.45
-58.86
-64.08
-66.97
-66.54
-62.24
-54.16
-43.07
-30.20
-16.88
-4.27
6.94
16.39
23.98
29.64
33.34
35.07
35.00
33.45
31.04
28.47
26.46
25.57
26.04
27.79
30.48
33.56
36.54
39.07
40.98
42.16
42.52
41.83
39.88
36.52
31.88
26.38
20.62
15.29
10.80
7.16
3.97
0.49
-3.98
-9.81
-16.71
-23.74
-29.44
-32.32
-31.27
-25.95
-16.88
-5.25
7.46
19.90
31.12
40.61
48.21
53.84
57.45
58.97
58.50
56.37
53.15
49.55
46.13
43.19
40.69
38.36
35.89
33.06
29.80
26.04
21.63
16.31
9.89
2.38
-5.83
-14.11
-21.85
-28.68
-34.67
-40.19
-45.70
-51.45
-57.51
-63.84
-70.52
-77.75
-85.53
-93.34
-99.89
-103.39
-102.12
-95.26
-83.23
-67.60
-50.46
-33.81
-18.98
-6.67
2.93
9.80
14.01
15.85
15.93
15.14
14.40
14.35
15.22
16.84
18.91
21.17
23.53
26.01
28.60
31.22
33.67
35.72
37.13
37.69
37.20
35.55
32.66
28.51
23.14
16.68
9.42
1.76
-5.84
-13.08
-20.04
-27.26
-35.52
-45.36
-56.69
-68.40
-78.67
-85.41
-86.98
-82.71
-72.94
-58.85
-42.07
-24.24
-6.77
9.23
22.95
33.85
41.60
46.11
47.61
46.65
44.10
40.97
38.23
36.45
35.80
36.01
36.67
37.42
38.09
38.67
39.17
39.43
39.16
38.02
35.72
32.19
27.55
22.07
16.14
10.10
4.31
-0.99
-5.73
-10.00
-14.11
-18.51
-23.70
-30.07
-37.70
-46.14
-54.35
-60.83
-63.97
-62.57
-56.27
-45.75
-32.53
-18.50
-5.35
5.81
14.47
20.54
24.03
24.95
23.31
19.35
13.60
6.92
0.30
-5.39
-9.54
-11.94
-12.70
-12.11
-10.51
-8.26
-5.68
-3.04
-0.65
1.22
2.22
2.12
0.82
-1.51
-4.42
-7.31
-9.68
-11.31
-12.44
-13.67
-15.82
-19.57
-25.09
-31.96
-39.06
-44.83
-47.66
-46.28
-40.12
-29.41
-15.11
1.38
18.46
34.67
48.76
59.85
67.36
71.11
71.30
68.49
63.53
57.50
51.52
46.56
43.25
41.71
41.61
42.25
42.92
43.12
42.74
41.93
40.93
39.72
38.03
35.33
31.26
25.82
19.47
12.94
6.90
1.62
-3.17
-8.18
-14.26
-22.10
-31.97
-43.52
-55.78
-67.26
-76.13
-80.61
-79.42
-72.19
-59.62
-43.38
-25.67
-8.64
6.10
17.72
26.12
31.61
34.57
35.32
34.12
31.34
27.63
23.92
21.14
19.94
20.43
22.12
24.28
26.23
27.63
28.58
29.37
30.19
30.94
31.20
30.49
28.53
25.43
21.68
17.86
14.38
11.21
7.81
3.38
-2.88
-11.43
-22.29
-35.00
-48.65
-62.02
-73.62
-81.87
-85.36
-83.18
-75.12
-61.82
-44.65
-25.48
-6.36
10.83
24.75
34.71
40.77
43.59
44.08
43.15
41.39
39.16
36.70
34.37
32.60
31.79
32.02
32.97
34.05
34.66
34.46
33.42
31.70
29.35
26.18
21.77
15.70
7.85
-1.38
-11.21
-20.71
-29.19
-36.43
-42.77
-48.87
-55.48
-63.02
-71.44
-80.12
-88.02
-93.92
-96.64
-95.22
-89.09
-78.19
-63.03
-44.75
-24.90
-5.16
13.04
28.76
41.52
51.17
57.68
60.99
61.19
58.69
54.35
49.41
45.14
42.48
41.73
42.62
44.51
46.79
48.98
50.92
52.56
53.88
54.71
54.83
54.02
52.15
49.25
45.51
41.15
36.35
31.24
25.87
20.21
14.19
7.71
0.55
-7.52
-16.68
-26.85
-37.46
-47.44
-55.35
-59.73
-59.54
-54.51
-45.19
-32.78
-18.74
-4.36
9.43
22.04
33.06
42.13
48.85
53.08
55.01
55.40
55.28
55.68
57.31
60.28
64.25
68.65
72.98
76.90
80.21
82.63
83.74
82.88
79.39
72.86
63.29
51.19
37.50
23.30
9.59
-2.94
-14.03
-23.83
-32.83
-41.71
-51.17
-61.70
-73.29
-85.21
-96.04
-103.89
-106.99
-104.23
-95.66
-82.45
-66.55
-50.08
-34.77
-21.71
-11.38
-3.87
0.90
3.06
2.93
1.08
-1.60
-4.07
-5.38
-5.01
-2.96
0.25
3.87
7.22
9.91
11.90
13.35
14.40
14.99
14.85
13.59
10.95
6.96
1.99
-3.38
-8.58
-13.28
-17.45
-21.30
-25.20
-29.49
-34.49
-40.39
-47.25
-54.77
-62.22
-68.37
-71.71
-70.93
-65.38
-55.44
-42.40
-28.06
-14.15
-1.88
8.25
16.22
22.16
26.15
28.11
28.03
26.12
22.96
19.39
16.27
14.23
13.51
13.92
15.00
16.25
17.33
18.10
18.58
18.82
18.76
18.15
16.66
14.04
10.23
5.54
0.46
-4.48
-8.88
-12.64
-15.85
-18.84
-21.97
-25.69
-30.40
-36.34
-43.40
-50.94
-57.77
-62.38
-63.36
-59.92
-52.12
-40.87
-27.67
-14.08
-1.48
9.24
17.63
23.56
27.05
28.25
27.40
24.90
21.35
17.55
14.24
12.05
11.21
11.60
12.81
14.32
15.72
16.77
17.42
17.72
17.66
17.14
16.01
14.08
11.23
7.48
3.01
-1.82
-6.58
-10.89
-14.55
-17.64
-20.55
-23.87
-28.18
-33.84
-40.75
-48.26
-55.26
-60.38
-62.37
-60.48
-54.59
-45.28
-33.65
-21.02
-8.66
2.38
11.38
17.91
21.85
23.38
22.90
21.02
18.43
15.78
13.63
12.35
12.09
12.82
14.31
16.24
18.25
20.03
21.40
22.23
22.44
21.90
20.48
18.06
14.71
10.64
6.22
1.84
-2.25
-6.01
-9.65
-13.55
-18.15
-23.79
-30.52
-38.01
-45.35
-51.31
-54.50
-53.83
-48.93
-40.22
-28.83
-16.22
-3.81
7.36
16.64
23.70
28.36
30.57
30.41
28.23
24.63
20.51
16.78
14.20
13.12
13.46
14.78
16.51
18.15
19.48
20.51
21.31
21.85
21.87
21.00
18.84
15.28
10.52
5.06
-0.50
-5.64
-10.14
-14.11
-17.91
-22.12
-27.24
-33.64
-41.28
-49.66
-57.76
-64.21
-67.60
-66.86
-61.58
-52.18
-39.76
-25.84
-11.94
0.75
11.51
20.01
26.12
29.85
31.25
30.52
28.15
24.88
21.61
19.14
17.94
18.08
19.21
20.83
22.52
24.05
25.38
26.57
27.61
28.31
28.31
27.21
24.69
20.73
15.62
9.95
4.37
-0.58
-4.68
-8.11
-11.36
-15.05
-19.78
-25.86
-33.21
-41.31
-49.20
-55.60
-59.22
-59.02
-54.55
-46.14
-34.78
-21.91
-9.01
2.77
12.69
20.46
26.02
29.39
30.61
29.85
27.51
24.28
21.05
18.64
17.56
17.90
19.31
21.27
23.29
25.10
26.62
27.82
28.64
28.87
28.22
26.48
23.59
19.76
15.36
10.82
6.49
2.50
-1.18
-4.76
-8.54
-12.85
-17.98
-24.11
-31.17
-38.74
-45.98
-51.69
-54.62
-53.80
-48.85
-40.16
-28.82
-16.26
-3.91
7.12
16.17
22.98
27.51
29.80
29.98
28.33
25.31
21.68
18.34
16.07
15.34
16.18
18.15
20.62
23.04
25.07
26.63
27.82
28.63
28.91
28.37
26.73
23.89
20.03
15.58
11.07
6.91
3.24
-0.12
-3.64
-7.88
-13.32
-20.14
-28.03
-36.16
-43.32
-48.18
-49.62
-47.14
-40.91
-31.76
-20.91
-9.60
1.10
10.41
17.84
23.15
26.27
27.27
26.48
24.33
21.40
18.31
15.62
13.82
13.16
13.66
15.05
16.88
18.60
19.85
20.47
20.55
20.26
19.62
18.48
16.54
13.56
9.55
4.80
-0.16
-4.88
-9.11
-12.89
-16.49
-20.30
-24.67
-29.86
-36.01
-43.07
-50.72
-58.29
-64.80
-69.04
-69.94
-66.92
-60.12
-50.44
-39.31
-28.27
-18.52
-10.74
-5.03
-1.14
1.31
2.66
3.20
3.20
3.09
3.33
4.38
6.48
9.62
13.56
17.98
22.73
27.76
33.11
38.65
43.93
48.25
50.77
50.85
48.28
43.37
36.92
30.02
23.67
18.56
14.91
12.45
10.58
8.57
5.74
1.59
-4.10
-11.26
-19.46
-27.83
-35.20
-40.26
-41.97
-39.88
-34.35
-26.37
-17.28
-8.30
-0.23
6.56
12.05
16.27
19.23
20.88
21.20
20.36
18.77
16.98
15.63
15.19
15.83
17.42
19.57
21.87
23.94
25.66
27.03
28.09
28.82
29.09
28.64
27.24
24.77
21.32
17.17
12.74
8.49
4.75
1.66
-0.91
-3.33
-6.15
-9.93
-15.03
-21.51
-29.01
-36.75
-43.64
-48.49
-50.28
-48.44
-43.06
-34.80
-24.84
-14.51
-5.02
2.76
8.38
11.74
13.04
12.55
10.70
7.91
4.70
1.54
-1.16
-3.16
-4.44
-5.11
-5.37
-5.41
-5.34
-5.25
-5.25
-5.50
-6.15
-7.31
-8.95
-10.97
-13.18
-15.45
-17.73
-20.04
-22.36
-24.65
-26.82
-28.87
-30.98
-33.41
-36.43
-39.98
-43.58
-46.33
-47.13
-45.07
-39.71
-31.22
-20.35
-8.17
4.23
15.93
26.27
34.86
41.44
45.90
48.20
48.56
47.49
45.78
44.37
43.99
44.93
46.89
49.15
50.89
51.59
51.17
49.94
48.29
46.49
44.52
42.23
39.42
36.05
32.19
28.02
23.68
19.31
15.09
11.19
7.70
4.47
1.03
-3.26
-8.99
-16.21
-24.28
-31.96
-37.77
-40.47
-39.50
-35.10
-28.10
-19.63
-10.77
-2.36
5.02
11.04
15.55
18.53
20.15
20.73
20.74
20.64
20.84
21.59
22.94
24.75
26.78
28.67
30.10
30.75
30.39
28.93
26.34
22.63
17.74
11.53
3.87
-5.24
-15.52
-26.47
-37.41
-47.70
-56.93
-64.94
-71.84
-77.89
-83.40
-88.70
-94.02
-99.33
-104.22
-107.79
-108.82
-106.16
-99.15
-87.88
-73.26
-56.68
-39.63
-23.40
-8.84
3.59
13.77
21.77
27.79
32.15
35.14
37.10
38.30
39.06
39.70
40.54
41.83
43.63
45.84
48.16
50.25
51.85
52.83
53.15
52.84
51.98
50.53
48.40
45.41
41.48
36.61
31.03
25.13
19.36
14.08
9.34
4.93
0.34
-5.09
-11.90
-20.36
-30.30
-41.04
-51.49
-60.33
-66.35
-68.77
-67.42
-62.84
-56.05
-48.31
-40.71
-33.95
-28.33
-23.79
-20.22
-17.48
-15.53
-14.23
-13.31
-12.22
-10.38
-7.34
-3.07
2.07
7.42
12.30
16.26
19.20
21.28
22.75
23.72
24.12
23.71
22.17
19.35
15.30
10.39
5.13
0.09
-4.29
-7.90
-10.91
-13.82
-17.21
-21.63
-27.41
-34.52
-42.52
-50.59
-57.55
-62.17
-63.38
-60.51
-53.54
-43.13
-30.45
-16.93
-3.91
7.56
16.88
23.81
28.44
31.02
31.94
31.69
30.78
29.69
28.78
28.25
28.14
28.44
29.06
29.90
30.85
31.73
32.35
32.58
32.23
31.16
29.20
26.17
21.94
16.58
10.44
4.04
-2.02
-7.28
-11.57
-15.05
-18.21
-21.71
-26.31
-32.56
-40.52
-49.53
-58.21
-64.71
-67.37
-65.18
-58.12
-47.03
-33.32
-18.42
-3.47
10.72
23.65
34.99
44.44
51.78
56.86
59.72
60.65
60.25
59.33
58.73
59.11
60.70
63.29
66.29
68.99
70.77
71.33
70.57
68.60
65.61
61.71
56.91
51.13
44.27
36.29
27.36
17.80
8.01
-1.69
-11.22
-20.81
-30.86
-41.79
-53.79
-66.72
-80.07
-92.96
-104.18
-112.27
-115.70
-113.22
-104.34
-89.72
-71.11
-50.99
-31.79
-15.20
-1.87
8.40
16.15
21.77
25.32
26.78
26.43
24.96
23.42
22.76
23.45
25.32
27.73
29.99
31.70
32.77
33.35
33.55
33.30
32.37
30.47
27.31
22.77
16.91
9.91
2.07
-6.22
-14.60
-22.76
-30.55
-37.94
-44.94
-51.51
-57.57
-62.94
-67.51
-71.15
-73.60
-74.34
-72.55
-67.24
-57.74
-44.02
-26.91
-8.02
10.82
27.93
42.23
53.18
60.67
64.74
65.55
63.49
59.38
54.55
50.58
48.74
49.50
52.40
56.24
59.73
62.06
63.15
63.49
63.68
63.86
63.65
62.28
59.07
53.79
46.76
38.63
30.06
21.45
12.99
4.70
-3.36
-11.09
-18.50
-25.74
-33.20
-41.32
-50.35
-60.09
-69.70
-77.85
-82.91
-83.39
-78.44
-68.14
-53.54
-36.43
-18.86
-2.58
11.21
21.96
29.56
34.12
35.84
35.05
32.30
28.48
24.62
21.70
20.31
20.53
21.99
24.12
26.39
28.49
30.33
31.89
33.01
33.39
32.56
30.17
26.11
20.68
14.39
7.85
1.51
-4.48
-10.32
-16.47
-23.50
-31.91
-41.90
-53.11
-64.54
-74.56
-81.25
-82.89
-78.53
-68.32
-53.48
-35.93
-17.77
-0.78
13.85
25.48
33.87
38.94
40.78
39.65
36.19
31.37
26.44
22.54
20.42
20.17
21.32
23.09
24.75
25.90
26.53
26.83
26.98
26.86
26.09
24.18
20.76
15.78
9.65
3.03
-3.32
-8.89
-13.62
-17.92
-22.50
-28.16
-35.50
-44.60
-54.90
-65.19
-73.73
-78.68
-78.50
-72.43
-60.80
-44.93
-26.75
-8.36
8.56
22.90
34.17
42.20
47.04
48.83
47.89
44.79
40.43
35.86
32.03
29.57
28.62
28.92
29.92
31.11
32.17
32.98
33.55
33.85
33.63
32.47
29.85
25.51
19.48
12.31
4.75
-2.40
-8.68
-14.08
-19.03
-24.28
-30.53
-38.23
-47.27
-56.93
-65.89
-72.45
-75.03
-72.52
-64.67
-52.10
-36.13
-18.37
-0.41
16.42
31.11
42.90
51.29
56.07
57.37
55.77
52.16
47.58
42.99
39.11
36.28
34.54
33.73
33.61
33.95
34.53
35.16
35.57
35.46
34.54
32.61
29.59
25.57
20.79
15.57
10.32
5.38
0.92
-3.18
-7.36
-12.27
-18.50
-26.23
-34.94
-43.39
-49.90
-52.83
-51.13
-44.65
-34.15
-21.02
-6.93
6.62
18.51
27.97
34.63
38.38
39.37
37.97
34.83
30.73
26.47
22.78
20.14
18.75
18.55
19.28
20.59
22.09
23.43
24.27
24.34
23.43
21.48
18.51
14.69
10.26
5.57
0.93
-3.43
-7.43
-11.23
-15.19
-19.81
-25.57
-32.65
-40.77
-49.05
-56.12
-60.38
-60.59
-56.22
-47.66
-36.14
-23.28
-10.64
0.64
9.93
17.00
21.86
24.53
25.17
24.07
21.77
19.00
16.54
14.95
14.47
14.96
16.01
17.13
17.96
18.36
18.42
18.26
17.93
17.26
15.94
13.69
10.38
6.24
1.73
-2.58
-6.28
-9.25
-11.76
-14.27
-17.28
-21.19
-26.16
-32.05
-38.33
-44.20
-48.61
-50.48
-49.09
-44.22
-36.37
-26.57
-16.07
-6.01
2.79
9.95
15.33
18.96
20.92
21.30
20.28
18.26
15.78
13.47
11.90
11.37
11.85
13.03
14.43
15.59
16.27
16.38
16.05
15.41
14.51
13.25
11.45
8.97
5.82
2.20
-1.53
-4.97
-7.80
-9.98
-11.70
-13.39
-15.58
-18.77
-23.23
-28.84
-35.07
-40.93
-45.20
-46.78
-45.01
-39.92
-32.25
-23.20
-14.06
-5.83
0.90
5.97
9.43
11.34
11.77
10.85
8.88
6.31
3.68
1.49
0.06
-0.52
-0.36
0.30
1.22
2.20
3.10
3.84
4.35
4.52
4.23
3.38
1.92
-0.04
-2.28
-4.53
-6.53
-8.16
-9.49
-10.77
-12.35
-14.64
-17.91
-22.23
-27.38
-32.73
-37.39
-40.38
-40.86
-38.43
-33.25
-26.02
-17.71
-9.29
-1.51
5.16
10.50
14.41
16.77
17.51
16.69
14.64
11.95
9.35
7.51
6.81
7.19
8.27
9.51
10.46
10.89
10.81
10.38
9.74
8.90
7.70
5.94
3.41
0.07
-3.91
-8.16
-12.21
-15.65
-18.26
-20.19
-21.89
-24.04
-27.27
-31.92
-37.87
-44.52
-50.95
-56.17
-59.34
-60.00
-58.14
-54.12
-48.58
-42.28
-35.97
-30.30
-25.66
-22.21
-19.97
-18.85
-18.76
-19.59
-21.15
-23.04
-24.63
-25.19
-24.21
-21.66
-18.07
-14.33
-11.29
-9.34
-8.25
-7.34
-5.81
-3.24
0.22
4.00
7.34
9.69
10.91
11.27
11.24
11.28
11.55
11.86
11.75
10.61
7.89
3.36
-2.83
-10.10
-17.50
-23.91
-28.25
-29.76
-28.09
-23.39
-16.25
-7.55
1.64
10.32
17.66
23.17
26.68
28.32
28.42
27.37
25.64
23.67
21.93
20.76
20.33
20.58
21.23
21.92
22.38
22.46
22.25
21.92
21.64
21.52
21.55
21.57
21.28
20.36
18.51
15.61
11.79
7.37
2.81
-1.58
-5.67
-9.59
-13.68
-18.35
-23.95
-30.67
-38.42
-46.75
-54.78
-61.27
-64.90
-64.61
-59.94
-51.25
-39.63
-26.61
-13.71
-2.08
7.59
15.15
20.63
24.19
25.96
26.11
24.98
23.12
21.24
20.05
20.05
21.33
23.66
26.53
29.42
31.89
33.71
34.82
35.29
35.18
34.47
33.05
30.74
27.45
23.17
18.13
12.75
7.48
2.73
-1.37
-4.93
-8.35
-12.12
-16.75
-22.55
-29.57
-37.43
-45.28
-51.92
-55.98
-56.25
-52.04
-43.42
-31.24
-16.93
-2.14
11.64
23.32
32.26
38.24
41.27
41.63
39.75
36.30
32.18
28.34
25.61
24.46
24.86
26.36
28.32
30.15
31.55
32.48
33.01
33.21
33.01
32.17
30.41
27.60
23.82
19.36
14.65
10.10
5.97
2.27
-1.22
-4.95
-9.45
-15.17
-22.30
-30.61
-39.36
-47.35
-53.09
-55.19
-52.71
-45.49
-34.28
-20.44
-5.69
8.43
20.73
30.56
37.58
41.72
42.96
41.47
37.68
32.37
26.63
21.65
18.35
17.11
17.70
19.46
21.58
23.45
24.78
25.62
26.10
26.23
25.84
24.62
22.32
18.88
14.45
9.41
4.15
-0.98
-5.81
-10.35
-14.78
-19.50
-25.01
-31.78
-40.03
-49.46
-59.11
-67.50
-72.91
-73.86
-69.56
-60.24
-46.98
-31.44
-15.37
-0.22
13.03
23.86
32.02
37.41
40.00
39.95
37.65
33.80
29.34
25.25
22.29
20.82
20.74
21.57
22.68
23.56
23.92
23.79
23.28
22.47
21.18
19.02
15.57
10.64
4.37
-2.68
-9.79
-16.37
-22.20
-27.44
-32.49
-37.80
-43.72
-50.44
-57.98
-66.12
-74.21
-81.07
-85.16
-84.84
-79.06
-67.66
-51.62
-32.75
-13.11
5.50
21.93
35.60
46.30
53.96
58.57
60.24
59.38
56.73
53.23
49.83
47.25
45.83
45.53
46.10
47.17
48.40
49.52
50.32
50.62
50.24
49.01
46.75
43.38
38.97
33.79
28.34
23.16
18.63
14.79
11.25
7.31
2.26
-4.32
-12.35
-21.16
-29.57
-36.25
-39.97
-39.82
-35.40
-27.00
-15.61
-2.88
9.30
19.18
25.65
28.44
28.08
25.46
21.53
16.92
11.96
6.92
2.21
-1.63
-4.08
-4.97
-4.53
-3.34
-1.96
-0.73
0.38
1.55
2.89
4.28
5.33
5.57
4.67
2.54
-0.69
-4.75
-9.41
-14.55
-20.14
-26.33
-33.36
-41.49
-50.77
-60.67
-70.00
-77.06
-80.08
-77.85
-70.25
-58.21
-43.38
-27.51
-11.97
2.40
15.16
25.91
34.21
39.55
41.71
40.95
38.04
34.12
30.29
27.35
25.59
24.90
24.94
25.38
26.11
27.11
28.43
29.91
31.13
31.46
30.25
27.17
22.33
16.30
9.85
3.65
-1.94
-7.03
-12.10
-17.82
-24.82
-33.48
-43.72
-54.95
-66.02
-75.37
-81.31
-82.45
-78.08
-68.38
-54.39
-37.73
-20.19
-3.37
11.55
23.85
33.14
39.29
42.36
42.59
40.54
37.00
32.94
29.26
26.56
25.00
24.33
24.12
24.04
23.97
24.05
24.45
25.23
26.12
26.63
26.20
24.39
21.08
16.50
11.16
5.70
0.71
-3.52
-7.04
-10.32
-14.12
-19.22
-26.14
-34.78
-44.33
-53.26
-59.70
-61.86
-58.63
-49.91
-36.62
-20.51
-3.63
12.14
25.48
35.68
42.51
46.07
46.61
44.49
40.27
34.73
28.88
23.76
20.26
18.84
19.44
21.48
24.09
26.43
27.95
28.50
28.25
27.43
26.12
24.24
21.60
18.11
13.99
9.63
5.48
1.70
-1.92
-5.93
-11.03
-17.72
-26.12
-35.72
-45.51
-54.03
-59.76
-61.45
-58.45
-50.96
-39.96
-26.95
-13.56
-1.18
9.19
17.06
22.23
24.73
24.77
22.74
19.25
15.08
11.04
7.81
5.83
5.23
5.89
7.51
9.69
12.04
14.16
15.69
16.24
15.48
13.14
9.07
3.35
-3.68
-11.31
-18.56
-24.22
-27.13
-26.45
-21.88
-13.79
-3.13
8.79
20.57
31.08
39.56
45.64
49.32
50.82
50.48
48.73
46.06
42.94
39.85
37.22
35.41
34.67
35.05
36.28
37.77
38.70
38.28
36.13
32.37
27.66
22.85
18.67
15.46
13.16
11.41
9.75
7.74
4.98
1.16
-3.92
-10.25
-17.56
-25.37
-33.21
-40.86
-48.40
-56.05
-63.97
-71.90
-79.06
-84.28
-86.34
-84.30
-77.82
-67.19
-53.31
-37.45
-20.98
-5.19
8.89
20.51
29.25
34.96
37.74
37.79
35.38
30.81
24.46
16.82
8.50
0.25
-7.23
-13.37
-17.97
-21.15
-23.44
-25.49
-27.92
-31.02
-34.73
-38.76
-42.71
-46.29
-49.29
-51.53
-52.74
-52.63
-51.05
-48.16
-44.65
-41.54
-39.98
-40.76
-43.99
-48.98
-54.34
-58.39
-59.65
-57.17
-50.83
-41.24
-29.43
-16.58
-3.72
8.38
19.08
27.94
34.54
38.67
40.37
39.99
38.15
35.58
32.99
30.93
29.71
29.41
29.93
31.04
32.45
33.89
35.10
35.87
36.00
35.36
33.78
31.24
27.76
23.59
19.01
14.46
10.32
6.76
3.71
0.77
-2.67
-7.22
-13.26
-20.69
-28.92
-36.86
-43.22
-46.76
-46.63
-42.60
-35.14
-25.22
-14.06
-2.88
7.36
16.01
22.69
27.20
29.52
29.76
28.24
25.52
22.34
19.47
17.53
16.89
17.55
19.32
21.83
24.73
27.70
30.46
32.76
34.33
34.94
34.40
32.64
29.77
26.09
21.99
17.92
14.16
10.75
7.44
3.73
-0.89
-6.73
-13.73
-21.37
-28.75
-34.73
-38.14
-38.06
-34.05
-26.24
-15.46
-2.99
9.66
21.12
30.41
37.04
40.84
41.84
40.24
36.44
31.08
25.09
19.54
15.31
12.88
12.11
12.37
12.84
12.81
11.98
10.39
8.29
5.89
3.30
0.44
-2.78
-6.36
-10.19
-14.04
-17.74
-21.17
-24.41
-27.62
-31.04
-34.99
-39.77
-45.58
-52.44
-59.92
-67.19
-73.02
-76.08
-75.28
-70.11
-60.83
-48.47
-34.52
-20.59
-8.01
2.38
10.24
15.56
18.48
19.15
17.78
14.82
10.94
7.09
4.14
2.59
2.36
2.89
3.55
3.92
4.10
4.52
5.58
7.21
8.85
9.56
8.60
5.72
1.37
-3.56
-8.18
-11.97
-14.99
-17.71
-20.76
-24.66
-29.67
-35.86
-43.07
-50.83
-58.27
-64.02
-66.46
-64.21
-56.70
-44.42
-28.84
-11.90
4.57
19.21
31.30
40.45
46.40
49.05
48.47
45.18
40.15
34.59
29.65
26.09
24.23
23.97
25.03
27.05
29.63
32.40
34.97
36.93
37.95
37.77
36.33
33.72
30.18
26.02
21.52
16.92
12.30
7.53
2.34
-3.65
-10.69
-18.75
-27.32
-35.47
-41.92
-45.44
-45.09
-40.59
-32.37
-21.44
-9.16
3.12
14.24
23.42
30.14
34.11
35.26
33.75
30.03
24.82
19.08
13.75
9.62
7.11
6.23
6.68
7.90
9.29
10.27
10.45
9.60
7.76
5.14
2.03
-1.25
-4.51
-7.74
-11.09
-14.83
-19.32
-24.87
-31.59
-39.22
-47.01
-53.75
-58.03
-58.57
-54.66
-46.38
-34.55
-20.61
-6.18
7.23
18.46
26.82
32.11
34.54
34.55
32.75
29.73
26.07
22.29
18.89
16.39
15.21
15.55
17.25
19.76
22.28
23.96
24.15
22.60
19.46
15.17
10.31
5.38
0.70
-3.60
-7.63
-11.72
-16.33
-21.96
-29.02
-37.47
-46.73
-55.52
-62.08
-64.69
-62.14
-54.26
-42.02
-27.18
-11.80
2.40
14.32
23.60
30.33
34.86
37.48
38.47
38.16
36.97
35.42
33.98
32.92
32.26
31.81
31.40
30.96
30.60
30.47
30.57
30.68
30.31
28.93
26.24
22.27
17.35
11.96
6.50
1.15
-4.17
-9.80
-16.16
-23.69
-32.58
-42.52
-52.58
-61.24
-66.70
-67.43
-62.71
-52.93
-39.49
-24.33
-9.36
4.03
15.12
23.74
29.99
34.02
36.02
36.22
35.02
32.93
30.50
28.24
26.44
25.26
24.69
24.68
25.15
25.94
26.81
27.47
27.55
26.74
24.81
21.69
17.49
12.54
7.23
1.95
-3.04
-7.75
-12.48
-17.76
-24.13
-31.93
-40.99
-50.46
-58.90
-64.64
-66.24
-63.00
-55.14
-43.79
-30.56
-17.10
-4.70
5.88
14.32
20.58
24.72
26.83
27.07
25.79
23.54
21.08
19.12
18.16
18.30
19.25
20.47
21.46
21.94
22.00
21.90
21.87
21.94
21.85
21.21
19.61
16.85
12.98
8.28
3.17
-1.95
-6.80
-11.33
-15.66
-20.13
-25.17
-31.18
-38.26
-46.04
-53.61
-59.60
-62.56
-61.45
-55.92
-46.53
-34.52
-21.45
-8.76
2.46
11.61
18.43
22.93
25.21
25.49
24.09
21.45
18.18
14.96
12.47
11.15
11.20
12.41
14.30
16.26
17.81
18.70
19.01
18.94
18.68
18.24
17.41
15.88
13.40
9.93
5.68
1.10
-3.35
-7.33
-10.75
-13.82
-16.89
-20.37
-24.58
-29.75
-35.92
-42.92
-50.18
-56.72
-61.21
-62.34
-59.18
-51.65
-40.58
-27.49
-14.10
-1.85
8.41
16.40
22.11
25.68
27.17
26.69
24.51
21.23
17.63
14.52
12.52
11.84
12.33
13.60
15.17
16.72
18.05
19.07
19.77
20.06
19.82
18.86
17.07
14.35
10.77
6.53
1.97
-2.47
-6.46
-9.85
-12.74
-15.53
-18.75
-22.94
-28.38
-35.01
-42.26
-49.14
-54.37
-56.71
-55.25
-49.72
-40.58
-28.91
-16.11
-3.56
7.63
16.77
23.47
27.62
29.23
28.49
25.82
21.81
17.25
12.95
9.58
7.50
6.80
7.27
8.59
10.39
12.40
14.38
16.10
17.28
17.59
16.80
14.81
11.78
8.10
4.22
0.55
-2.68
-5.58
-8.42
-11.66
-15.78
-21.15
-27.88
-35.64
-43.60
-50.48
-54.80
-55.27
-51.21
-42.74
-30.80
-16.88
-2.62
10.61
21.81
30.40
36.11
38.86
38.77
36.21
31.83
26.48
21.09
16.45
13.05
11.04
10.27
10.44
11.20
12.23
13.27
14.03
14.20
13.44
11.48
8.20
3.76
-1.47
-6.99
-12.35
-17.32
-21.98
-26.65
-31.85
-38.08
-45.69
-54.64
-64.40
-73.82
-81.29
-85.11
-83.92
-77.20
-65.53
-50.42
-33.86
-17.78
-3.67
7.71
16.04
21.29
23.52
22.85
19.60
14.40
8.24
2.24
-2.61
-5.67
-6.81
-6.21
-4.23
-1.32
2.16
5.80
9.18
11.93
13.77
14.69
14.89
14.74
14.58
14.58
14.71
14.72
14.23
12.84
10.13
5.82
-0.19
-7.65
-15.80
-23.43
-29.05
-31.20
-28.93
-21.99
-11.02
2.73
17.65
32.17
45.02
55.26
62.38
66.10
66.46
63.74
58.55
51.77
44.43
37.52
31.74
27.37
24.27
22.07
20.39
19.00
17.81
16.81
15.85
14.59
12.61
9.56
5.36
0.30
-5.14
-10.43
-15.22
-19.43
-23.27
-27.18
-31.72
-37.46
-44.66
-53.14
-61.97
-69.60
-74.20
-74.17
-68.64
-57.74
-42.56
-24.75
-6.12
11.72
27.60
40.75
50.75
57.42
60.79
61.11
58.90
54.91
50.13
45.59
42.16
40.34
40.15
41.20
42.87
44.56
45.81
46.37
46.12
44.99
42.87
39.69
35.39
30.05
24.01
17.92
12.65
9.21
8.50
11.04
16.93
25.66
36.28
47.55
58.07
66.59
72.14
74.21
72.87
68.68
62.59
55.67
48.96
43.31
39.28
37.09
36.65
37.52
39.04
40.44
40.92
39.89
37.00
32.26
26.02
18.92
11.72
5.15
-0.32
-4.61
-8.06
-11.30
-15.04
-19.73
-25.43
-31.70
-37.81
-43.02
-46.87
-49.42
-51.27
-53.42
-56.89
-62.38
-69.99
-79.01
-88.09
-95.42
-99.23
-98.19
-91.78
-80.42
-65.40
-48.55
-31.79
-16.78
-4.61
4.19
9.62
12.03
12.07
10.52
8.22
6.01
4.55
4.26
5.26
7.40
10.37
13.77
17.23
20.39
22.97
24.78
25.80
26.04
25.56
24.36
22.34
19.48
15.90
11.91
7.96
4.41
1.35
-1.50
-4.69
-8.85
-14.37
-21.25
-29.07
-37.05
-44.15
-49.32
-51.64
-50.54
-45.94
-38.34
-28.70
-18.25
-8.21
0.49
7.28
12.00
14.67
15.45
14.59
12.42
9.44
6.28
3.58
1.83
1.23
1.74
3.08
4.96
7.09
9.27
11.30
12.94
13.92
13.98
12.98
10.96
8.16
4.96
1.77
-1.12
-3.65
-5.99
-8.57
-11.92
-16.54
-22.66
-30.04
-37.88
-44.90
-49.66
-50.99
-48.36
-42.05
-33.04
-22.68
-12.25
-2.70
5.43
11.87
16.43
18.97
19.47
18.14
15.50
12.28
9.23
6.88
5.45
4.87
4.97
5.57
6.55
7.82
9.24
10.57
11.50
11.73
11.11
9.60
7.32
4.46
1.27
-2.04
-5.26
-8.33
-11.29
-14.39
-17.97
-22.46
-28.17
-35.06
-42.64
-49.93
-55.65
-58.50
-57.60
-52.73
-44.43
-33.78
-22.14
-10.74
-0.51
7.94
14.21
18.12
19.60
18.90
16.55
13.39
10.30
7.98
6.76
6.58
7.06
7.73
8.27
8.56
8.71
8.89
9.17
9.41
9.29
8.44
6.72
4.26
1.46
-1.25
-3.59
-5.62
-7.71
-10.37
-14.10
-19.15
-25.46
-32.67
-40.08
-46.72
-51.45
-53.14
-50.98
-44.72
-34.92
-22.80
-9.95
2.08
12.19
19.82
24.91
27.63
28.27
27.07
24.40
20.82
17.07
13.89
11.83
11.05
11.35
12.31
13.49
14.61
15.50
16.02
15.95
15.01
12.95
9.69
5.40
0.44
-4.79
-10.02
-15.19
-20.38
-25.80
-31.77
-38.64
-46.75
-56.17
-66.48
-76.55
-84.76
-89.33
-88.98
-83.38
-73.28
-60.30
-46.40
-33.34
-22.34
-13.97
-8.20
-4.64
-2.75
-1.97
-1.89
-2.15
-2.47
-2.54
-2.11
-1.01
0.81
3.28
6.30
9.81
13.84
18.45
23.67
29.40
35.38
41.19
46.35
50.58
53.87
56.55
59.16
62.23
66.03
70.42
74.79
78.36
80.34
80.25
78.02
74.15
69.56
65.60
63.67
64.96
70.00
78.50
89.38
101.06
111.95
120.87
127.10
130.38
130.64
127.84
121.78
112.36
99.62
84.06
66.66
48.72
31.63
16.39
3.40
-7.55
-17.02
-25.59
-33.56
-40.83
-47.11
-52.13
-55.85
-58.56
-60.74
-62.81
-64.98
-67.22
-69.31
-70.98
-72.02
-72.33
-71.93
-71.02
-69.96
-69.30
-69.68
-71.66
-75.42
-80.48
-85.64
-89.20
-89.43
-85.16
-76.17
-63.16
-47.53
-30.78
-14.22
1.23
14.92
26.39
35.22
41.21
44.42
45.29
44.50
42.83
40.90
39.11
37.69
36.72
36.27
36.43
37.24
38.68
40.51
42.36
43.77
44.34
43.86
42.38
40.15
37.56
34.90
32.32
29.73
26.95
23.72
19.88
15.37
10.30
4.88
-0.62
-5.95
-11.00
-15.88
-20.94
-26.68
-33.59
-41.80
-50.90
-59.80
-66.97
-70.90
-70.55
-65.73
-57.13
-46.11
-34.22
-22.75
-12.50
-3.82
3.30
8.85
12.80
15.03
15.56
14.71
13.15
11.80
11.51
12.71
15.33
18.80
22.45
25.74
28.41
30.45
31.88
32.67
32.65
31.66
29.70
26.93
23.68
20.27
16.87
13.50
10.01
6.24
2.12
-2.20
-6.45
-10.29
-13.55
-16.26
-18.77
-21.62
-25.30
-30.15
-36.11
-42.71
-49.12
-54.20
-56.81
-56.06
-51.56
-43.60
-33.07
-21.29
-9.62
0.82
9.36
15.72
19.89
22.01
22.28
20.97
18.54
15.59
12.83
10.91
10.28
11.04
12.98
15.61
18.36
20.70
22.31
23.08
23.18
22.79
22.07
21.06
19.58
17.45
14.58
11.13
7.38
3.74
0.50
-2.29
-4.75
-7.21
-9.97
-13.30
-17.39
-22.31
-27.95
-33.91
-39.47
-43.67
-45.50
-44.24
-39.69
-32.31
-23.09
-13.28
-4.09
3.61
9.40
13.27
15.42
16.14
15.65
14.20
12.06
9.69
7.54
6.13
5.75
6.41
7.91
9.81
11.72
13.26
14.24
14.56
14.26
13.50
12.49
11.40
10.30
9.08
7.52
5.38
2.58
-0.75
-4.36
-7.96
-11.33
-14.42
-17.35
-20.35
-23.67
-27.59
-32.39
-38.19
-44.87
-51.89
-58.25
-62.69
-64.01
-61.45
-55.01
-45.51
-34.34
-23.05
-12.91
-4.65
1.58
5.98
8.91
10.60
11.19
10.80
9.66
8.14
6.76
6.01
6.23
7.49
9.61
12.22
14.86
17.13
18.79
19.75
20.03
19.72
18.86
17.46
15.49
12.98
9.96
6.55
2.89
-0.84
-4.50
-7.96
-11.16
-14.15
-17.10
-20.27
-23.98
-28.51
-34.04
-40.51
-47.56
-54.45
-60.14
-63.45
-63.33
-59.27
-51.49
-40.91
-28.95
-17.10
-6.56
2.01
8.42
12.84
15.56
16.81
16.79
15.76
14.09
12.27
10.85
10.27
10.81
12.45
14.94
17.88
20.79
23.24
24.96
25.83
25.91
25.37
24.35
22.95
21.12
18.75
15.75
12.13
8.06
3.77
-0.51
-4.71
-8.85
-13.04
-17.44
-22.20
-27.46
-33.39
-40.08
-47.43
-54.93
-61.63
-66.25
-67.51
-64.57
-57.34
-46.55
-33.57
-20.01
-7.32
3.55
12.10
18.23
22.00
23.52
22.94
20.53
16.84
12.69
9.00
6.61
5.99
7.10
9.47
12.33
14.88
16.53
17.04
16.49
15.29
13.97
13.12
13.14
14.19
16.16
18.72
21.45
23.99
26.12
27.73
28.76
29.11
28.58
26.93
24.03
19.96
15.05
9.83
4.84
0.42
-3.38
-6.88
-10.60
-15.14
-20.93
-28.13
-36.50
-45.32
-53.49
-59.67
-62.52
-61.05
-54.88
-44.37
-30.62
-15.21
0.15
13.97
25.19
33.24
38.04
39.81
38.99
36.22
32.26
27.97
24.22
21.77
21.05
22.07
24.48
27.66
30.97
33.90
36.15
37.60
38.14
37.63
35.91
32.83
28.43
23.01
17.06
11.20
5.88
1.27
-2.90
-7.25
-12.59
-19.67
-28.76
-39.43
-50.42
-59.90
-65.86
-66.68
-61.63
-51.08
-36.32
-19.25
-1.77
14.55
28.64
39.87
47.93
52.68
54.18
52.79
49.22
44.47
39.70
35.89
33.62
32.95
33.46
34.52
35.57
36.24
36.50
36.41
36.01
35.14
33.46
30.56
26.18
20.39
13.62
6.56
-0.10
-5.93
-10.92
-15.43
-20.14
-25.81
-33.05
-42.15
-52.80
-63.99
-74.05
-80.94
-82.73
-78.27
-67.60
-52.05
-33.83
-15.35
1.46
15.54
26.65
34.98
40.79
44.18
45.19
44.08
41.42
38.12
35.18
33.35
32.86
33.42
34.42
35.29
35.76
35.88
35.91
36.06
36.23
36.05
34.91
32.31
28.05
22.35
15.81
9.21
3.23
-1.81
-6.03
-9.99
-14.51
-20.40
-28.17
-37.73
-48.24
-58.11
-65.41
-68.27
-65.52
-57.03
-43.74
-27.39
-9.97
6.81
21.74
34.16
43.76
50.39
54.04
54.88
53.34
50.22
46.47
43.07
40.76
39.90
40.36
41.67
43.14
44.12
44.08
42.77
40.12
36.24
31.35
25.65
19.35
12.58
5.41
-2.00
-9.35
-16.19
-21.95
-26.23
-29.06
-30.96
-32.89
-35.92
-40.83
-47.70
-55.85
-63.94
-70.22
-73.02
-71.18
-64.33
-53.12
-39.00
-23.85
-9.51
2.74
12.36
19.45
24.40
27.61
29.15
28.87
26.63
22.55
17.25
11.65
6.73
3.18
1.21
0.60
0.94
1.88
3.24
4.96
6.94
8.90
10.45
11.23
11.07
10.00
8.28
6.21
4.13
2.28
0.78
-0.48
-1.82
-3.86
-7.26
-12.52
-19.68
-28.06
-36.40
-43.12
-46.78
-46.51
-42.17
-34.30
-23.91
-12.14
-0.07
11.42
21.61
29.94
36.00
39.57
40.69
39.70
37.25
34.13
31.17
29.03
28.02
28.12
28.98
30.17
31.37
32.42
33.31
34.06
34.59
34.62
33.84
32.00
29.08
25.29
21.02
16.63
12.39
8.40
4.56
0.64
-3.69
-8.78
-14.92
-22.15
-30.12
-38.06
-44.90
-49.52
-51.10
-49.36
-44.63
-37.73
-29.69
-21.54
-14.09
-7.91
-3.40
-0.80
-0.27
-1.75
-4.90
-9.05
-13.27
-16.57
-18.21
-17.90
-15.96
-13.10
-10.16
-7.77
-6.08
-4.89
-3.74
-2.25
-0.26
2.12
4.58
6.81
8.63
10.03
11.18
12.31
13.59
15.05
16.53
17.66
18.06
17.31
15.22
11.82
7.51
3.01
-0.73
-2.69
-2.08
1.45
7.68
15.87
24.98
33.95
42.00
48.64
53.78
57.50
60.00
61.45
61.98
61.72
60.82
59.55
58.20
57.01
56.03
55.10
53.81
51.80
48.90
45.24
41.16
36.91
32.38
27.04
20.14
11.15
0.19
-12.03
-24.30
-35.49
-44.83
-52.04
-57.13
-60.28
-61.66
-61.63
-60.81
-60.13
-60.51
-62.47
-65.80
-69.53
-72.26
-72.63
-69.85
-63.91
-55.53
-45.89
-36.21
-27.53
-20.52
-15.44
-12.29
-10.84
-10.76
-11.67
-13.19
-14.94
-16.58
-17.81
-18.44
-18.33
-17.39
-15.61
-13.05
-9.93
-6.61
-3.50
-0.95
0.82
1.78
1.99
1.53
0.45
-1.26
-3.56
-6.31
-9.26
-12.05
-14.38
-16.09
-17.29
-18.27
-19.44
-21.13
-23.53
-26.63
-30.28
-34.22
-38.06
-41.32
-43.40
-43.66
-41.53
-36.80
-29.71
-21.03
-11.88
-3.44
3.39
8.13
10.79
11.67
11.11
9.41
6.77
3.44
-0.18
-3.50
-5.88
-6.87
-6.35
-4.61
-2.10
0.68
3.40
5.90
8.07
9.78
10.88
11.22
10.78
9.65
8.00
6.00
3.74
1.26
-1.48
-4.46
-7.60
-10.79
-13.89
-16.85
-19.69
-22.59
-25.83
-29.69
-34.27
-39.32
-44.20
-47.91
-49.46
-48.10
-43.64
-36.49
-27.54
-17.87
-8.47
-0.10
6.80
11.96
15.28
16.70
16.34
14.53
11.83
9.01
6.84
5.92
6.51
8.51
11.52
14.96
18.29
21.05
23.02
24.19
24.68
24.68
24.35
23.73
22.74
21.28
19.21
16.51
13.24
9.58
5.72
1.86
-1.87
-5.46
-9.08
-13.06
-17.81
-23.73
-30.94
-39.18
-47.68
-55.31
-60.76
-62.93
-61.23
-55.72
-47.11
-36.59
-25.51
-15.12
-6.34
0.36
4.88
7.44
8.37
8.05
6.75
4.80
2.50
0.23
-1.58
-2.55
-2.46
-1.33
0.59
2.81
4.80
6.12
6.53
6.00
4.70
2.85
0.59
-2.10
-5.39
-9.52
-14.57
-20.48
-26.92
-33.47
-39.70
-45.43
-50.67
-55.63
-60.62
-66.03
-72.17
-79.18
-86.92
-94.80
-101.73
-106.28
-107.07
-103.06
-94.04
-80.65
-64.25
-46.56
-29.15
-13.15
0.83
12.64
22.39
30.17
36.11
40.37
43.30
45.48
47.61
50.42
54.35
59.42
65.31
71.43
77.18
82.06
85.80
88.26
89.44
89.35
88.05
85.60
82.07
77.53
72.02
65.67
58.67
51.35
44.14
37.40
31.36
26.01
21.11
16.24
10.91
4.73
-2.50
-10.48
-18.35
-24.73
-27.97
-26.64
-19.99
-8.26
7.44
25.42
43.96
61.56
77.18
90.11
99.86
106.08
108.68
107.87
104.28
98.88
92.72
86.70
81.31
76.58
72.21
67.76
62.93
57.56
51.66
45.24
38.14
30.16
21.01
10.49
-1.47
-14.79
-29.21
-44.21
-59.04
-72.75
-84.32
-92.97
-98.34
-100.77
-101.24
-101.17
-102.11
-105.11
-110.42
-117.21
-123.81
-128.04
-127.85
-121.85
-109.66
-91.92
-70.16
-46.35
-22.55
-0.59
18.22
33.13
43.92
50.79
54.24
55.00
54.03
52.39
51.09
50.91
52.12
54.57
57.77
61.22
64.58
67.70
70.61
73.28
75.58
77.18
77.73
76.96
74.89
71.73
67.86
63.59
59.09
54.29
48.90
42.53
34.78
25.39
14.41
2.26
-10.21
-21.82
-31.31
-37.71
-40.48
-39.69
-35.84
-29.69
-22.01
-13.58
-5.13
2.51
8.50
12.10
12.87
10.85
6.61
1.10
-4.57
-9.40
-12.78
-14.54
-14.98
-14.61
-13.97
-13.43
-13.09
-12.86
-12.68
-12.60
-12.84
-13.76
-15.59
-18.32
-21.64
-25.08
-28.24
-30.99
-33.53
-36.33
-39.95
-44.87
-51.32
-59.10
-67.52
-75.37
-81.07
-82.97
-79.82
-71.15
-57.47
-40.16
-21.13
-2.28
14.87
29.38
40.78
48.92
53.80
55.58
54.62
51.63
47.61
43.60
40.50
38.78
38.36
38.79
39.48
39.95
40.01
39.76
39.38
38.93
38.25
36.89
34.36
30.33
24.85
18.40
11.76
5.68
0.58
-3.60
-7.43
-11.74
-17.39
-24.94
-34.43
-45.22
-55.98
-64.91
-70.15
-70.28
-64.78
-54.25
-40.14
-24.32
-8.59
5.77
18.02
27.83
35.07
39.69
41.78
41.67
39.96
37.47
35.00
33.19
32.36
32.51
33.40
34.63
35.86
36.81
37.37
37.52
37.23
36.35
34.62
31.74
27.55
22.19
16.11
9.96
4.34
-0.48
-4.56
-8.30
-12.26
-17.01
-22.95
-30.19
-38.43
-46.81
-54.04
-58.58
-59.15
-55.13
-46.83
-35.38
-22.37
-9.31
2.67
12.89
21.06
26.97
30.49
31.63
30.67
28.22
25.12
22.22
20.17
19.27
19.47
20.55
22.17
24.03
25.89
27.58
28.91
29.65
29.56
28.37
25.94
22.36
17.91
13.07
8.34
4.06
0.30
-3.14
-6.70
-10.88
-16.08
-22.49
-29.87
-37.54
-44.36
-48.98
-50.17
-47.22
-40.23
-30.05
-18.04
-5.70
5.73
15.44
23.07
28.46
31.61
32.57
31.57
29.01
25.59
22.09
19.27
17.61
17.26
17.96
19.26
20.64
21.75
22.41
22.67
22.62
22.25
21.40
19.82
17.30
13.82
9.62
5.15
0.82
-3.06
-6.49
-9.73
-13.16
-17.25
-22.39
-28.75
-36.14
-43.93
-51.07
-56.22
-58.21
-56.33
-50.62
-41.94
-31.66
-21.21
-11.69
-3.71
2.63
7.45
10.94
13.14
14.10
13.98
13.12
12.00
11.16
10.96
11.48
12.60
14.02
15.45
16.62
17.41
17.73
17.62
17.17
16.47
15.58
14.42
12.82
10.61
7.72
4.27
0.61
-2.90
-5.98
-8.58
-10.89
-13.32
-16.33
-20.33
-25.53
-31.74
-38.36
-44.37
-48.63
-50.16
-48.45
-43.65
-36.48
-28.01
-19.33
-11.35
-4.61
0.65
4.44
6.95
8.42
9.09
9.12
8.62
7.68
6.52
5.46
4.86
5.02
6.03
7.74
9.81
11.83
13.47
14.56
15.04
14.98
14.47
13.61
12.40
10.85
8.92
6.63
4.04
1.28
-1.48
-4.12
-6.60
-9.03
-11.59
-14.50
-17.96
-22.11
-26.99
-32.47
-38.17
-43.46
-47.51
-49.45
-48.70
-45.13
-39.18
-31.67
-23.61
-15.92
-9.23
-3.87
0.05
2.58
3.87
4.11
3.60
2.66
1.60
0.70
0.11
-0.06
0.19
0.87
1.89
3.14
4.47
5.74
6.85
7.71
8.21
8.26
7.74
6.57
4.83
2.70
0.48
-1.47
-2.93
-3.90
-4.62
-5.53
-7.04
-9.45
-12.83
-17.07
-21.97
-27.24
-32.54
-37.35
-40.97
-42.59
-41.56
-37.62
-31.13
-22.94
-14.16
-5.83
1.35
7.01
11.05
13.47
14.32
13.68
11.79
9.07
6.12
3.58
1.97
1.55
2.28
3.80
5.63
7.29
8.47
9.11
9.30
9.22
8.92
8.35
7.35
5.77
3.56
0.81
-2.28
-5.48
-8.63
-11.70
-14.77
-18.02
-21.69
-26.03
-31.21
-37.21
-43.70
-49.93
-54.86
-57.41
-56.83
-52.92
-46.18
-37.59
-28.35
-19.57
-12.01
-6.11
-2.02
0.23
0.73
-0.31
-2.56
-5.56
-8.77
-11.68
-13.94
-15.41
-16.17
-16.42
-16.44
-16.44
-16.46
-16.37
-15.82
-14.44
-11.98
-8.57
-4.68
-1.06
1.68
3.33
4.20
4.99
6.40
8.81
12.02
15.41
18.16
19.55
19.15
16.79
12.62
7.02
0.70
-5.44
-10.36
-13.21
-13.50
-11.22
-6.83
-1.09
5.18
11.26
16.64
20.95
23.82
24.85
23.65
19.99
14.10
6.80
-0.57
-6.50
-9.80
-9.96
-7.34
-2.83
2.46
7.67
12.33
16.32
19.64
22.32
24.27
25.34
25.41
24.41
22.39
19.45
15.84
11.82
7.72
3.82
0.34
-2.66
-5.34
-8.09
-11.51
-16.21
-22.59
-30.52
-39.13
-46.90
-52.03
-52.93
-48.87
-40.14
-28.01
-14.23
-0.53
11.87
22.31
30.56
36.53
40.13
41.26
40.05
37.03
33.07
29.26
26.49
25.23
25.43
26.60
28.12
29.48
30.46
31.07
31.47
31.77
31.92
31.70
30.85
29.11
26.40
22.79
18.49
13.79
9.06
4.68
0.89
-2.27
-5.21
-8.65
-13.41
-20.05
-28.38
-37.43
-45.56
-50.99
-52.34
-49.03
-41.35
-30.24
-16.99
-3.01
10.42
22.15
31.34
37.48
40.49
40.71
38.76
35.36
31.23
27.00
23.17
20.14
18.10
17.05
16.75
16.82
16.92
16.83
16.49
15.89
14.94
13.36
10.78
6.85
1.49
-5.01
-12.02
-18.78
-24.71
-29.59
-33.65
-37.54
-42.03
-47.78
-55.06
-63.59
-72.44
-80.13
-84.91
-85.19
-80.01
-69.40
-54.39
-36.74
-18.46
-1.25
13.84
26.37
36.31
43.80
48.98
52.04
53.32
53.42
53.08
53.04
53.83
55.67
58.43
61.80
65.39
68.78
71.65
73.79
74.99
75.08
73.91
71.29
67.07
61.28
54.21
46.41
38.66
31.66
25.79
20.92
16.47
11.62
5.66
-1.73
-10.35
-19.43
-27.83
-34.21
-37.31
-36.22
-30.61
-20.87
-8.02
6.45
20.92
33.93
44.40
51.74
55.86
57.04
55.80
52.79
48.70
44.19
39.86
36.22
33.64
32.20
31.62
31.35
30.71
29.17
26.53
22.96
18.80
14.30
9.49
4.23
-1.64
-8.10
-14.87
-21.55
-27.76
-33.27
-38.10
-42.43
-46.61
-51.07
-56.30
-62.71
-70.36
-78.69
-86.55
-92.33
-94.45
-91.91
-84.59
-73.29
-59.37
-44.36
-29.52
-15.68
-3.37
7.11
15.44
21.41
25.02
26.62
26.92
26.81
27.18
28.69
31.67
36.08
41.64
47.83
54.16
60.13
65.38
69.65
72.77
74.62
75.06
74.02
71.43
67.33
61.88
55.34
47.98
40.03
31.59
22.60
12.80
1.74
-11.03
-25.79
-42.32
-59.76
-76.64
-91.12
-101.49
-106.64
-106.31
-101.15
-92.47
-81.77
-70.44
-59.55
-49.79
-41.63
-35.35
-31.10
-28.77
-28.04
-28.28
-28.77
-28.79
-27.85
-25.78
-22.69
-18.90
-14.80
-10.67
-6.73
-3.07
0.20
2.92
4.86
5.78
5.59
4.32
2.25
-0.27
-2.88
-5.28
-7.33
-9.08
-10.78
-12.82
-15.70
-19.74
-24.92
-30.69
-36.02
-39.59
-40.14
-36.92
-29.90
-19.79
-7.81
4.56
16.05
25.69
32.96
37.68
39.83
39.61
37.34
33.56
29.00
24.48
20.74
18.26
17.13
17.11
17.76
18.60
19.26
19.52
19.28
18.50
17.11
15.04
12.22
8.62
4.34
-0.40
-5.25
-9.83
-13.92
-17.57
-21.12
-25.22
-30.51
-37.36
-45.65
-54.55
-62.69
-68.49
-70.61
-68.35
-61.87
-52.14
-40.62
-28.79
-17.86
-8.55
-1.15
4.24
7.62
8.96
8.34
5.98
2.39
-1.64
-5.30
-7.83
-8.84
-8.34
-6.61
-4.09
-1.13
2.03
5.27
8.46
11.43
13.90
15.52
16.05
15.39
13.67
11.19
8.32
5.44
2.78
0.38
-2.00
-4.84
-8.75
-14.27
-21.56
-30.18
-39.03
-46.51
-50.89
-50.83
-45.78
-36.19
-23.36
-9.00
5.19
17.89
28.39
36.41
41.97
45.17
46.13
45.08
42.46
38.94
35.37
32.54
30.94
30.65
31.28
32.31
33.23
33.78
33.96
33.87
33.62
33.11
32.06
30.14
27.16
23.19
18.57
13.85
9.48
5.72
2.45
-0.78
-4.62
-9.64
-16.21
-24.34
-33.63
-43.28
-52.16
-58.96
-62.37
-61.51
-56.16
-46.93
-35.13
-22.43
-10.46
-0.38
7.23
12.32
15.22
16.34
16.08
14.81
12.91
10.91
9.39
8.99
10.15
13.02
17.35
22.65
28.27
33.69
38.60
42.87
46.42
49.06
50.54
50.67
49.50
47.41
45.08
43.14
42.01
41.66
41.61
41.14
39.56
36.42
31.76
26.05
20.17
15.17
12.07
11.60
14.02
19.09
26.18
34.43
42.88
50.53
56.33
59.31
58.68
54.14
45.98
35.09
22.72
10.19
-1.44
-11.45
-19.46
-25.33
-29.02
-30.61
-30.32
-28.53
-25.83
-22.83
-20.10
-18.13
-17.26
-17.74
-19.67
-22.92
-27.11
-31.59
-35.63
-38.67
-40.61
-41.92
-43.46
-46.20
-50.73
-56.96
-64.01
-70.46
-74.64
-75.15
-71.23
-62.91
-51.01
-36.85
-21.98
-7.79
4.62
14.58
21.82
26.35
28.39
28.35
26.67
23.98
20.97
18.31
16.56
16.01
16.64
18.13
20.03
21.87
23.38
24.47
25.22
25.71
25.89
25.54
24.34
22.01
18.43
13.80
8.53
3.16
-1.88
-6.38
-10.47
-14.53
-19.16
-24.89
-32.08
-40.64
-49.89
-58.61
-65.22
-68.17
-66.43
-59.80
-48.99
-35.39
-20.62
-6.23
6.65
17.36
25.58
31.31
34.65
35.83
35.17
33.09
30.15
27.00
24.29
22.49
21.85
22.22
23.24
24.45
25.47
26.15
26.53
26.71
26.70
26.36
25.37
23.44
20.38
16.20
11.13
5.53
-0.19
-5.73
-10.91
-15.75
-20.40
-25.15
-30.41
-36.63
-44.11
-52.80
-62.09
-70.78
-77.33
-80.25
-78.59
-72.26
-61.95
-49.04
-35.04
-21.37
-9.02
1.35
9.49
15.35
19.08
20.94
21.28
20.55
19.24
17.91
17.11
17.27
18.64
21.24
24.89
29.29
34.08
38.94
43.53
47.45
50.29
51.73
51.63
50.14
47.53
44.16
40.27
36.00
31.45
26.75
22.05
17.48
13.08
8.67
3.99
-1.32
-7.56
-14.88
-23.18
-32.04
-40.68
-47.94
-52.51
-53.20
-49.38
-41.23
-29.76
-16.55
-3.34
8.38
17.69
24.20
27.94
29.13
28.17
25.57
22.02
18.42
15.68
14.47
14.93
16.60
18.61
20.08
20.52
19.94
18.70
17.23
15.80
14.36
12.74
10.76
8.41
5.79
3.01
0.08
-3.14
-6.74
-10.69
-14.79
-18.81
-22.62
-26.39
-30.49
-35.33
-41.17
-47.83
-54.65
-60.58
-64.39
-65.03
-61.94
-55.14
-45.26
-33.38
-20.76
-8.65
1.89
10.08
15.47
17.90
17.46
14.57
9.85
4.06
-1.93
-7.27
-11.29
-13.53
-13.98
-12.95
-11.03
-8.94
-7.25
-6.14
-5.39
-4.53
-3.01
-0.56
2.69
6.27
9.58
12.15
13.85
14.88
15.54
16.11
16.58
16.77
16.39
15.19
13.05
9.92
5.75
0.60
-5.21
-10.98
-15.54
-17.54
-15.80
-9.77
0.16
12.81
26.52
39.71
51.23
60.53
67.55
72.39
75.20
76.11
75.42
73.67
71.58
69.89
69.01
68.97
69.39
69.67
69.30
67.94
65.53
62.16
58.04
53.32
48.04
41.99
34.82
26.08
15.53
3.23
-10.42
-24.74
-39.09
-52.99
-66.12
-78.29
-89.36
-99.19
-107.78
-115.27
-121.81
-127.38
-131.50
-133.41
-132.24
-127.50
-119.25
-108.06
-94.75
-80.10
-64.71
-49.20
-34.30
-20.95
-10.06
-2.23
2.53
4.83
5.72
6.24
7.17
8.74
10.71
12.63
14.14
15.25
16.40
18.17
20.99
24.79
28.95
32.50
34.58
34.73
33.00
29.80
25.60
20.75
15.41
9.72
3.85
-1.93
-7.38
-12.45
-17.32
-22.44
-28.33
-35.22
-42.88
-50.44
-56.52
-59.70
-58.85
-53.65
-44.60
-32.90
-20.13
-7.76
3.03
11.55
17.47
20.78
21.63
20.34
17.41
13.55
9.59
6.33
4.39
4.05
5.19
7.42
10.24
13.14
15.79
17.94
19.36
19.79
19.03
17.02
13.98
10.40
6.86
3.86
1.54
-0.34
-2.37
-5.28
-9.66
-15.71
-23.10
-30.95
-37.94
-42.58
-43.66
-40.47
-33.09
-22.30
-9.46
3.90
16.36
26.87
34.80
39.95
42.40
42.46
40.63
37.50
33.70
29.82
26.27
23.31
21.09
19.70
19.24
19.75
21.13
23.01
24.81
25.84
25.54
23.66
20.29
15.85
10.87
5.83
1.06
-3.31
-7.35
-11.39
-15.99
-21.77
-29.24
-38.36
-48.36
-57.77
-64.69
-67.37
-64.79
-56.92
-44.82
-30.20
-14.96
-0.72
11.45
21.08
28.12
32.77
35.31
36.03
35.31
33.66
31.70
30.04
29.12
29.07
29.71
30.67
31.60
32.37
33.02
33.64
34.24
34.60
34.30
32.91
30.17
26.11
21.08
15.67
10.39
5.58
1.25
-2.97
-7.64
-13.35
-20.47
-28.90
-37.96
-46.43
-52.82
-55.72
-54.20
-48.14
-38.23
-25.79
-12.35
0.67
12.27
21.85
29.14
34.03
36.55
36.89
35.46
32.90
29.95
27.27
25.30
24.19
23.82
23.94
24.32
24.84
25.48
26.24
27.08
27.79
28.02
27.40
25.65
22.78
19.07
15.03
11.15
7.71
4.67
1.69
-1.78
-6.24
-11.94
-18.75
-26.07
-32.85
-37.88
-40.03
-38.63
-33.65
-25.71
-15.91
-5.52
4.34
12.77
19.25
23.53
25.61
25.73
24.31
21.90
19.08
16.36
14.12
12.63
12.00
12.28
13.38
15.11
17.16
19.16
20.79
21.76
21.91
21.15
19.54
17.23
14.45
11.50
8.67
6.11
3.76
1.40
-1.39
-5.02
-9.72
-15.33
-21.22
-26.39
-29.66
-30.14
-27.42
-21.85
-14.34
-6.07
1.88
8.82
14.39
18.52
21.17
22.26
21.73
19.67
16.48
12.81
9.44
6.99
5.81
5.86
6.82
8.25
9.75
11.02
11.88
12.24
12.04
11.21
9.68
7.43
4.51
1.10
-2.51
-5.99
-9.05
-11.56
-13.66
-15.68
-18.05
-21.21
-25.39
-30.52
-36.15
-41.42
-45.29
-46.81
-45.40
-41.11
-34.62
-26.98
-19.28
-12.30
-6.40
-1.64
2.07
4.74
6.31
6.77
6.27
5.18
4.01
3.22
3.15
3.86
5.18
6.84
8.54
10.05
11.25
12.16
12.84
13.36
13.70
13.68
13.04
11.59
9.29
6.31
3.02
-0.20
-3.10
-5.61
-7.84
-10.03
-12.48
-15.44
-19.07
-23.37
-28.05
-32.54
-36.04
-37.72
-37.03
-33.89
-28.78
-22.60
-16.31
-10.69
-6.17
-2.83
-0.57
0.77
1.24
0.89
-0.16
-1.60
-3.01
-3.87
-3.78
-2.57
-0.38
2.40
5.25
7.69
9.43
10.46
10.89
10.92
10.65
10.03
8.98
7.37
5.24
2.73
0.07
-2.56
-5.00
-7.22
-9.24
-11.20
-13.29
-15.75
-18.81
-22.44
-26.33
-29.87
-32.27
-32.85
-31.30
-27.73
-22.63
-16.71
-10.70
-5.19
-0.62
2.71
4.62
5.04
4.07
1.95
-0.91
-4.00
-6.84
-9.06
-10.53
-11.31
-11.64
-11.74
-11.80
-11.89
-12.00
-12.18
-12.53
-13.19
-14.37
-16.22
-18.81
-22.10
-25.90
-29.89
-33.74
-37.15
-39.99
-42.28
-44.20
-45.94
-47.59
-49.16
-50.56
-51.63
-52.12
-51.66
-49.72
-45.79
-39.57
-31.00
-20.34
-8.02
5.50
19.73
33.99
47.34
58.61
66.76
71.13
71.77
69.37
65.03
59.90
54.92
50.78
47.85
46.21
45.59
45.49
45.22
44.22
42.18
39.09
35.14
30.53
25.36
19.74
13.81
7.89
2.34
-2.49
-6.48
-9.77
-12.72
-15.76
-19.28
-23.49
-28.45
-33.99
-39.85
-45.63
-50.76
-54.51
-56.10
-54.88
-50.61
-43.59
-34.75
-25.33
-16.53
-9.16
-3.49
0.62
3.40
5.10
5.78
5.55
4.66
3.46
2.41
1.90
2.14
3.19
4.99
7.35
9.94
12.36
14.21
15.23
15.39
14.82
13.77
12.33
10.44
7.94
4.79
1.12
-2.76
-6.46
-9.74
-12.56
-15.12
-17.71
-20.65
-24.27
-28.85
-34.62
-41.58
-49.37
-57.18
-63.89
-68.27
-69.34
-66.74
-60.74
-52.19
-42.22
-31.95
-22.25
-13.66
-6.49
-0.88
3.12
5.51
6.46
6.37
5.81
5.47
5.91
7.47
10.17
13.73
17.70
21.59
24.96
27.53
29.15
29.84
29.75
29.09
28.08
26.93
25.74
24.52
23.23
21.84
20.40
19.02
17.81
16.82
15.90
14.76
12.99
10.26
6.50
2.03
-2.36
-5.67
-6.84
-5.16
-0.40
6.99
16.13
25.90
35.27
43.50
50.16
55.05
58.06
59.12
58.26
55.70
51.96
47.81
44.04
41.28
39.78
39.37
39.62
40.01
40.11
39.69
38.69
37.11
34.94
32.18
28.80
24.79
20.16
14.95
9.23
3.16
-3.02
-8.97
-14.42
-19.26
-23.69
-28.23
-33.49
-39.88
-47.32
-55.07
-61.88
-66.28
-67.16
-64.08
-57.48
-48.45
-38.42
-28.62
-19.81
-12.24
-5.78
-0.32
4.10
7.24
8.80
8.73
7.37
5.46
3.96
3.68
5.01
7.84
11.58
15.44
18.76
21.18
22.76
23.82
24.75
25.72
26.69
27.33
27.25
26.17
24.05
21.09
17.67
14.12
10.63
7.23
3.75
-0.12
-4.76
-10.56
-17.75
-26.17
-35.15
-43.50
-49.72
-52.50
-51.09
-45.54
-36.68
-25.75
-14.11
-2.90
7.06
15.19
21.11
24.61
25.69
24.62
21.98
18.57
15.22
12.63
11.22
10.99
11.69
12.87
14.10
15.10
15.74
16.02
16.01
15.72
15.15
14.28
13.03
11.29
8.88
5.62
1.44
-3.50
-8.74
-13.73
-18.02
-21.55
-24.68
-28.16
-32.75
-38.90
-46.59
-55.20
-63.67
-70.66
-74.80
-74.96
-70.48
-61.36
-48.35
-32.75
-16.16
-0.08
14.30
26.22
35.27
41.31
44.40
44.81
43.09
40.03
36.59
33.68
31.98
31.70
32.56
33.98
35.29
36.06
36.22
35.96
35.59
35.25
34.82
33.92
32.05
28.86
24.26
18.49
12.03
5.47
-0.67
-6.04
-10.55
-14.42
-18.12
-22.27
-27.42
-33.78
-41.09
-48.50
-54.69
-58.22
-57.90
-53.16
-44.25
-32.16
-18.33
-4.30
8.63
19.58
28.10
34.00
37.36
38.33
37.20
34.44
30.63
26.49
22.69
19.72
17.80
16.84
16.53
16.49
16.41
16.13
15.59
14.77
13.61
11.90
9.40
5.95
1.56
-3.50
-8.76
-13.77
-18.23
-22.16
-25.91
-30.13
-35.50
-42.37
-50.52
-59.06
-66.57
-71.43
-72.37
-68.80
-60.99
-49.94
-37.06
-23.80
-11.37
-0.64
7.79
13.62
16.66
17.02
15.02
11.34
6.89
2.59
-0.81
-2.97
-3.98
-4.28
-4.38
-4.71
-5.52
-6.85
-8.72
-11.19
-14.40
-18.54
-23.67
-29.65
-36.07
-42.33
-47.82
-52.14
-55.22
-57.38
-59.20
-61.35
-64.36
-68.41
-73.26
-78.13
-81.79
-82.61
-78.98
-69.68
-54.27
-33.37
-8.49
18.39
45.25
70.50
93.08
112.40
128.14
140.10
148.24
152.78
154.23
153.42
151.23
148.50
145.71
142.94
139.88
136.02
130.96
124.50
116.74
107.84
97.80
86.33
72.98
57.38
39.65
20.51
1.11
-17.32
-33.84
-48.02
-59.95
-69.95
-78.47
-86.00
-92.98
-99.88
-106.97
-114.18
-120.81
-125.65
-127.14
-123.87
-115.04
-100.73
-82.00
-60.51
-38.21
-16.83
2.28
18.36
31.02
40.17
45.94
48.66
48.98
47.89
46.60
46.27
47.59
50.58
54.63
58.86
62.50
65.25
67.23
68.70
69.81
70.36
69.86
67.81
63.92
58.30
51.42
43.89
36.20
28.57
20.88
12.75
3.76
-6.43
-17.88
-30.30
-43.13
-55.55
-66.65
-75.48
-81.18
-83.08
-80.79
-74.30
-64.03
-50.78
-35.72
-20.20
-5.56
7.14
17.14
23.92
27.10
26.55
22.48
15.71
7.66
0.11
-5.33
-7.75
-7.19
-4.46
-0.74
2.92
5.94
8.12
9.47
9.95
9.48
8.03
5.78
3.11
0.54
-1.55
-3.00
-3.99
-5.02
-6.80
-9.98
-14.90
-21.36
-28.53
-34.95
-38.94
-38.93
-34.02
-24.26
-10.65
5.12
21.22
36.02
48.41
57.77
63.82
66.54
66.11
62.95
57.76
51.45
45.00
39.26
34.78
31.77
30.10
29.43
29.37
29.54
29.66
29.51
28.93
27.74
25.75
22.74
18.56
13.20
6.87
0.04
-6.75
-13.09
-18.87
-24.42
-30.37
-37.46
-46.11
-56.10
-66.42
-75.37
-81.02
-81.70
-76.61
-66.03
-51.25
-34.19
-16.83
-0.79
12.89
23.69
31.47
36.23
38.13
37.52
34.99
31.35
27.55
24.44
22.55
22.00
22.51
23.58
24.74
25.70
26.40
26.95
27.39
27.56
27.06
25.40
22.26
17.63
11.86
5.61
-0.50
-6.01
-10.86
-15.34
-20.05
-25.69
-32.83
-41.66
-51.77
-62.02
-70.73
-76.06
-76.47
-71.31
-60.94
-46.74
-30.62
-14.47
0.27
12.76
22.71
30.12
35.09
37.68
38.04
36.53
33.81
30.71
28.13
26.66
26.52
27.48
29.03
30.59
31.79
32.47
32.71
32.65
32.30
31.50
29.89
27.08
22.85
17.35
11.12
4.93
-0.54
-4.96
-8.53
-11.85
-15.75
-20.89
-27.65
-35.97
-45.34
-54.83
-63.15
-68.82
-70.50
-67.30
-59.17
-46.94
-32.15
-16.69
-2.22
10.09
19.66
26.44
30.61
32.39
32.04
29.92
26.57
22.80
19.51
17.48
17.10
18.20
20.19
22.31
23.96
24.86
25.12
25.00
24.67
24.08
22.93
20.86
17.70
13.56
8.87
4.23
0.11
-3.31
-6.18
-8.93
-12.09
-16.16
-21.43
-27.94
-35.32
-42.83
-49.27
-53.30
-53.72
-49.85
-41.83
-30.63
-17.72
-4.73
7.02
16.77
24.24
29.49
32.64
33.81
33.10
30.76
27.26
23.33
19.81
17.40
16.45
16.88
18.25
19.97
21.57
22.78
23.53
23.89
23.79
23.09
21.59
19.12
15.71
11.57
7.10
2.66
-1.43
-5.16
-8.68
-12.38
-16.73
-22.13
-28.69
-36.06
-43.42
-49.54
-53.12
-53.15
-49.21
-41.62
-31.38
-19.80
-8.20
2.37
11.22
18.00
22.61
25.03
25.41
24.00
21.26
17.80
14.33
11.52
9.79
9.27
9.71
10.62
11.50
11.98
11.99
11.69
11.33
11.03
10.65
9.89
8.38
5.91
2.59
-1.24
-5.09
-8.56
-11.48
-13.91
-16.17
-18.68
-21.84
-25.95
-31.07
-36.94
-42.92
-48.07
-51.28
-51.62
-48.55
-42.21
-33.35
-23.16
-12.89
-3.58
4.19
10.21
14.48
17.07
18.04
17.48
15.67
13.09
10.37
8.14
6.84
6.62
7.39
8.91
10.85
12.89
14.72
16.07
16.82
16.93
16.43
15.40
13.80
11.56
8.64
5.11
1.28
-2.45
-5.69
-8.27
-10.31
-12.19
-14.39
-17.40
-21.50
-26.68
-32.50
-38.17
-42.66
-44.90
-44.13
-40.13
-33.36
-24.78
-15.59
-6.90
0.49
6.20
10.16
12.47
13.29
12.81
11.26
9.00
6.50
4.30
2.88
2.48
3.07
4.33
5.80
7.09
8.03
8.70
9.30
9.95
10.58
10.84
10.31
8.73
6.08
2.70
-0.87
-4.17
-6.86
-8.94
-10.63
-12.28
-14.36
-17.22
-21.07
-25.84
-31.09
-36.00
-39.57
-40.79
-38.99
-34.08
-26.58
-17.56
-8.19
0.43
7.65
13.13
16.80
18.72
18.95
17.66
15.25
12.29
9.48
7.44
6.49
6.60
7.45
8.56
9.57
10.24
10.58
10.72
10.81
10.91
10.90
10.56
9.64
8.05
5.81
3.12
0.22
-2.70
-5.51
-8.20
-10.86
-13.62
-16.72
-20.37
-24.69
-29.52
-34.34
-38.36
-40.63
-40.37
-37.25
-31.46
-23.77
-15.24
-6.95
0.22
5.81
9.67
11.93
12.75
12.33
10.83
8.52
5.88
3.47
1.84
1.32
1.85
3.08
4.47
5.62
6.35
6.73
6.98
7.26
7.58
7.76
7.46
6.37
4.30
1.33
-2.17
-5.66
-8.55
-10.51
-11.61
-12.31
-13.29
-15.21
-18.44
-22.95
-28.31
-33.78
-38.48
-41.49
-42.06
-39.78
-34.72
-27.44
-18.91
-10.24
-2.47
3.66
7.83
10.02
10.50
9.64
7.87
5.59
3.17
0.97
-0.68
-1.51
-1.41
-0.45
1.07
2.74
4.19
5.23
5.85
6.23
6.54
6.81
6.93
6.62
5.63
3.83
1.31
-1.70
-4.83
-7.77
-10.33
-12.54
-14.64
-16.98
-19.96
-23.88
-28.83
-34.55
-40.44
-45.55
-48.77
-49.14
-46.11
-39.80
-30.88
-20.50
-9.86
0.06
8.65
15.72
21.17
24.97
27.03
27.28
25.87
23.20
20.00
17.03
14.95
14.07
14.31
15.31
16.64
17.94
19.08
20.04
20.85
21.43
21.61
21.17
19.88
17.70
14.75
11.30
7.68
4.19
1.07
-1.59
-3.80
-5.74
-7.65
-9.92
-12.91
-16.93
-22.04
-27.89
-33.74
-38.55
-41.29
-41.20
-38.13
-32.58
-25.53
-18.18
-11.61
-6.60
-3.57
-2.70
-3.90
-7.00
-11.67
-17.44
-23.71
-29.86
-35.21
-39.19
-41.38
-41.61
-40.01
-37.01
-33.17
-29.03
-24.94
-20.98
-17.10
-13.30
-9.78
-6.88
-4.98
-4.27
-4.62
-5.67
-6.95
-8.11
-9.03
-9.82
-10.81
-12.30
-14.49
-17.29
-20.25
-22.61
-23.37
-21.58
-16.53
-7.94
3.91
18.34
34.34
50.82
66.72
81.17
93.58
103.57
110.99
115.82
118.20
118.41
116.88
114.13
110.65
106.83
102.84
98.66
94.05
88.78
82.69
75.82
68.37
60.59
52.58
44.19
35.12
25.11
14.19
2.79
-8.37
-18.54
-27.24
-34.45
-40.56
-46.20
-51.95
-58.22
-65.15
-72.56
-80.01
-86.71
-91.65
-93.79
-92.22
-86.60
-77.24
-65.12
-51.70
-38.51
-26.76
-17.16
-9.89
-4.85
-1.85
-0.76
-1.43
-3.49
-6.33
-9.07
-10.83
-11.04
-9.59
-6.89
-3.55
-0.19
2.84
5.45
7.73
9.73
11.35
12.32
12.29
11.03
8.51
5.01
0.98
-3.02
-6.53
-9.33
-11.52
-13.47
-15.79
-19.12
-23.92
-30.28
-37.67
-44.99
-50.71
-53.25
-51.44
-44.94
-34.34
-21.01
-6.67
7.05
19.00
28.62
35.81
40.74
43.57
44.42
43.41
40.82
37.24
33.42
30.20
28.11
27.29
27.44
28.07
28.71
29.12
29.26
29.15
28.77
27.93
26.43
24.10
20.96
17.12
12.80
8.20
3.48
-1.18
-5.61
-9.66
-13.26
-16.56
-19.88
-23.71
-28.53
-34.55
-41.50
-48.56
-54.45
-57.76
-57.33
-52.66
-44.07
-32.55
-19.44
-6.16
6.16
16.69
24.92
30.58
33.61
34.18
32.69
29.80
26.31
23.08
20.76
19.76
20.12
21.57
23.64
25.79
27.59
28.80
29.34
29.31
28.77
27.71
26.04
23.61
20.32
16.25
11.57
6.61
1.68
-3.02
-7.42
-11.66
-15.89
-20.34
-25.28
-31.01
-37.81
-45.87
-55.07
-64.79
-73.91
-80.94
-84.45
-83.51
-78.03
-68.83
-57.50
-45.86
-35.53
-27.59
-22.42
-19.87
-19.48
-20.71
-22.98
-25.63
-27.98
-29.42
-29.54
-28.27
-25.90
-22.86
-19.57
-16.24
-12.88
-9.36
-5.64
-1.74
2.16
5.84
9.08
11.66
13.48
14.58
15.18
15.62
16.26
17.27
18.52
19.57
19.77
18.57
15.63
11.13
5.70
0.42
-3.44
-4.55
-1.94
4.88
15.66
29.43
44.77
60.10
74.05
85.70
94.62
100.75
104.21
105.18
103.96
101.04
97.14
93.13
89.80
87.68
86.94
87.35
88.50
89.93
91.24
92.19
92.70
92.75
92.37
91.55
90.17
88.13
85.40
82.19
78.80
75.65
72.93
70.57
68.14
65.05
60.65
54.37
45.95
35.54
23.78
11.81
1.02
-7.25
-12.22
-13.86
-12.93
-10.66
-8.33
-6.99
-7.39
-10.08
-15.54
-24.06
-35.60
-49.55
-64.68
-79.38
-92.06
-101.54
-107.28
-109.41
-108.56
-105.53
-101.10
-95.83
-90.05
-83.83
-77.19
-70.23
-63.21
-56.54
-50.57
-45.54
-41.40
-37.95
-34.90
-31.99
-29.09
-26.21
-23.53
-21.35
-20.22
-20.67
-23.16
-27.75
-33.92
-40.57
-46.20
-49.22
-48.33
-42.84
-32.82
-19.06
-2.91
14.00
30.18
44.51
56.39
65.64
72.34
76.70
78.97
79.53
78.89
77.70
76.62
76.12
76.32
76.97
77.56
77.49
76.28
73.67
69.65
64.28
57.66
49.75
40.44
29.62
17.26
3.62
-10.72
-24.86
-37.90
-49.08
-58.18
-65.54
-71.98
-78.51
-86.00
-94.78
-104.50
-114.18
-122.40
-127.68
-128.69
-124.63
-115.33
-101.29
-83.62
-63.80
-43.48
-24.13
-6.97
7.17
17.84
25.00
28.87
29.94
28.91
26.58
23.83
21.48
20.20
20.38
21.99
24.68
27.85
30.83
33.11
34.51
35.06
34.94
34.25
32.92
30.75
27.52
23.26
18.26
13.00
7.98
3.52
-0.34
-3.91
-7.58
-11.78
-16.83
-22.96
-30.20
-38.25
-46.42
-53.50
-58.04
-58.63
-54.40
-45.41
-32.63
-17.69
-2.43
11.60
23.36
32.29
38.20
41.06
41.09
38.67
34.54
29.65
25.02
21.52
19.65
19.48
20.67
22.69
24.99
27.11
28.77
29.77
29.99
29.31
27.59
24.77
20.90
16.22
11.15
6.16
1.66
-2.17
-5.48
-8.69
-12.42
-17.30
-23.64
-31.35
-39.67
-47.33
-52.80
-54.66
-52.00
-44.73
-33.56
-19.84
-5.16
9.00
21.52
31.68
39.13
43.72
45.50
44.69
41.77
37.48
32.73
28.42
25.22
23.45
23.01
23.50
24.38
25.20
25.67
25.70
25.30
24.49
23.19
21.16
18.17
14.05
8.88
2.98
-3.12
-8.91
-14.08
-18.68
-23.11
-27.99
-33.96
-41.40
-50.25
-59.89
-69.18
-76.62
-80.72
-80.34
-75.06
-65.31
-52.32
-37.75
-23.31
-10.34
0.36
8.47
13.94
16.80
17.08
14.99
10.96
5.79
0.41
-4.28
-7.83
-10.24
-11.80
-12.97
-14.03
-15.01
-15.84
-16.42
-16.82
-17.20
-17.79
-18.72
-20.06
-21.73
-23.52
-25.11
-26.07
-26.03
-24.74
-22.30
-19.18
-16.08
-13.80
-12.94
-13.66
-15.66
-18.15
-19.97
-19.88
-16.77
-9.98
0.52
14.04
29.29
44.65
58.54
69.72
77.45
81.56
82.32
80.23
75.97
70.23
63.71
57.08
50.97
45.84
41.94
39.20
37.29
35.76
34.22
32.49
30.62
28.75
27.01
25.33
23.45
20.98
17.63
13.38
8.50
3.49
-1.08
-4.87
-7.81
-10.18
-12.48
-15.30
-19.21
-24.54
-31.32
-39.12
-47.07
-53.93
-58.34
-59.18
-55.86
-48.57
-38.17
-26.00
-13.50
-1.89
7.98
15.67
21.05
24.18
25.22
24.46
22.36
19.59
16.93
15.17
14.87
16.19
18.81
22.14
25.46
28.22
30.20
31.43
32.14
32.47
32.47
31.98
30.79
28.78
26.09
23.04
20.07
17.47
15.25
13.10
10.53
7.03
2.22
-3.95
-11.23
-19.02
-26.40
-32.31
-35.70
-35.81
-32.42
-25.97
-17.53
-8.49
-0.18
6.49
11.11
13.65
14.31
13.23
10.47
6.15
0.63
-5.38
-10.93
-15.11
-17.32
-17.55
-16.20
-13.95
-11.39
-8.86
-6.43
-4.10
-1.88
0.05
1.44
2.02
1.66
0.43
-1.45
-3.67
-5.91
-7.92
-9.58
-10.98
-12.44
-14.46
-17.55
-22.03
-27.74
-33.96
-39.53
-43.16
-43.81
-40.98
-34.85
-26.21
-16.14
-5.82
3.79
11.94
18.25
22.59
24.98
25.56
24.52
22.10
18.68
14.78
11.12
8.39
7.07
7.28
8.71
10.79
12.89
14.54
15.59
16.09
16.18
15.95
15.30
14.04
11.93
8.90
5.06
0.77
-3.52
-7.44
-10.80
-13.69
-16.45
-19.61
-23.65
-28.92
-35.43
-42.80
-50.25
-56.63
-60.68
-61.40
-58.21
-51.31
-41.60
-30.48
-19.42
-9.59
-1.65
4.31
8.49
11.20
12.58
12.67
11.46
9.14
6.15
3.13
0.76
-0.49
-0.52
0.39
1.77
3.10
4.02
4.39
4.22
3.59
2.60
1.27
-0.47
-2.75
-5.68
-9.32
-13.63
-18.34
-23.12
-27.59
-31.45
-34.64
-37.29
-39.69
-42.25
-45.37
-49.34
-54.29
-59.91
-65.52
-69.99
-72.11
-70.93
-66.09
-57.99
-47.61
-36.26
-25.13
-15.00
-6.25
1.07
7.05
11.72
15.10
17.28
18.45
19.06
19.64
20.72
22.62
25.44
28.97
32.89
36.85
40.54
43.71
46.17
47.75
48.38
48.09
46.99
45.24
42.98
40.30
37.22
33.78
30.06
26.22
22.47
19.01
15.90
13.10
10.36
7.37
3.78
-0.67
-6.07
-12.25
-18.70
-24.60
-28.85
-30.44
-28.59
-23.17
-14.72
-4.38
6.48
16.67
25.42
32.46
37.86
41.74
44.15
45.09
44.69
43.43
41.98
41.15
41.46
43.01
45.44
48.14
50.46
52.03
52.70
52.49
51.37
49.22
45.77
40.78
34.18
26.12
17.04
7.58
-1.58
-9.83
-16.89
-22.78
-27.84
-32.56
-37.44
-42.79
-48.79
-55.41
-62.42
-69.29
-75.22
-79.14
-79.98
-77.04
-70.25
-60.30
-48.41
-36.02
-24.38
-14.34
-6.35
-0.51
3.21
5.02
5.19
4.18
2.57
1.05
0.29
0.81
2.81
6.14
10.35
14.86
19.19
23.06
26.40
29.26
31.70
33.67
35.10
35.89
36.02
35.54
34.57
33.31
31.89
30.37
28.68
26.59
23.70
19.59
13.82
6.18
-3.33
-14.38
-26.31
-38.09
-48.53
-56.40
-60.77
-61.20
-57.86
-51.49
-43.24
-34.39
-26.12
-19.28
-14.33
-11.35
-10.22
-10.70
-12.56
-15.45
-18.83
-21.95
-23.97
-24.17
-22.32
-18.72
-14.07
-9.19
-4.64
-0.64
2.89
6.11
9.06
11.56
13.32
14.05
13.57
11.91
9.27
5.89
2.06
-2.02
-6.23
-10.51
-14.87
-19.44
-24.41
-30.10
-36.77
-44.40
-52.49
-59.96
-65.31
-66.99
-63.92
-55.89
-43.66
-28.76
-12.99
2.02
15.11
25.70
33.58
38.80
41.50
41.91
40.39
37.55
34.09
30.80
28.33
27.12
27.25
28.54
30.58
32.85
34.90
36.40
37.23
37.42
37.04
36.10
34.51
32.11
28.79
24.58
19.67
14.44
9.26
4.44
0.13
-3.73
-7.37
-11.24
-15.85
-21.70
-28.97
-37.38
-46.00
-53.44
-58.11
-58.68
-54.48
-45.73
-33.46
-19.26
-4.80
8.51
19.71
28.31
34.16
37.34
38.03
36.57
33.51
29.59
25.69
22.63
20.94
20.77
21.84
23.67
25.75
27.74
29.50
31.01
32.25
33.01
32.95
31.73
29.13
25.21
20.41
15.35
10.63
6.63
3.33
0.38
-2.73
-6.49
-11.24
-17.07
-23.82
-30.97
-37.67
-42.81
-45.19
-43.85
-38.41
-29.27
-17.44
-4.38
8.51
20.04
29.49
36.46
40.83
42.68
42.28
40.08
36.74
33.06
29.87
27.76
26.99
27.32
28.20
28.99
29.25
28.92
28.23
27.46
26.73
25.85
24.44
22.13
18.78
14.53
9.80
5.05
0.64
-3.28
-6.82
-10.26
-14.06
-18.64
-24.35
-31.24
-38.93
-46.63
-53.16
-57.22
-57.79
-54.36
-47.16
-37.09
-25.43
-13.52
-2.45
7.06
14.63
20.09
23.41
24.70
24.24
22.47
20.03
17.55
15.62
14.64
14.80
16.01
17.99
20.28
22.41
24.05
25.05
25.50
25.50
25.08
24.07
22.17
19.15
15.02
10.12
4.95
-0.02
-4.53
-8.61
-12.50
-16.51
-20.98
-26.12
-31.98
-38.38
-44.78
-50.30
-53.86
-54.46
-51.52
-45.11
-35.95
-25.20
-14.15
-3.83
5.02
12.06
17.15
20.26
21.42
20.77
18.66
15.63
12.37
9.56
7.70
7.01
7.38
8.45
9.76
10.95
11.80
12.32
12.62
12.77
12.76
12.41
11.52
9.91
7.59
4.74
1.68
-1.27
-3.90
-6.14
-8.14
-10.15
-12.47
-15.45
-19.38
-24.38
-30.28
-36.51
-42.09
-45.85
-46.70
-44.02
-37.91
-29.16
-18.99
-8.74
0.50
8.05
13.62
17.16
18.75
18.54
16.80
13.97
10.69
7.65
5.45
4.39
4.46
5.35
6.63
7.89
8.94
9.71
10.30
10.76
11.04
10.97
10.33
8.97
6.90
4.32
1.51
-1.22
-3.63
-5.67
-7.38
-9.00
-10.89
-13.50
-17.18
-22.05
-27.79
-33.64
-38.47
-41.15
-40.82
-37.22
-30.76
-22.38
-13.26
-4.50
3.11
9.16
13.58
16.39
17.68
17.53
16.11
13.79
11.14
8.82
7.36
7.03
7.70
9.00
10.46
11.75
12.73
13.43
13.95
14.28
14.27
13.62
12.06
9.46
5.95
1.90
-2.20
-5.92
-9.09
-11.89
-14.74
-18.18
-22.68
-28.48
-35.46
-43.17
-50.77
-57.16
-61.20
-61.89
-58.78
-52.07
-42.61
-31.70
-20.72
-10.80
-2.63
3.51
7.64
9.89
10.47
9.59
7.64
5.15
2.81
1.26
0.96
2.01
4.16
6.87
9.56
11.72
13.07
13.52
13.19
12.18
10.59
8.43
5.64
2.20
-1.82
-6.25
-10.85
-15.34
-19.60
-23.62
-27.57
-31.77
-36.59
-42.39
-49.34
-57.25
-65.49
-72.93
-78.21
-80.01
-77.56
-70.85
-60.70
-48.51
-35.86
-24.07
-14.01
-6.07
-0.28
3.51
5.58
6.28
6.08
5.56
5.40
6.20
8.36
11.94
16.60
21.78
26.84
31.31
35.05
38.24
41.14
43.95
46.62
48.85
50.27
50.58
49.71
47.77
45.07
41.91
38.63
35.53
32.78
30.35
27.84
24.52
19.46
11.96
1.87
-10.12
-22.54
-33.44
-40.92
-43.70
-41.43
-34.78
-25.23
-14.62
-4.63
3.56
9.42
13.03
14.71
14.85
13.74
11.61
8.90
6.30
4.67
4.75
6.83
10.56
15.16
19.73
23.66
26.80
29.36
31.57
33.44
34.68
34.87
33.63
30.89
26.94
22.31
17.59
13.18
9.23
5.57
1.80
-2.54
-7.90
-14.51
-22.31
-30.88
-39.41
-46.75
-51.58
-52.74
-49.46
-41.69
-30.12
-16.08
-1.20
12.96
25.10
34.39
40.38
43.02
42.64
39.83
35.51
30.69
26.35
23.18
21.46
20.95
21.11
21.33
21.19
20.63
19.87
19.13
18.48
17.64
16.12
13.46
9.42
4.18
-1.85
-8.18
-14.46
-20.59
-26.68
-32.95
-39.71
-47.22
-55.66
-64.86
-74.20
-82.50
-88.24
-89.94
-86.65
-78.26
-65.66
-50.38
-34.21
-18.74
-5.10
6.11
14.64
20.52
23.91
25.16
24.76
23.36
21.73
20.57
20.40
21.44
23.58
26.48
29.65
32.65
35.12
36.90
37.90
38.08
37.35
35.57
32.67
28.71
23.98
18.99
14.28
10.26
7.05
4.38
1.67
-1.82
-6.76
-13.48
-21.70
-30.55
-38.54
-43.95
-45.24
-41.46
-32.57
-19.43
-3.52
13.43
29.85
44.52
56.71
66.02
72.38
75.90
76.85
75.68
72.95
69.34
65.47
61.91
59.04
57.05
55.92
55.48
55.45
55.52
55.45
55.07
54.30
53.07
51.35
49.03
46.08
42.52
38.51
34.34
30.36
26.81
23.76
21.03
18.27
15.00
10.81
5.48
-0.83
-7.45
-13.17
-16.51
-16.05
-10.84
-0.73
13.63
30.86
49.25
67.04
82.73
95.23
103.86
108.28
108.45
104.49
96.76
85.85
72.62
58.11
43.33
28.98
15.29
1.97
-11.51
-25.58
-40.28
-55.21
-69.63
-82.71
-93.85
-102.74
-109.43
-114.23
-117.55
-119.81
-121.32
-122.19
-122.39
-121.82
-120.41
-118.25
-115.68
-113.18
-111.34
-110.60
-111.07
-112.35
-113.57
-113.44
-110.61
-104.05
-93.39
-79.00
-61.95
-43.69
-25.71
-9.18
5.16
16.94
26.08
32.61
36.67
38.42
38.24
36.71
34.62
32.84
32.15
32.98
35.32
38.70
42.43
45.89
48.75
51.10
53.19
55.23
57.15
58.58
59.10
58.46
56.83
54.72
52.77
51.48
50.97
50.90
50.62
49.35
46.54
42.02
36.21
30.01
24.67
21.43
21.23
24.54
31.27
40.88
52.50
65.18
77.99
90.10
100.80
109.48
115.67
119.11
119.88
118.43
115.43
111.61
107.45
103.07
98.29
92.85
86.55
79.23
70.59
60.04
46.74
30.08
10.24
-11.52
-33.22
-52.89
-69.37
-82.55
-92.96
-101.00
-106.42
-108.49
-106.82
-102.13
-96.41
-92.17
-91.14
-93.30
-96.67
-98.29
-95.59
-87.58
-75.14
-60.51
-46.17
-34.02
-24.92
-18.83
-15.31
-13.91
-14.44
-16.89
-21.16
-26.91
-33.54
-40.25
-46.26
-50.95
-53.92
-55.06
-54.42
-52.26
-48.89
-44.62
-39.78
-34.75
-30.14
-26.76
-25.50
-26.90
-30.86
-36.39
-41.93
-45.97
-47.68
-47.22
-45.58
-44.13
-43.96
-45.62
-49.15
-54.21
-60.22
-66.41
-71.80
-75.23
-75.64
-72.35
-65.36
-55.40
-43.66
-31.53
-20.18
-10.31
-2.20
4.23
9.22
13.01
15.83
17.84
19.30
20.50
21.75
23.25
24.96
26.67
28.13
29.30
30.37
31.56
32.95
34.25
34.87
34.25
32.15
28.82
24.94
21.21
18.10
15.61
13.44
11.21
8.64
5.63
2.09
-2.13
-7.28
-13.53
-20.76
-28.40
-35.49
-40.85
-43.44
-42.68
-38.65
-32.07
-24.01
-15.63
-7.85
-1.17
4.24
8.42
11.48
13.47
14.43
14.38
13.49
12.01
10.30
8.74
7.65
7.22
7.53
8.51
10.00
11.80
13.70
15.50
16.97
17.87
17.90
16.85
14.66
11.51
7.80
4.10
0.88
-1.56
-3.28
-4.66
-6.33
-8.95
-12.99
-18.52
-25.10
-31.72
-37.02
-39.61
-38.48
-33.43
-25.18
-15.19
-5.21
3.28
9.43
13.15
14.86
15.11
14.30
12.60
10.07
6.93
3.69
1.14
-0.00
0.60
2.76
5.76
8.78
11.27
13.15
14.80
16.69
19.03
21.57
23.63
24.46
23.59
21.13
17.72
14.26
11.49
9.70
8.53
7.21
4.83
0.82
-4.78
-11.20
-17.14
-21.21
-22.28
-19.89
-14.35
-6.68
1.73
9.41
15.21
18.44
18.91
16.88
12.87
7.57
1.65
-4.29
-9.77
-14.44
-18.02
-20.30
-21.01
-20.01
-17.27
-12.95
-7.46
-1.25
5.21
11.53
17.39
22.50
26.47
28.98
29.75
28.80
26.43
23.16
19.50
15.79
12.04
7.92
2.94
-3.38
-11.33
-20.83
-31.33
-41.82
-50.94
-57.21
-59.45
-57.03
-50.12
-39.72
-27.31
-14.43
-2.37
8.15
16.97
24.22
30.10
34.65
37.79
39.37
39.44
38.31
36.48
34.49
32.63
30.85
28.84
26.35
23.37
20.25
17.47
15.38
13.92
12.55
10.61
7.58
3.38
-1.57
-6.61
-11.09
-14.58
-16.99
-18.48
-19.31
-19.77
-20.14
-20.71
-21.77
-23.52
-25.88
-28.38
-30.10
-29.96
-26.95
-20.61
-11.24
0.24
12.50
24.19
34.36
42.42
48.10
51.30
52.01
50.37
46.70
41.57
35.75
30.06
25.22
21.74
19.80
19.31
20.00
21.43
23.16
24.79
26.06
26.86
27.15
26.95
26.18
24.74
22.43
19.16
14.94
10.02
4.79
-0.31
-5.02
-9.31
-13.47
-17.91
-23.08
-29.27
-36.45
-44.24
-51.87
-58.22
-62.12
-62.59
-59.10
-51.85
-41.63
-29.70
-17.40
-5.90
3.93
11.56
16.72
19.35
19.66
18.13
15.51
12.68
10.49
9.52
9.98
11.68
14.17
16.87
19.27
21.06
22.10
22.41
22.04
20.95
19.02
16.13
12.28
7.70
2.84
-1.85
-6.06
-9.82
-13.46
-17.49
-22.37
-28.34
-35.39
-43.18
-51.06
-58.10
-63.21
-65.44
-64.17
-59.40
-51.74
-42.30
-32.25
-22.58
-13.89
-6.48
-0.41
4.25
7.46
9.27
9.93
10.01
10.30
11.55
14.25
18.40
23.52
28.85
33.67
37.53
40.30
42.10
43.01
43.01
41.87
39.42
35.57
30.56
24.88
19.13
13.85
9.32
5.46
1.83
-2.23
-7.39
-14.03
-22.07
-30.82
-39.16
-45.77
-49.49
-49.62
-46.07
-39.35
-30.40
-20.32
-10.15
-0.75
7.25
13.44
17.58
19.62
19.66
18.04
15.33
12.16
9.22
7.04
5.93
5.96
6.97
8.66
10.67
12.62
14.21
15.27
15.77
15.79
15.39
14.57
13.19
11.09
8.19
4.62
0.71
-3.15
-6.67
-9.88
-13.07
-16.76
-21.38
-27.10
-33.70
-40.53
-46.58
-50.76
-52.06
-49.82
-44.00
-35.20
-24.56
-13.42
-3.01
5.88
12.94
18.22
21.83
23.85
24.31
23.31
21.23
18.74
16.64
15.62
15.97
17.52
19.75
22.01
23.78
24.90
25.47
25.74
25.90
25.92
25.54
24.33
22.02
18.55
14.20
9.50
4.96
0.95
-2.50
-5.63
-8.86
-12.64
-17.35
-23.18
-30.02
-37.42
-44.48
-50.02
-52.81
-51.97
-47.21
-38.99
-28.38
-16.77
-5.50
4.42
12.41
18.26
21.97
23.68
23.61
22.11
19.67
16.97
14.70
13.40
13.35
14.46
16.42
18.76
21.02
22.89
24.22
24.97
25.21
24.94
24.12
22.63
20.36
17.29
13.57
9.51
5.49
1.82
-1.38
-4.20
-6.93
-9.98
-13.71
-18.38
-24.00
-30.31
-36.68
-42.16
-45.66
-46.22
-43.34
-37.12
-28.27
-17.93
-7.37
2.35
10.45
16.50
20.36
22.08
21.90
20.22
17.61
14.72
12.20
10.55
10.04
10.69
12.26
14.40
16.70
18.83
20.54
21.64
22.00
21.51
20.09
17.77
14.70
11.14
7.44
3.95
0.94
-1.50
-3.47
-5.30
-7.50
-10.61
-14.99
-20.61
-26.90
-32.86
-37.24
-38.93
-37.24
-32.12
-24.12
-14.26
-3.72
6.37
15.10
21.90
26.49
28.81
29.02
27.39
24.35
20.43
16.34
12.75
10.23
9.07
9.14
10.02
11.16
12.08
12.59
12.76
12.70
12.47
11.89
10.65
8.48
5.30
1.37
-2.82
-6.71
-9.89
-12.30
-14.24
-16.33
-19.33
-23.88
-30.16
-37.80
-45.76
-52.62
-56.84
-57.28
-53.50
-45.86
-35.44
-23.66
-11.95
-1.46
7.13
13.53
17.76
19.98
20.43
19.41
17.31
14.63
11.93
9.77
8.50
8.23
8.79
9.86
11.07
12.22
13.23
14.15
14.97
15.56
15.64
14.86
13.01
10.07
6.31
2.16
-1.88
-5.47
-8.51
-11.21
-14.07
-17.69
-22.62
-29.10
-36.86
-45.10
-52.58
-57.86
-59.71
-57.49
-51.33
-42.10
-31.13
-19.79
-9.17
0.08
7.69
13.58
17.73
20.11
20.75
19.86
17.87
15.41
13.15
11.61
11.04
11.42
12.51
13.94
15.40
16.67
17.60
18.14
18.22
17.77
16.64
14.68
11.80
8.05
3.68
-0.91
-5.31
-9.26
-12.79
-16.25
-20.13
-24.91
-30.88
-38.04
-46.04
-54.19
-61.55
-66.99
-69.43
-68.09
-62.75
-53.95
-42.82
-30.86
-19.46
-9.65
-1.97
3.44
6.68
7.93
7.53
6.07
4.43
3.69
4.85
8.43
14.23
21.30
28.35
34.25
38.49
41.23
43.01
44.37
45.40
45.78
45.09
43.11
40.10
36.60
33.11
29.72
26.12
21.75
16.21
9.47
1.76
-6.58
-15.36
-24.40
-33.35
-41.40
-47.30
-49.72
-47.72
-41.22
-31.08
-18.81
-6.00
6.04
16.47
24.79
30.70
33.93
34.35
32.14
27.90
22.66
17.61
13.79
11.81
11.76
13.22
15.49
17.86
19.77
20.96
21.48
21.52
21.24
20.60
19.25
16.73
12.73
7.25
0.71
-6.21
-12.83
-18.78
-24.11
-29.21
-34.67
-41.01
-48.47
-56.78
-65.14
-72.23
-76.42
-76.15
-70.42
-59.07
-42.97
-23.78
-3.59
15.59
32.27
45.56
55.20
61.26
63.97
63.68
60.89
56.37
51.18
46.45
43.06
41.33
40.99
41.43
42.11
42.91
44.06
45.83
48.16
50.40
51.54
50.67
47.42
42.19
35.95
29.83
24.70
20.86
18.11
15.77
13.02
8.92
2.75
-5.83
-16.61
-28.81
-41.18
-52.15
-60.16
-63.83
-62.23
-55.07
-42.79
-26.66
-8.55
9.41
25.32
37.88
46.62
51.76
53.94
53.88
52.13
49.00
44.69
39.41
33.49
27.45
21.84
17.09
13.48
11.02
9.53
8.70
8.17
7.49
6.18
3.77
-0.06
-5.28
-11.48
-17.99
-23.98
-28.79
-32.10
-33.96
-34.72
-34.88
-34.97
-35.52
-37.05
-39.98
-44.49
-50.31
-56.54
-61.71
-64.08
-62.18
-55.27
-43.63
-28.46
-11.54
5.34
20.76
33.86
44.24
51.85
56.74
59.08
59.13
57.35
54.40
51.08
48.18
46.38
46.04
47.11
49.13
51.32
52.83
52.99
51.46
48.31
43.86
38.56
32.78
26.71
20.40
13.87
7.23
0.77
-5.14
-10.07
-13.74
-16.14
-17.57
-18.57
-19.87
-22.11
-25.69
-30.52
-35.92
-40.75
-43.66
-43.51
-39.76
-32.61
-22.98
-12.16
-1.46
8.12
15.89
21.52
24.79
25.66
24.22
20.84
16.19
11.17
6.71
3.57
2.13
2.38
4.00
6.53
9.48
12.47
15.19
17.42
18.99
19.78
19.65
18.48
16.23
12.98
8.99
4.73
0.67
-2.79
-5.62
-8.15
-11.00
-14.87
-20.23
-27.12
-34.97
-42.71
-48.98
-52.47
-52.27
-48.14
-40.55
-30.52
-19.25
-7.93
2.53
11.49
18.54
23.38
25.82
25.90
23.92
20.50
16.51
12.82
10.11
8.72
8.54
9.19
10.16
10.99
11.44
11.49
11.21
10.72
10.00
8.91
7.20
4.66
1.21
-3.00
-7.60
-12.18
-16.41
-20.15
-23.54
-26.90
-30.65
-35.16
-40.66
-47.10
-54.00
-60.46
-65.22
-66.95
-64.70
-58.24
-48.20
-35.89
-22.90
-10.62
0.07
8.78
15.42
20.00
22.46
22.80
21.26
18.38
15.04
12.14
10.33
9.85
10.49
11.80
13.32
14.78
16.05
17.13
18.00
18.51
18.43
17.54
15.69
12.87
9.26
5.21
1.10
-2.70
-6.00
-8.84
-11.49
-14.42
-18.08
-22.86
-28.86
-35.86
-43.19
-49.83
-54.52
-56.09
-53.79
-47.58
-38.14
-26.74
-14.78
-3.51
6.19
13.84
19.26
22.34
23.11
21.83
18.98
15.31
11.69
8.83
7.14
6.65
7.06
7.99
9.10
10.21
11.30
12.38
13.37
14.06
14.18
13.43
11.66
8.90
5.43
1.63
-2.11
-5.55
-8.64
-11.54
-14.55
-18.03
-22.27
-27.42
-33.38
-39.76
-45.85
-50.67
-53.16
-52.49
-48.27
-40.74
-30.69
-19.31
-7.90
2.46
10.99
17.30
21.29
23.07
22.94
21.30
18.73
15.94
13.61
12.26
12.08
12.89
14.30
15.85
17.27
18.48
19.52
20.36
20.84
20.61
19.38
17.06
13.85
10.18
6.54
3.29
0.55
-1.83
-4.18
-6.96
-10.63
-15.57
-21.82
-29.01
-36.21
-42.17
-45.52
-45.29
-41.15
-33.59
-23.72
-12.93
-2.51
6.64
14.02
19.43
22.79
24.12
23.55
21.43
18.38
15.18
12.59
11.06
10.70
11.26
12.38
13.66
14.86
15.88
16.66
17.15
17.28
16.93
15.97
14.30
11.89
8.81
5.22
1.42
-2.32
-5.85
-9.16
-12.55
-16.45
-21.36
-27.56
-35.00
-43.11
-50.91
-57.09
-60.40
-59.90
-55.30
-46.99
-36.02
-23.77
-11.65
-0.84
7.97
14.48
18.80
21.19
21.97
21.50
20.14
18.34
16.62
15.47
15.26
16.11
17.87
20.22
22.77
25.20
27.32
28.99
30.08
30.42
29.79
28.07
25.28
21.60
17.35
12.85
8.36
3.99
-0.28
-4.53
-8.97
-13.86
-19.48
-26.05
-33.46
-41.17
-48.18
-53.11
-54.70
-52.18
-45.60
-35.80
-24.15
-12.08
-0.71
9.27
17.49
23.73
27.78
29.51
28.96
26.55
23.05
19.38
16.45
14.86
14.77
15.93
17.81
19.86
21.62
22.92
23.78
24.32
24.60
24.56
24.00
22.67
20.46
17.43
13.85
10.06
6.36
2.89
-0.42
-3.79
-7.54
-11.97
-17.30
-23.57
-30.57
-37.76
-44.28
-49.06
-51.02
-49.43
-44.10
-35.55
-24.83
-13.28
-2.16
7.59
15.46
21.25
24.94
26.59
26.31
24.37
21.32
17.89
14.93
13.08
12.64
13.44
15.03
16.89
18.67
20.20
21.52
22.59
23.28
23.31
22.38
20.32
17.30
13.74
10.21
7.22
4.96
3.26
1.62
-0.59
-3.91
-8.62
-14.62
-21.39
-28.15
-33.84
-37.37
-37.84
-34.74
-28.22
-19.00
-8.31
2.51
12.33
20.35
26.20
29.80
31.22
30.68
28.55
25.33
21.70
18.40
16.03
14.93
15.07
16.10
17.48
18.64
19.25
19.21
18.65
17.80
16.74
15.36
13.40
10.64
7.03
2.79
-1.68
-5.96
-9.79
-13.16
-16.28
-19.57
-23.46
-28.33
-34.28
-41.07
-48.02
-54.12
-58.22
-59.38
-57.08
-51.43
-43.17
-33.40
-23.37
-14.13
-6.41
-0.55
3.38
5.44
5.80
4.64
2.25
-0.90
-4.23
-7.10
-8.97
-9.56
-8.91
-7.26
-4.95
-2.27
0.59
3.53
6.40
8.96
10.94
12.16
12.66
12.72
12.79
13.19
14.02
15.08
15.94
16.13
15.26
13.06
9.32
3.92
-3.09
-11.35
-20.07
-28.08
-34.04
-36.85
-35.91
-31.35
-23.93
-14.72
-4.82
4.91
13.96
21.98
28.73
33.94
37.39
39.07
39.26
38.54
37.68
37.34
37.88
39.20
40.83
42.06
42.27
41.18
39.01
36.42
34.21
32.96
32.73
32.93
32.66
30.97
27.34
21.84
15.02
7.68
0.55
-5.93
-11.60
-16.50
-20.84
-24.93
-29.19
-34.06
-39.82
-46.31
-52.75
-57.86
-60.18
-58.61
-52.77
-43.24
-31.29
-18.58
-6.70
3.12
10.16
14.22
15.56
14.83
12.82
10.38
8.10
6.34
5.19
4.67
4.79
5.54
6.91
8.73
10.74
12.66
14.32
15.71
16.87
17.78
18.20
17.82
16.36
13.87
10.71
7.49
4.79
2.91
1.77
0.94
-0.13
-1.97
-4.84
-8.77
-13.52
-18.65
-23.51
-27.35
-29.45
-29.23
-26.47
-21.40
-14.59
-6.87
0.90
7.98
13.83
18.10
20.62
21.35
20.42
18.18
15.13
11.82
8.82
6.55
5.23
4.88
5.31
6.23
7.30
8.25
8.89
9.18
9.13
8.75
7.93
6.54
4.56
2.05
-0.67
-3.23
-5.29
-6.78
-7.90
-9.11
-10.93
-13.74
-17.71
-22.57
-27.77
-32.52
-35.95
-37.32
-36.15
-32.36
-26.24
-18.43
-9.77
-1.12
6.72
13.13
17.74
20.37
21.09
20.14
17.92
14.94
11.80
9.04
7.08
6.13
6.08
6.61
7.24
7.55
7.31
6.50
5.24
3.73
2.09
0.37
-1.45
-3.42
-5.46
-7.45
-9.19
-10.55
-11.51
-12.18
-12.81
-13.73
-15.26
-17.64
-20.98
-25.08
-29.46
-33.29
-35.57
-35.39
-32.27
-26.37
-18.48
-9.81
-1.56
5.42
10.78
14.57
17.00
18.23
18.31
17.25
15.19
12.48
9.64
7.18
5.47
4.57
4.29
4.22
3.96
3.24
2.07
0.68
-0.58
-1.48
-2.08
-2.68
-3.72
-5.46
-7.89
-10.68
-13.43
-15.87
-18.00
-20.02
-22.19
-24.62
-27.34
-30.34
-33.64
-37.26
-41.00
-44.33
-46.37
-46.15
-43.01
-36.88
-28.39
-18.70
-9.05
-0.45
6.63
12.13
16.30
19.37
21.49
22.65
22.86
22.24
21.08
19.80
18.75
18.14
17.92
17.88
17.74
17.34
16.70
16.04
15.61
15.60
16.01
16.59
16.97
16.73
15.61
13.62
11.00
8.17
5.50
3.17
1.11
-0.98
-3.40
-6.42
-10.15
-14.55
-19.37
-24.19
-28.39
-31.26
-32.11
-30.46
-26.31
-20.14
-12.80
-5.25
1.65
7.38
11.65
14.37
15.51
15.04
12.94
9.40
4.87
0.10
-4.02
-6.69
-7.53
-6.60
-4.41
-1.66
0.93
2.86
3.90
4.10
3.77
3.22
2.63
1.91
0.74
-1.33
-4.54
-8.72
-13.21
-17.05
-19.36
-19.80
-18.73
-17.10
-16.09
-16.73
-19.47
-24.16
-30.07
-36.07
-40.85
-43.31
-42.72
-38.91
-32.31
-23.76
-14.27
-4.81
3.87
11.26
17.02
21.00
23.14
23.60
22.70
20.93
18.98
17.52
17.18
18.27
20.76
24.25
28.13
31.76
34.68
36.69
37.81
38.15
37.70
36.42
34.25
31.22
27.55
23.59
19.66
15.92
12.21
8.18
3.44
-2.27
-8.86
-15.95
-22.92
-29.24
-34.48
-38.44
-41.00
-42.06
-41.51
-39.35
-35.80
-31.31
-26.41
-21.51
-16.77
-12.13
-7.50
-3.04
0.76
3.24
3.87
2.58
-0.03
-2.87
-4.73
-4.74
-2.64
1.14
5.77
10.33
14.12
16.82
18.48
19.41
20.02
20.63
21.31
21.91
22.00
21.08
18.82
15.18
10.47
5.14
-0.40
-6.05
-12.07
-18.91
-26.98
-36.32
-46.40
-56.14
-64.11
-68.93
-69.72
-66.37
-59.52
-50.37
-40.22
-30.10
-20.64
-12.19
-4.96
0.82
4.89
7.11
7.58
6.72
5.16
3.60
2.65
2.69
3.82
5.86
8.40
10.94
13.14
14.92
16.51
18.35
20.80
23.83
27.06
29.89
31.86
32.86
33.09
32.73
31.73
29.63
25.89
20.22
12.84
4.35
-4.56
-13.49
-22.21
-30.46
-37.51
-42.15
-43.17
-39.90
-32.73
-23.06
-12.69
-3.07
5.16
12.14
18.26
23.67
28.02
30.58
30.78
28.60
24.70
20.26
16.49
14.20
13.58
14.28
15.63
17.11
18.43
19.56
20.58
21.48
22.08
22.10
21.25
19.39
16.56
12.98
8.97
4.88
1.02
-2.44
-5.51
-8.46
-11.75
-15.95
-21.54
-28.66
-37.00
-45.70
-53.49
-58.98
-60.99
-58.84
-52.59
-42.95
-31.06
-18.23
-5.65
5.69
15.04
21.90
26.04
27.56
26.89
24.68
21.66
18.52
15.93
14.58
15.13
18.16
23.86
31.88
41.30
50.91
59.55
66.36
70.80
72.53
71.34
67.14
60.12
50.94
40.72
30.67
21.61
13.57
5.73
-3.22
-14.42
-28.16
-43.47
-58.29
-70.05
-76.53
-76.50
-70.16
-58.92
-44.86
-30.01
-15.89
-3.33
7.31
15.83
21.95
25.30
25.68
23.29
18.93
13.84
9.41
6.70
6.14
7.49
9.98
12.80
15.40
17.67
19.78
21.94
24.09
25.87
26.69
26.08
23.99
20.77
17.03
13.38
10.12
7.12
3.90
-0.25
-5.99
-13.74
-23.39
-34.18
-44.71
-53.14
-57.59
-56.74
-50.12
-38.35
-22.93
-5.79
11.20
26.63
39.64
49.88
57.23
61.60
62.95
61.38
57.34
51.69
45.49
39.74
34.97
31.26
28.29
25.68
23.28
21.12
19.37
18.08
17.10
16.02
14.37
11.84
8.34
4.17
-0.18
-4.08
-7.00
-8.73
-9.49
-9.87
-10.73
-12.96
-17.19
-23.50
-31.33
-39.48
-46.26
-49.89
-48.99
-42.95
-32.19
-18.00
-2.22
13.37
27.39
39.09
48.16
54.50
58.07
58.87
57.09
53.38
48.77
44.51
41.71
40.90
41.84
43.70
45.39
46.02
45.18
43.01
39.94
36.47
32.78
28.79
24.19
18.69
12.21
5.00
-2.48
-9.75
-16.45
-22.47
-27.98
-33.31
-38.90
-45.20
-52.49
-60.66
-69.14
-76.77
-82.02
-83.42
-80.02
-71.67
-59.18
-44.03
-27.90
-12.28
1.73
13.55
22.82
29.35
33.08
34.08
32.75
29.83
26.30
23.14
21.05
20.33
20.82
22.13
23.80
25.52
27.17
28.75
30.22
31.41
32.05
31.76
30.29
27.56
23.81
19.42
14.82
10.34
6.05
1.72
-3.08
-8.78
-15.67
-23.62
-32.08
-40.06
-46.33
-49.70
-49.28
-44.80
-36.64
-25.76
-13.48
-1.13
10.15
19.53
26.49
30.85
32.72
32.44
30.62
27.98
25.27
23.13
21.97
21.93
22.90
24.57
26.57
28.52
30.14
31.24
31.65
31.27
29.94
27.58
24.19
19.94
15.15
10.24
5.56
1.29
-2.60
-6.38
-10.52
-15.51
-21.75
-29.32
-37.87
-46.56
-54.11
-59.14
-60.46
-57.53
-50.57
-40.60
-29.10
-17.63
-7.37
1.02
7.38
11.82
14.51
15.62
15.27
13.79
11.73
9.75
8.47
8.13
8.58
9.32
9.83
9.85
9.48
9.12
9.16
9.66
10.28
10.32
9.07
6.18
1.81
-3.33
-8.37
-12.56
-15.64
-17.86
-19.82
-22.21
-25.53
-29.96
-35.38
-41.35
-47.18
-51.92
-54.57
-54.23
-50.44
-43.36
-33.81
-23.04
-12.34
-2.78
5.01
10.82
14.71
16.86
17.53
16.99
15.58
13.72
11.83
10.33
9.40
9.08
9.23
9.59
9.97
10.22
10.36
10.45
10.48
10.38
9.92
8.86
7.07
4.60
1.70
-1.26
-3.99
-6.33
-8.33
-10.17
-12.06
-14.28
-17.06
-20.60
-24.93
-29.77
