1680169486.00
64.000000
-0.00
-0.00
-0.00
-0.00
-0.00
-0.00
-0.00
-0.00
-0.00
-0.00
0.00
0.01
0.01
-0.00
-0.03
-0.05
-0.05
0.00
0.13
0.36
0.66
1.01
1.37
1.72
2.06
2.40
2.79
3.24
3.80
4.42
5.06
5.66
6.20
6.68
7.15
7.68
8.31
9.14
10.09
11.04
11.88
12.56
13.14
13.76
14.65
15.96
17.91
20.32
22.90
25.38
27.58
29.57
31.68
34.32
37.81
42.54
48.15
54.10
59.83
64.97
69.58
74.14
79.34
85.71
93.76
103.00
112.62
121.73
129.77
136.75
143.30
150.75
157.77
166.64
177.95
191.79
206.97
220.57
228.25
225.36
208.53
176.87
132.76
80.05
23.07
-34.94
-92.44
-149.16
-205.23
-260.37
-313.74
-363.87
-409.83
-450.89
-486.48
-515.69
-537.16
-549.12
-549.82
-538.18
-513.97
-478.38
-433.52
-382.02
-326.51
-269.26
-211.97
-155.92
-102.13
-51.46
-4.91
36.67
72.61
102.64
126.90
145.89
160.34
170.94
178.32
182.88
184.91
184.64
182.33
178.35
173.09
166.97
160.34
153.44
146.42
139.35
132.26
125.22
118.27
111.49
104.95
98.70
92.77
87.19
81.96
77.09
72.59
68.47
64.73
61.39
58.43
55.86
53.68
51.90
50.49
49.45
48.74
48.29
47.99
47.71
47.27
46.45
45.06
42.88
39.76
35.62
30.44
24.26
17.22
9.56
1.57
-6.42
-14.07
-21.06
-27.12
-32.03
-35.66
-37.95
-38.92
-38.69
-37.39
-35.20
-32.33
-28.98
-25.31
-21.48
-17.59
-13.75
-10.04
-6.50
-3.15
-0.01
2.95
5.74
8.41
11.03
13.59
16.14
18.73
21.42
24.32
27.50
31.09
35.19
39.87
45.02
50.49
56.11
61.75
67.34
72.87
78.38
83.98
89.72
95.40
100.79
105.74
110.15
114.06
117.65
121.17
124.88
128.95
133.05
136.79
139.71
141.42
141.66
140.31
137.27
132.22
126.55
120.53
113.85
106.06
96.84
86.32
75.21
64.62
55.54
48.46
42.71
36.96
29.70
19.96
7.88
-5.25
-17.39
-26.63
-32.22
-35.17
-37.79
-42.74
-51.88
-65.34
-81.40
-97.42
-110.95
-121.04
-128.83
-136.80
-147.88
-164.42
-187.84
-218.20
-253.59
-289.09
-316.28
-324.74
-305.27
-254.24
-176.45
-84.57
5.20
79.25
131.24
163.05
181.74
194.74
206.11
215.97
222.36
223.92
221.29
216.48
211.08
204.87
195.92
181.76
161.12
134.92
106.00
77.95
53.40
33.02
15.41
-2.02
-21.73
-44.86
-70.77
-97.56
-122.99
-145.66
-165.66
-184.68
-205.40
-230.45
-261.02
-295.93
-331.32
-361.58
-381.24
-387.08
-379.49
-362.55
-342.40
-324.94
-313.83
-309.62
-310.43
-313.31
-315.50
-315.04
-310.76
-301.81
-287.46
-267.17
-240.70
-208.14
-169.69
-125.65
-76.59
-23.77
30.39
82.36
128.24
164.72
190.10
204.56
209.91
208.70
203.56
196.68
189.68
183.64
179.00
175.39
171.53
165.40
154.91
138.77
117.11
91.61
64.94
39.87
18.31
1.02
-12.23
-22.05
-28.94
-33.10
-34.60
-33.66
-30.72
-26.32
-20.75
-14.04
-6.21
2.39
10.96
18.49
24.20
27.90
30.03
31.15
31.52
30.94
28.99
25.44
20.50
14.71
8.41
1.38
-7.10
-17.68
-30.19
-43.37
-55.13
-63.45
-67.31
-66.99
-63.83
-59.43
-55.04
-51.63
-50.34
-53.05
-62.17
-79.66
-105.51
-136.66
-167.30
-190.36
-199.79
-192.71
-169.96
-135.16
-92.99
-47.51
-1.71
42.00
80.89
111.75
131.60
139.01
135.12
123.57
109.35
96.98
89.17
86.43
87.62
90.98
94.95
98.34
100.15
99.43
95.25
86.89
74.24
57.86
39.15
20.26
3.57
-8.82
-15.58
-16.60
-12.88
-6.10
2.07
10.47
18.62
26.38
33.48
39.43
43.56
45.43
45.19
43.47
41.15
38.88
36.75
34.36
31.06
26.35
20.19
13.10
6.06
0.13
-3.78
-5.25
-4.45
-1.98
1.46
5.37
9.60
14.18
19.06
23.77
27.55
29.60
29.47
27.39
24.13
20.72
17.96
16.16
15.03
14.02
12.59
10.56
8.18
6.07
4.82
4.72
5.48
6.41
6.72
6.02
4.55
3.07
2.47
3.32
5.51
8.39
11.04
12.78
13.40
13.18
12.66
12.27
12.18
12.25
12.17
11.83
11.26
10.83
10.93
11.87
13.60
15.66
17.34
17.91
16.85
13.98
9.49
3.90
-1.88
-6.64
-9.13
-8.43
-4.68
0.60
4.72
4.52
-2.49
-17.09
-38.09
-62.62
-86.95
-107.56
-121.84
-128.43
-127.22
-119.01
-105.21
-87.32
-66.84
-45.05
-23.33
-3.20
13.73
26.19
33.95
38.12
40.84
44.26
49.41
55.58
60.74
62.67
60.34
54.55
47.49
41.57
38.12
36.87
36.27
34.62
31.01
25.63
19.51
13.77
9.10
5.75
3.70
3.06
4.01
6.60
10.39
14.28
16.69
16.09
11.58
3.36
-7.31
-18.43
-27.94
-34.28
-36.70
-35.32
-30.77
-23.94
-15.74
-7.13
0.80
6.94
10.39
10.80
8.62
4.99
1.26
-1.59
-3.27
-4.08
-4.60
-5.22
-6.08
-7.10
-8.23
-9.47
-10.82
-12.01
-12.62
-12.26
-10.91
-9.24
-8.39
-9.46
-12.79
-17.64
-22.42
-25.52
-25.98
-23.94
-20.35
-16.38
-12.77
-9.67
-6.75
-3.55
0.34
5.32
11.76
19.84
29.28
39.08
47.80
54.10
57.33
57.79
56.36
53.85
50.45
45.82
39.52
31.70
23.32
15.90
10.75
8.38
8.38
9.68
11.17
12.17
12.54
12.40
11.86
10.88
9.35
7.39
5.52
4.49
4.94
7.02
10.27
13.79
16.54
17.64
16.60
13.30
8.02
1.35
-5.73
-12.09
-16.72
-19.06
-19.25
-18.10
-16.67
-15.78
-15.79
-16.45
-17.18
-17.31
-16.31
-13.97
-10.32
-5.78
-0.94
3.51
7.05
9.49
10.96
11.78
12.21
12.35
12.08
11.28
9.97
8.29
6.45
4.55
2.63
0.68
-1.14
-2.50
-3.07
-2.75
-1.80
-0.84
-0.55
-1.35
-3.24
-5.70
-8.06
-9.69
-10.25
-9.74
-8.40
-6.57
-4.58
-2.78
-1.48
-0.94
-1.28
-2.39
-3.92
-5.34
-6.13
-6.00
-4.89
-3.02
-0.70
1.70
3.92
5.83
7.37
8.69
9.91
11.17
12.45
13.58
14.34
14.59
14.35
13.71
12.85
11.86
10.89
10.08
9.61
9.60
9.95
10.36
10.40
9.79
8.52
6.92
5.35
4.15
3.52
3.50
4.12
5.21
6.41
7.14
6.85
5.39
3.24
1.34
0.52
1.04
2.38
3.52
3.50
1.69
-2.12
-8.14
-16.59
-27.63
-40.68
-54.12
-65.39
-71.89
-71.89
-65.35
-53.73
-39.23
-23.98
-9.41
3.69
14.89
23.84
30.35
34.56
36.98
38.40
39.42
40.20
40.42
39.54
37.23
33.43
28.45
22.80
17.03
11.79
7.75
5.41
4.86
5.61
6.73
7.24
6.66
5.16
3.39
2.00
1.22
0.63
-0.47
-2.67
-6.07
-10.20
-14.32
-17.67
-19.72
-20.18
-19.12
-16.83
-13.90
-11.13
-9.26
-8.83
-9.96
-12.38
-15.62
-19.10
-22.24
-24.39
-24.91
-23.29
-19.42
-13.70
-6.99
-0.38
5.20
9.25
11.71
12.89
13.29
13.36
13.43
13.59
13.75
13.66
13.07
11.87
10.23
8.59
7.53
7.51
8.74
11.03
13.85
16.60
18.69
19.92
20.44
20.70
21.21
22.21
23.47
24.48
24.59
23.33
20.39
15.74
9.51
2.04
-5.93
-13.45
-19.37
-22.81
-23.43
-21.54
-17.94
-13.50
-8.95
-4.81
-1.61
0.07
-0.28
-2.73
-6.60
-10.57
-13.17
-13.41
-11.39
-8.20
-5.36
-4.00
-4.35
-5.63
-6.67
-6.55
-5.09
-2.72
-0.25
1.69
2.82
3.17
3.00
2.60
2.29
2.35
2.97
4.09
5.33
6.08
5.80
4.38
2.22
0.05
-1.48
-2.13
-2.12
-1.98
-2.22
-3.07
-4.42
-5.99
-7.52
-8.83
-9.82
-10.37
-10.39
-10.04
-9.67
-9.73
-10.52
-12.00
-13.82
-15.43
-16.55
-17.30
-18.47
-20.99
-25.41
-31.48
-38.37
-44.86
-49.78
-52.42
-52.86
-52.43
-52.84
-55.39
-60.36
-67.04
-74.07
-79.63
-82.23
-81.34
-78.73
-77.12
-79.39
-87.46
-102.03
-122.01
-143.90
-162.66
-173.42
-174.94
-168.64
-158.01
-146.34
-135.93
-126.71
-115.51
-96.94
-65.16
-17.69
45.58
122.03
206.91
292.84
367.16
416.41
430.96
420.49
396.30
367.67
334.67
296.33
250.90
198.16
141.73
88.53
46.20
17.94
2.93
-3.12
-5.19
-7.69
-12.76
-19.27
-24.28
-25.23
-23.02
-20.48
-20.77
-25.11
-32.76
-41.22
-47.13
-47.91
-42.91
-34.57
-26.32
-20.90
-18.96
-19.54
-20.75
-20.76
-18.60
-14.49
-9.86
-6.12
-3.91
-2.83
-2.13
-1.22
0.07
1.46
2.47
2.60
1.69
-0.11
-2.44
-5.00
-7.56
-9.86
-11.61
-12.60
-12.98
-13.29
-14.25
-16.41
-19.67
-23.19
-25.70
-26.08
-23.97
-19.88
-14.96
-10.41
-7.07
-5.18
-4.47
-4.54
-5.04
-5.76
-6.66
-7.77
-9.07
-10.45
-11.71
-12.55
-12.62
-11.65
-9.47
-6.24
-2.40
1.48
4.89
7.57
9.58
11.12
12.38
13.42
14.10
14.25
13.85
13.00
11.95
10.82
9.60
8.15
6.38
4.33
2.23
0.44
-0.73
-1.05
-0.56
0.44
1.45
1.85
1.24
-0.40
-2.53
-4.40
-5.37
-5.39
-5.04
-5.25
-6.90
-10.43
-15.73
-22.23
-29.17
-35.63
-40.58
-43.03
-42.22
-38.12
-31.53
-23.95
-16.95
-11.51
-7.82
-5.38
-3.55
-1.96
-0.60
0.45
1.26
2.16
3.41
4.90
6.07
6.07
4.31
0.75
-4.02
-9.07
-13.47
-16.67
-18.46
-18.97
-18.61
-17.91
-17.41
-17.52
-18.28
-19.38
-20.31
-20.64
-20.43
-20.40
-21.69
-25.38
-31.89
-40.57
-49.80
-57.51
-62.06
-62.99
-61.29
-59.10
-58.97
-63.10
-72.59
-87.13
-104.80
-122.40
-136.20
-143.02
-141.20
-131.29
-115.69
-97.44
-78.75
-59.60
-37.28
-7.21
35.05
91.44
159.48
232.15
299.67
352.65
385.35
397.33
392.96
378.68
359.88
338.62
313.57
281.45
239.26
186.18
124.35
58.69
-4.13
-57.27
-95.32
-115.90
-120.33
-113.20
-100.71
-88.68
-81.09
-79.37
-82.88
-89.73
-97.56
-103.99
-107.00
-105.33
-98.90
-88.91
-77.48
-66.78
-58.23
-52.10
-47.62
-43.62
-39.03
-33.36
-26.66
-19.50
-12.61
-6.76
-2.38
0.67
3.19
6.28
10.87
17.09
23.94
29.54
31.86
29.60
22.91
13.41
3.61
-4.03
-8.19
-9.10
-8.31
-7.89
-9.40
-13.19
-18.38
-23.46
-27.14
-28.95
-29.13
-28.29
-26.79
-24.51
-21.07
-16.42
-11.17
-6.57
-3.97
-4.25
-7.30
-12.10
-17.02
-20.49
-21.45
-19.69
-15.75
-10.66
-5.52
-1.16
2.05
4.13
5.27
5.64
5.32
4.29
2.51
0.12
-2.56
-4.97
-6.55
-6.89
-5.86
-3.63
-0.60
2.85
6.41
9.91
13.17
15.93
17.97
19.14
19.56
19.59
19.73
20.36
21.53
22.84
23.57
22.93
20.40
15.94
10.21
4.36
-0.26
-2.57
-2.17
0.44
4.06
7.25
8.85
8.35
5.93
2.17
-2.32
-7.19
-12.28
-17.55
-22.74
-27.31
-30.54
-31.87
-31.20
-28.98
-26.02
-23.16
-20.90
-19.30
-18.12
-17.09
-16.11
-15.24
-14.42
-13.44
-11.80
-9.13
-5.36
-0.87
3.66
7.68
11.00
13.87
16.71
19.85
23.13
25.94
27.36
26.59
23.37
18.06
11.63
5.24
-0.13
-3.89
-5.90
-6.31
-5.51
-3.88
-1.92
-0.13
1.03
1.33
0.89
0.14
-0.35
-0.24
0.43
1.16
1.42
0.83
-0.59
-2.45
-4.31
-5.84
-6.93
-7.47
-7.33
-6.15
-3.70
0.08
4.76
9.71
14.20
17.76
20.19
21.43
21.39
19.75
16.09
10.29
2.87
-4.83
-10.93
-13.73
-12.60
-8.69
-4.95
-5.07
-11.85
-25.66
-43.95
-62.34
-76.66
-85.01
-88.53
-90.28
-93.17
-97.91
-102.63
-103.96
-99.18
-87.76
-71.60
-53.70
-36.59
-21.09
-6.52
8.36
23.90
38.87
50.78
56.95
56.05
48.82
38.09
27.65
20.78
18.92
21.40
25.90
29.70
30.83
28.52
23.28
16.49
10.14
6.65
8.59
18.01
35.48
59.38
85.75
109.34
125.40
131.29
127.25
115.87
100.48
83.39
65.15
45.10
22.83
-0.34
-21.05
-34.94
-38.62
-31.34
-15.54
4.21
23.06
37.66
46.82
51.13
51.78
49.57
44.54
36.23
24.46
9.67
-6.83
-23.27
-37.78
-48.81
-55.39
-57.15
-54.37
-47.82
-38.58
-27.76
-16.33
-4.95
5.91
15.73
23.75
28.96
30.36
27.54
21.05
12.54
4.14
-2.43
-6.60
-9.18
-11.72
-15.50
-20.63
-25.70
-28.43
-26.78
-20.03
-9.59
1.19
7.77
5.85
-7.45
-32.53
-67.15
-106.83
-146.02
-179.53
-203.61
-216.79
-219.58
-213.64
-200.86
-182.43
-158.38
-127.49
-88.02
-38.92
18.81
81.41
142.86
196.70
238.14
265.60
280.63
286.06
283.74
272.96
250.95
215.32
167.20
112.65
61.49
23.73
5.32
5.75
18.44
33.78
43.12
42.00
31.27
15.56
0.51
-10.04
-15.46
-17.95
-21.12
-27.87
-39.28
-54.28
-70.38
-84.61
-94.61
-98.96
-97.31
-90.21
-78.82
-64.61
-49.31
-34.75
-22.87
-15.79
-15.35
-22.48
-36.27
-53.32
-68.24
-75.19
-70.09
-52.57
-26.36
1.98
25.55
39.38
41.81
34.18
19.77
2.59
-13.74
-26.29
-32.95
-32.62
-25.45
-12.91
2.33
17.15
28.80
35.76
37.92
36.32
32.31
27.04
21.10
14.75
8.37
2.80
-0.77
-1.07
2.65
10.30
20.91
32.80
44.07
53.05
58.66
60.48
58.67
53.81
46.59
37.75
28.00
18.01
8.46
0.12
-6.13
-9.24
-8.31
-2.90
6.61
18.73
30.97
40.42
44.57
42.26
34.14
22.34
9.53
-2.13
-11.91
-20.34
-28.44
-36.54
-43.55
-47.06
-44.48
-34.60
-18.54
0.19
16.93
27.64
30.20
24.80
13.27
-1.95
-18.68
-35.26
-50.41
-63.01
-72.06
-76.91
-77.37
-73.83
-66.94
-57.30
-45.42
-31.67
-16.64
-1.29
12.95
24.49
31.69
33.42
29.12
19.06
4.34
-13.25
-31.35
-47.22
-58.03
-61.16
-54.87
-39.00
-15.39
12.13
38.56
58.87
69.25
67.82
54.88
32.55
4.39
-25.17
-51.26
-69.28
-75.76
-69.27
-51.02
-24.70
4.39
30.69
49.71
58.86
57.57
46.99
29.25
7.03
-16.68
-38.69
-55.81
-65.29
-65.38
-55.94
-38.57
-16.24
7.36
28.73
45.17
55.04
57.72
53.37
42.68
26.91
7.97
-11.51
-28.32
-39.31
-42.15
-36.11
-22.41
-3.83
16.08
33.98
47.43
55.04
56.19
50.72
38.80
21.25
-0.18
-22.55
-42.11
-55.16
-59.08
-53.15
-38.87
-19.63
0.11
15.99
24.75
24.85
16.53
1.43
-17.99
-39.09
-59.46
-77.37
-91.79
-102.58
-110.30
-115.89
-120.18
-123.48
-125.51
-125.56
-123.04
-117.71
-109.72
-99.31
-86.19
-69.19
-46.07
-14.15
28.43
81.17
140.28
198.94
249.13
284.17
300.93
300.39
286.43
263.31
233.57
197.41
154.24
105.00
53.89
7.92
-25.67
-42.66
-43.99
-35.25
-24.02
-16.25
-13.86
-14.56
-14.25
-10.07
-2.58
4.26
5.14
-3.72
-22.61
-48.07
-74.44
-96.00
-108.81
-111.32
-103.85
-87.70
-64.41
-35.78
-4.16
27.18
54.14
72.47
78.83
71.77
52.34
24.00
-7.96
-37.38
-58.63
-67.95
-64.48
-50.45
-30.38
-9.40
8.41
20.99
28.31
31.37
31.23
28.40
22.98
15.15
5.60
-4.43
-13.53
-20.41
-24.20
-24.33
-20.50
-12.72
-1.57
11.66
25.04
36.30
43.44
45.19
41.34
32.69
20.71
6.97
-7.20
-20.88
-33.33
-43.61
-50.46
-52.47
-48.60
-38.74
-23.99
-6.48
11.13
26.30
37.01
42.04
41.03
34.48
23.54
9.80
-5.02
-19.31
-31.77
-41.26
-46.74
-47.35
-42.63
-32.84
-19.16
-3.58
11.51
23.85
31.78
34.49
31.93
24.63
13.53
-0.16
-15.01
-29.35
-41.35
-49.09
-50.95
-45.97
-34.31
-17.35
2.51
22.29
39.09
50.58
55.51
53.71
46.06
34.20
20.12
5.72
-7.52
-18.70
-27.33
-32.97
-34.92
-32.26
-24.25
-11.05
5.81
23.42
38.27
47.22
48.62
42.61
31.05
16.65
2.13
-10.58
-20.57
-27.76
-32.33
-34.17
-32.60
-26.53
-15.12
1.47
21.64
42.41
60.19
71.87
75.57
71.08
59.50
42.80
23.34
3.83
-12.71
-23.11
-24.69
-16.38
0.45
21.77
41.80
54.76
56.81
47.08
27.63
2.15
-25.64
-53.11
-78.78
-101.66
-120.61
-134.05
-140.39
-138.88
-129.96
-115.01
-95.51
-72.38
-45.98
-16.82
13.44
41.62
63.56
75.55
75.91
65.83
48.90
29.66
11.95
-2.13
-12.27
-19.03
-22.89
-23.63
-20.51
-12.90
-0.84
14.80
32.49
50.47
66.87
79.76
86.88
85.86
74.70
52.70
21.28
-15.62
-52.13
-81.63
-98.54
-99.94
-86.44
-62.05
-32.80
-5.05
16.24
28.50
31.64
27.44
18.59
7.90
-2.39
-10.81
-16.80
-20.35
-21.63
-20.52
-16.55
-9.04
2.26
16.61
32.28
46.75
57.54
62.95
62.36
56.17
45.47
31.58
15.79
-0.76
-17.08
-32.32
-45.62
-56.10
-62.70
-64.29
-59.99
-49.77
-34.84
-17.64
-1.45
10.59
16.36
15.26
8.22
-2.84
-15.70
-28.34
-39.24
-47.38
-51.94
-52.27
-47.81
-38.25
-23.82
-5.61
14.45
33.86
50.08
61.17
66.30
65.79
60.80
52.75
42.95
32.28
21.29
10.37
0.01
-8.94
-15.29
-17.61
-14.64
-5.86
8.03
24.90
41.44
53.95
59.36
56.23
45.29
29.06
11.00
-5.85
-19.71
-30.34
-38.40
-44.59
-48.86
-50.31
-47.58
-39.70
-26.77
-10.17
7.65
23.83
35.74
41.60
40.92
34.52
24.24
12.25
0.21
-11.20
-22.15
-33.04
-43.57
-52.27
-56.61
-53.96
-42.83
-23.86
-0.02
24.14
43.85
55.63
58.10
52.19
40.41
25.74
10.59
-3.85
-17.47
-30.67
-43.49
-55.00
-63.29
-66.02
-61.49
-49.45
-31.53
-10.96
8.33
22.87
30.62
31.44
26.77
18.87
9.82
0.95
-7.43
-15.49
-23.29
-30.19
-34.93
-35.97
-32.25
-23.66
-11.22
3.17
17.23
28.63
35.36
36.05
30.43
19.45
5.15
-9.96
-23.67
-34.70
-42.74
-47.95
-50.31
-49.26
-43.85
-33.35
-18.01
0.72
20.41
38.23
51.63
59.07
60.10
55.44
46.53
35.13
22.77
10.55
-0.91
-11.02
-18.98
-23.59
-23.52
-17.88
-6.90
7.68
22.97
35.69
43.21
44.23
39.06
29.30
17.12
4.66
-6.51
-15.53
-22.24
-26.81
-29.46
-30.01
-27.79
-21.99
-12.15
1.02
15.60
28.80
37.88
41.09
38.15
30.12
18.94
6.95
-3.38
-9.64
-10.11
-4.37
5.99
17.29
24.77
24.14
13.34
-6.66
-32.36
-59.16
-83.06
-101.78
-114.86
-122.94
-126.80
-126.75
-122.71
-114.51
-102.24
-86.40
-67.45
-45.72
-21.33
5.31
33.02
59.59
82.14
97.87
104.92
102.93
93.11
77.71
59.37
40.45
22.73
7.45
-4.39
-11.68
-13.15
-7.68
5.05
24.07
46.89
69.91
89.19
101.40
104.51
98.08
83.25
62.36
38.31
13.99
-8.43
-27.86
-44.12
-57.50
-68.02
-75.00
-77.06
-72.61
-60.82
-42.35
-19.70
3.12
21.55
31.75
31.86
22.69
7.40
-9.51
-23.83
-33.06
-36.84
-36.56
-34.12
-30.82
-26.71
-20.91
-12.27
-0.37
14.03
29.01
41.94
50.23
52.03
46.74
35.17
19.35
1.99
-14.21
-27.18
-35.77
-39.61
-38.78
-33.50
-23.99
-10.75
5.19
22.00
37.33
48.72
54.27
53.14
45.66
33.20
17.71
1.14
-14.92
-29.43
-41.82
-51.64
-58.32
-61.10
-59.02
-51.34
-37.94
-19.66
1.45
22.47
40.16
51.73
55.65
51.82
41.52
26.84
10.25
-5.91
-19.65
-29.42
-34.08
-33.08
-26.39
-14.62
1.04
18.85
36.58
51.63
61.48
64.35
59.78
48.97
34.36
18.69
3.87
-9.59
-22.24
-34.66
-46.36
-55.41
-58.99
-54.69
-41.71
-21.54
2.42
25.86
44.69
56.03
58.62
52.83
40.35
23.69
5.53
-11.87
-26.97
-38.92
-47.17
-51.04
-49.57
-41.85
-27.76
-8.48
13.48
34.81
52.25
63.38
67.09
63.50
53.65
39.05
21.56
3.05
-14.66
-29.95
-41.35
-47.73
-48.32
-42.92
-32.07
-17.11
-0.02
16.90
31.48
42.09
47.89
48.79
45.31
38.22
28.26
15.96
1.77
-13.70
-29.24
-42.95
-52.58
-56.18
-52.99
-43.87
-31.33
-18.60
-8.66
-3.32
-2.89
-6.48
-12.64
-20.22
-28.73
-38.33
-49.35
-61.69
-74.34
-85.40
-92.63
-94.38
-90.54
-82.98
-75.41
-72.25
-77.07
-91.00
-111.85
-134.62
-153.21
-162.78
-161.63
-151.47
-136.42
-120.84
-107.39
-96.17
-85.09
-70.86
-49.94
-19.25
23.02
76.54
137.89
200.29
254.84
292.78
308.11
299.15
268.57
222.23
167.56
112.26
63.38
26.65
5.58
0.68
9.22
26.04
45.14
61.50
72.09
75.93
73.38
65.55
53.81
39.68
24.81
10.60
-1.87
-11.93
-18.95
-21.98
-20.03
-12.34
0.75
17.44
34.64
48.83
57.23
58.65
53.68
44.07
31.89
18.59
4.83
-9.16
-22.92
-35.29
-44.32
-47.89
-44.50
-33.86
-17.17
3.09
23.76
41.57
53.79
58.69
55.87
46.38
32.33
16.24
0.18
-14.82
-28.67
-41.68
-53.45
-62.46
-66.16
-61.97
-48.75
-27.74
-2.67
21.24
38.96
47.17
45.08
34.25
17.82
-0.77
-18.57
-33.72
-45.47
-53.87
-59.28
-61.82
-61.06
-56.12
-46.07
-30.73
-11.32
9.36
27.32
38.55
40.27
31.96
15.67
-4.82
-25.08
-41.47
-51.93
-56.17
-55.07
-50.00
-42.08
-31.91
-19.66
-5.33
10.99
28.91
47.63
65.68
80.84
90.47
92.18
84.86
69.48
48.92
27.06
7.29
-8.56
-20.34
-28.78
-34.30
-36.27
-33.30
-24.35
-9.77
8.16
25.93
39.93
47.77
48.85
44.10
35.24
23.94
11.39
-1.79
-15.21
-28.47
-40.87
-51.20
-57.86
-59.11
-53.60
-40.96
-22.16
0.32
22.97
42.07
54.61
58.96
55.09
44.27
28.39
9.34
-11.33
-32.27
-51.97
-68.42
-79.25
-82.23
-76.04
-60.83
-38.46
-12.06
14.71
38.41
56.52
67.57
71.27
68.22
59.63
47.04
31.96
15.74
-0.49
-15.58
-28.18
-36.60
-39.05
-34.09
-21.30
-1.77
21.84
45.65
65.56
78.48
83.13
80.32
72.17
61.08
48.62
35.34
21.26
6.72
-7.07
-18.28
-25.24
-27.18
-24.58
-18.87
-11.88
-5.46
-1.50
-1.89
-8.35
-21.69
-41.17
-64.14
-86.70
-105.09
-117.06
-122.52
-123.00
-120.29
-115.02
-106.00
-90.91
-67.73
-36.53
-0.20
35.84
65.29
82.97
86.61
77.57
60.16
40.10
22.48
10.29
3.77
1.01
-0.70
-3.26
-6.74
-9.42
-8.69
-2.48
9.60
25.92
43.35
58.23
67.50
69.41
63.80
51.94
36.11
18.89
2.52
-11.67
-23.44
-33.26
-41.69
-48.51
-52.39
-51.18
-42.94
-27.08
-5.12
19.37
41.84
58.11
65.62
63.92
54.45
39.60
21.83
3.09
-15.40
-32.86
-48.56
-61.47
-70.15
-73.05
-69.05
-58.09
-41.48
-21.81
-2.27
14.33
26.37
33.67
37.18
37.97
36.52
32.40
24.67
12.67
-3.23
-21.35
-38.74
-51.91
-57.50
-53.35
-39.17
-16.95
9.41
34.97
55.03
66.29
67.57
59.71
44.95
25.99
5.15
-15.99
-36.50
-55.55
-71.81
-83.29
-87.58
-82.77
-68.32
-45.81
-18.72
8.52
31.71
47.98
56.14
56.47
50.03
38.20
22.29
3.47
-17.06
-37.82
-56.67
-70.78
-77.04
-73.09
-58.39
-34.98
-7.12
20.00
41.96
56.35
63.01
63.38
59.38
52.48
43.26
31.55
17.10
0.12
-18.07
-34.86
-46.73
-50.26
-43.40
-26.59
-2.95
22.56
44.84
60.15
67.03
66.07
58.91
47.27
32.42
15.24
-3.31
-21.82
-38.43
-51.00
-57.64
-57.08
-48.99
-34.11
-14.29
7.68
28.45
44.81
54.44
56.52
51.76
41.92
28.85
13.88
-2.33
-19.22
-35.60
-49.20
-56.94
-56.05
-45.23
-25.53
-0.36
25.26
45.98
57.32
56.64
43.60
20.13
-9.96
-41.85
-70.76
-92.97
-106.46
-110.88
-106.99
-95.87
-78.37
-55.18
-27.30
3.35
33.79
60.49
80.24
90.99
92.28
85.10
71.31
53.15
32.72
11.78
-8.31
-26.53
-41.90
-53.30
-59.20
-58.06
-48.74
-31.36
-7.69
18.99
44.53
64.98
77.46
80.61
74.58
60.82
41.56
19.39
-3.12
-23.85
-41.10
-53.58
-60.11
-59.73
-51.91
-37.12
-17.09
5.32
26.73
44.06
55.30
59.81
58.24
52.06
42.94
32.21
20.54
7.98
-5.71
-20.42
-35.10
-47.62
-55.14
-55.09
-46.15
-29.01
-6.36
17.71
38.89
53.62
59.96
57.71
48.28
33.91
16.92
-0.97
-18.83
-36.17
-52.13
-65.02
-72.16
-70.80
-59.27
-38.17
-10.65
18.37
43.60
60.97
68.47
66.32
56.37
41.16
23.11
4.01
-15.00
-33.21
-49.76
-63.23
-71.43
-71.88
-62.76
-43.99
-17.80
11.50
38.77
59.44
70.83
72.56
66.20
54.32
39.48
23.49
7.25
-8.92
-24.67
-39.05
-50.28
-56.04
-54.22
-43.83
-25.64
-2.36
22.00
43.11
57.54
63.54
61.30
52.49
39.57
24.83
9.78
-5.11
-20.03
-35.21
-50.04
-62.73
-70.46
-70.34
-60.68
-41.98
-17.19
8.98
31.46
46.34
51.88
48.69
39.02
25.67
10.93
-3.95
-18.71
-33.35
-47.32
-58.89
-65.24
-63.32
-51.18
-29.27
-0.80
28.98
54.34
70.94
77.05
73.59
63.29
49.25
33.86
18.32
2.92
-12.35
-27.19
-40.54
-50.73
-55.73
-53.85
-44.39
-28.06
-7.11
15.03
34.59
48.41
54.80
53.86
47.22
37.26
26.10
14.97
4.05
-7.21
-19.33
-32.13
-44.32
-53.64
-57.58
-54.26
-43.27
-26.05
-5.60
14.26
29.94
39.03
40.78
36.05
26.75
15.07
2.68
-9.51
-21.36
-32.90
-43.70
-52.57
-57.50
-56.30
-47.47
-31.08
-9.04
15.16
37.30
53.47
61.10
59.45
49.62
34.09
15.91
-2.04
-17.74
-30.15
-39.10
-44.84
-47.59
-47.32
-43.55
-35.58
-22.89
-5.59
15.28
37.59
58.43
74.69
83.68
83.77
74.63
57.32
34.10
8.17
-16.74
-37.00
-49.82
-53.80
-49.25
-37.80
-21.66
-2.87
17.10
37.06
55.67
71.21
81.77
85.84
82.74
72.69
56.54
35.61
12.01
-10.90
-28.55
-36.31
-31.37
-14.74
8.34
29.90
42.26
41.03
26.42
2.21
-26.85
-57.47
-88.74
-121.00
-153.96
-185.05
-209.49
-221.90
-218.30
-197.73
-162.44
-117.05
-67.03
-17.56
27.20
64.27
91.75
108.81
115.70
113.56
104.22
89.81
72.49
54.30
37.28
23.44
14.68
12.43
17.01
27.46
41.46
56.07
68.53
77.09
81.25
81.30
77.76
70.77
60.22
46.02
28.60
9.06
-10.98
-29.76
-45.56
-56.64
-61.37
-58.45
-47.54
-29.91
-8.50
12.72
29.90
40.44
43.46
39.44
29.53
15.04
-2.69
-21.95
-40.52
-55.69
-64.85
-66.03
-58.50
-42.87
-21.06
3.95
28.54
48.98
62.31
66.94
63.00
52.02
36.30
18.08
-0.92
-19.30
-35.68
-48.36
-55.41
-55.15
-46.96
-31.72
-11.99
8.47
25.65
36.43
39.41
35.16
25.76
13.74
1.03
-11.57
-24.15
-36.82
-48.87
-58.42
-63.00
-60.56
-50.57
-34.30
-14.60
5.12
21.81
33.42
39.04
38.77
33.30
23.54
10.53
-4.61
-20.53
-35.53
-47.68
-55.00
-56.07
-50.47
-39.04
-23.71
-6.86
9.14
22.39
31.54
35.85
35.03
29.21
18.73
4.06
-14.10
-34.79
-56.37
-76.26
-91.15
-97.82
-94.39
-81.50
-62.94
-44.76
-33.83
-35.34
-50.64
-76.41
-105.73
-130.70
-145.31
-147.65
-139.55
-125.12
-107.79
-88.15
-63.39
-28.71
19.91
83.59
156.91
231.56
297.47
346.41
374.51
383.06
377.07
362.32
342.71
318.86
289.01
250.58
202.34
145.61
84.45
24.77
-26.99
-65.39
-87.53
-93.62
-87.27
-74.14
-59.79
-48.09
-40.68
-37.87
-39.97
-48.18
-63.71
-86.49
-113.64
-139.65
-158.02
-163.77
-155.28
-134.64
-106.64
-76.86
-50.18
-29.89
-17.60
-13.45
-16.39
-24.64
-35.92
-47.92
-58.55
-66.01
-68.64
-64.86
-53.55
-34.54
-9.23
19.26
46.75
69.11
83.38
88.31
84.25
72.55
54.91
33.15
9.29
-14.13
-34.16
-47.87
-53.14
-49.28
-37.32
-19.46
1.55
23.05
42.66
58.05
66.70
66.02
54.05
30.59
-2.03
-38.79
-73.12
-98.58
-110.65
-107.83
-91.66
-65.90
-35.19
-3.85
24.81
48.58
66.12
76.65
79.85
75.92
65.70
50.64
32.63
13.71
-4.15
-19.10
-29.52
-34.09
-31.98
-23.15
-8.70
9.13
27.23
42.10
50.50
50.18
40.25
21.51
-3.68
-31.81
-58.97
-81.62
-97.13
-104.01
-101.75
-90.57
-71.32
-45.62
-16.06
13.88
40.23
59.39
68.80
67.50
56.13
36.60
11.68
-15.27
-40.59
-60.44
-71.44
-71.40
-60.01
-39.09
-12.21
16.28
42.27
62.52
74.98
78.59
73.17
59.33
38.58
13.27
-13.47
-38.20
-57.62
-69.08
-70.88
-62.49
-44.72
-19.80
8.89
37.32
61.50
78.11
85.06
81.51
67.89
45.84
18.05
-12.00
-40.34
-63.12
-77.27
-80.80
-73.33
-55.95
-31.26
-3.07
24.09
45.75
58.40
60.43
52.51
37.21
18.22
-0.85
-17.27
-29.54
-37.20
-40.31
-39.06
-33.58
-24.09
-11.19
3.80
18.90
31.72
39.97
42.05
37.25
25.83
8.69
-12.79
-36.75
-60.86
-82.14
-97.38
-104.07
-101.64
-92.41
-81.52
-75.29
-78.88
-93.87
-117.31
-142.76
-162.85
-172.21
-169.12
-155.69
-136.04
-114.19
-92.43
-70.83
-47.56
-19.59
16.27
62.08
117.42
178.51
238.26
288.04
320.31
330.73
319.10
288.59
244.32
192.16
138.42
89.78
52.97
33.49
33.77
51.97
82.33
117.13
149.35
174.81
192.71
204.68
213.31
220.44
226.34
229.77
228.65
221.20
206.94
187.30
165.46
145.16
129.30
118.87
112.64
107.86
101.59
91.86
78.21
61.45
42.83
23.38
3.69
-15.74
-34.12
-50.18
-62.55
-70.46
-74.34
-75.64
-76.28
-77.47
-79.08
-79.82
-77.80
-71.77
-62.05
-50.82
-41.95
-40.33
-51.10
-78.52
-124.47
-187.05
-260.09
-334.16
-399.14
-447.57
-476.88
-489.68
-491.81
-489.22
-485.51
-481.26
-475.15
-465.87
-453.37
-438.90
-423.96
-409.18
-393.96
-377.04
-357.43
-335.28
-311.84
-289.09
-268.66
-251.17
-235.95
-221.42
-205.81
-188.01
-168.04
-147.01
-126.61
-108.33
-92.83
-79.69
-67.61
-55.04
-40.87
-24.90
-7.86
8.90
24.12
37.20
48.53
59.32
71.07
84.86
100.86
118.20
135.43
151.14
164.64
176.27
187.29
199.30
213.93
232.38
255.32
282.37
311.84
340.39
363.61
377.14
378.36
367.43
347.17
321.61
294.05
265.79
236.35
204.81
171.58
139.26
111.99
93.95
87.78
93.75
109.87
132.49
157.03
178.90
194.45
201.78
201.13
194.40
184.07
171.75
157.55
140.47
119.66
95.65
70.79
48.45
31.68
22.12
19.83
23.79
32.51
44.18
56.33
65.57
68.04
60.46
41.47
12.56
-22.06
-56.51
-84.77
-101.96
-105.15
-93.73
-69.46
-36.15
0.81
35.55
62.98
79.97
85.82
81.90
70.74
54.92
36.48
16.88
-2.70
-20.93
-36.28
-47.16
-52.31
-51.10
-43.70
-31.25
-15.82
-0.37
11.58
16.48
11.59
-4.22
-29.83
-61.75
-94.71
-122.84
-141.00
-146.13
-137.96
-118.90
-93.37
-66.64
-43.71
-28.54
-23.64
-30.05
-47.45
-74.29
-107.87
-144.68
-181.02
-213.78
-241.21
-263.16
-280.55
-294.43
-304.88
-310.63
-309.49
-299.58
-280.62
-254.44
-224.50
-194.50
-166.66
-140.73
-113.89
-81.43
-38.05
20.56
95.99
185.70
282.63
376.31
455.59
512.07
542.62
549.93
540.57
521.62
497.86
470.65
438.90
401.03
356.70
307.55
256.72
207.99
165.07
131.05
107.88
95.76
92.56
93.97
94.46
88.82
73.72
48.59
15.33
-22.67
-61.56
-97.56
-126.90
-145.65
-150.04
-137.64
-109.12
-69.40
-27.52
5.57
20.61
13.50
-12.78
-49.09
-83.48
-105.59
-110.22
-98.35
-75.72
-49.68
-26.33
-9.06
1.13
4.23
-0.06
-12.77
-34.93
-66.77
-107.39
-154.96
-207.26
-261.70
-314.76
-361.56
-396.28
-413.66
-410.98
-389.31
-353.26
-309.13
-262.49
-216.52
-171.83
-127.86
-84.54
-43.41
-7.29
21.16
40.99
53.56
62.11
70.31
80.85
94.61
110.76
127.52
143.06
156.01
165.45
170.81
171.76
168.31
160.99
150.81
138.90
126.15
112.96
99.49
86.05
73.28
61.97
52.53
44.61
37.22
29.39
21.05
13.35
8.35
7.88
12.45
20.86
30.45
38.52
43.35
44.82
44.04
42.38
40.55
38.23
34.43
28.20
19.38
8.78
-2.07
-11.46
-18.11
-21.58
-22.39
-21.76
-21.12
-21.60
-23.52
-26.38
-29.19
-31.10
-31.92
-32.07
-32.29
-32.90
-33.52
-33.25
-31.28
-27.60
-23.29
-20.18
-20.07
-24.21
-33.11
-46.77
-64.80
-86.17
-108.77
-129.04
-142.71
-146.03
-137.36
-117.81
-90.56
-58.90
-24.20
14.80
60.51
113.68
171.06
224.90
265.33
284.26
278.44
250.30
206.12
153.18
97.54
43.65
-4.77
-43.71
-69.04
-77.96
-70.74
-51.35
-26.55
-3.53
12.35
18.95
17.26
10.44
2.35
-3.51
-4.63
0.10
10.24
23.86
37.70
47.86
50.69
43.80
27.28
4.07
-20.63
-40.77
-51.53
-50.88
-40.20
-23.61
-6.52
6.02
10.76
6.98
-3.48
-16.82
-28.40
-34.26
-32.40
-23.49
-10.60
2.08
10.93
14.30
12.82
8.81
5.06
3.68
5.52
10.23
16.62
23.16
28.26
30.51
28.97
23.37
14.39
3.54
-7.30
-16.46
-23.09
-27.10
-28.92
-28.88
-26.93
-22.73
-16.17
-8.06
-0.30
4.38
3.39
-4.58
-18.76
-36.23
-52.62
-63.41
-65.34
-57.48
-41.42
-20.76
0.03
16.87
27.01
29.39
24.44
13.75
-0.22
-14.37
-25.20
-29.48
-25.13
-12.10
7.24
28.66
47.22
58.85
61.45
55.20
42.12
25.26
7.82
-7.35
-18.02
-22.80
-21.30
-14.35
-3.89
7.37
16.61
21.55
20.97
14.89
4.54
-7.85
-19.48
-27.48
-29.59
-24.83
-13.95
0.67
15.72
27.96
35.21
36.71
32.93
24.96
13.89
0.58
-13.98
-28.30
-40.15
-46.95
-46.63
-38.58
-24.14
-6.34
10.97
24.14
30.57
29.07
20.04
5.40
-11.64
-27.12
-37.24
-39.51
-33.55
-21.31
-6.37
7.34
16.77
20.48
18.69
12.70
4.48
-3.95
-10.70
-14.30
-13.82
-9.25
-1.30
8.67
19.03
28.23
34.99
38.51
38.39
34.74
28.10
19.50
10.36
2.31
-3.12
-4.95
-3.08
1.60
7.39
12.25
14.47
13.11
8.20
0.71
-7.83
-15.67
-21.16
-23.17
-21.26
-15.92
-8.58
-1.25
4.00
5.67
3.24
-2.65
-10.38
-17.94
-23.47
-25.73
-24.30
-19.58
-12.46
-4.04
4.51
12.19
18.11
21.53
21.90
19.04
13.27
5.48
-2.80
-9.70
-13.56
-13.28
-8.84
-1.36
7.16
14.38
18.26
17.68
12.68
4.35
-5.44
-14.67
-21.69
-25.51
-25.79
-22.68
-16.70
-8.77
-0.20
7.29
11.86
12.15
7.76
-0.52
-10.89
-21.04
-28.71
-32.20
-30.60
-24.01
-13.75
-2.18
7.68
13.22
13.27
8.62
1.66
-4.81
-8.87
-10.08
-9.13
-7.03
-4.40
-1.13
3.15
8.48
14.36
19.77
23.18
22.53
15.43
-0.34
-25.87
-60.14
-99.43
-137.89
-169.29
-189.03
-195.62
-190.62
-177.71
-160.76
-142.44
-123.73
-104.01
-81.57
-53.99
-18.69
26.10
79.93
139.16
197.04
245.35
277.00
288.33
279.89
255.43
219.41
175.29
125.37
72.15
20.17
-23.58
-51.48
-58.65
-45.87
-19.98
8.70
30.72
40.95
39.72
31.38
21.03
12.14
5.72
1.42
-1.07
-1.36
1.26
6.69
13.49
19.18
21.42
19.07
12.46
2.87
-8.11
-19.08
-28.79
-35.98
-39.52
-38.53
-32.97
-23.71
-12.42
-1.10
8.36
14.52
16.53
14.21
8.11
-0.69
-10.78
-20.77
-29.61
-36.51
-40.94
-42.26
-39.91
-33.73
-24.51
-14.18
-5.39
-0.68
-1.40
-7.19
-16.02
-25.06
-31.64
-34.07
-31.94
-25.74
-16.59
-5.84
4.98
14.22
20.22
21.92
19.25
13.36
6.46
1.05
-0.88
1.51
7.64
15.80
23.77
29.48
31.60
29.71
24.31
16.56
7.84
-0.57
-7.73
-13.13
-16.54
-17.84
-16.99
-14.00
-9.19
-3.23
2.79
7.59
9.98
9.26
5.41
-0.86
-8.25
-15.15
-20.01
-21.72
-19.84
-14.73
-7.45
0.48
7.46
12.25
14.12
12.95
9.08
3.17
-3.82
-10.62
-15.73
-17.78
-15.95
-10.40
-2.36
6.32
13.78
18.69
20.47
19.25
15.57
10.22
4.23
-1.10
-4.37
-4.53
-1.34
4.32
10.53
14.91
15.45
11.30
3.19
-6.81
-16.20
-23.05
-26.67
-27.61
-27.05
-25.90
-24.27
-21.54
-17.03
-10.66
-3.37
3.12
7.05
7.41
4.31
-1.00
-6.76
-11.24
-13.39
-12.96
-10.49
-6.89
-2.91
0.99
4.70
8.10
10.81
12.26
11.93
9.81
6.47
2.94
0.35
-0.45
0.91
4.33
9.18
14.46
18.82
21.00
20.13
16.08
9.57
1.86
-5.66
-11.89
-16.12
-17.94
-17.07
-13.47
-7.40
0.17
7.72
13.47
15.97
14.54
9.45
1.79
-6.91
-14.93
-20.66
-22.87
-20.86
-14.83
-5.94
3.85
12.22
17.26
18.03
14.91
9.40
3.49
-0.99
-2.96
-2.22
0.70
4.95
9.66
14.22
18.21
21.35
23.39
24.11
23.38
21.12
17.47
12.77
7.75
3.49
1.42
3.01
9.10
19.24
31.15
40.93
44.03
36.87
18.30
-9.59
-42.05
-73.17
-97.72
-112.50
-116.77
-111.78
-99.86
-83.48
-64.91
-46.07
-28.79
-14.54
-4.33
1.84
4.80
5.98
6.83
8.22
10.24
12.40
13.98
14.38
13.33
10.90
7.39
3.36
-0.41
-2.86
-2.90
0.27
6.76
15.89
26.38
36.62
45.13
50.72
52.55
50.17
43.59
33.32
20.61
7.28
-4.57
-13.11
-17.19
-16.60
-11.98
-4.58
4.06
12.16
17.94
19.84
16.97
9.60
-0.59
-10.87
-18.38
-21.20
-19.05
-13.36
-6.54
-1.01
1.65
0.92
-2.74
-8.28
-14.41
-19.89
-23.83
-25.79
-25.80
-24.28
-21.75
-18.58
-14.89
-10.68
-6.12
-1.58
2.24
4.64
5.14
3.74
0.94
-2.37
-5.15
-6.46
-5.74
-2.91
1.52
6.59
11.06
13.79
13.96
11.36
6.39
0.04
-6.35
-11.30
-13.52
-12.21
-7.29
0.54
9.89
18.99
26.04
29.63
28.98
24.11
15.87
5.81
-4.10
-11.96
-16.34
-16.72
-13.53
-7.93
-1.39
4.63
8.93
10.66
9.42
5.30
-1.05
-8.48
-15.59
-21.02
-23.69
-23.03
-19.05
-12.37
-4.18
4.06
10.87
15.16
16.43
14.90
11.34
6.79
2.43
-0.67
-1.74
-0.46
2.77
6.96
10.69
12.65
12.07
8.89
3.70
-2.51
-8.61
-13.55
-16.36
-16.33
-13.20
-7.27
0.58
8.93
16.20
20.98
22.34
20.02
14.39
6.46
-2.29
-10.10
-15.28
-16.50
-13.17
-5.81
4.07
14.22
22.15
25.86
24.34
17.85
7.86
-3.39
-13.48
-20.34
-22.70
-20.29
-13.83
-4.85
4.64
12.65
17.59
18.59
15.62
9.50
1.63
-6.27
-12.49
-15.62
-14.85
-10.16
-2.39
6.95
15.95
22.75
25.97
25.02
20.26
12.85
4.46
-3.08
-8.27
-10.23
-8.84
-4.64
1.37
7.94
13.62
17.00
16.95
13.18
6.77
0.17
-3.31
-0.60
9.77
26.97
47.84
67.95
82.83
89.28
85.79
72.62
51.35
24.63
-3.90
-29.97
-49.52
-60.00
-61.49
-57.14
-52.13
-51.58
-58.55
-73.07
-93.03
-116.02
-140.92
-167.78
-196.38
-224.15
-245.49
-253.29
-241.86
-210.00
-161.90
-105.76
-50.66
-3.55
32.16
56.21
69.56
72.94
66.15
48.83
21.58
-13.22
-51.20
-86.83
-114.65
-130.52
-132.23
-119.57
-93.82
-57.36
-13.54
33.18
77.37
113.26
136.10
143.76
137.54
121.93
103.03
86.25
74.75
68.77
66.47
65.33
63.45
60.04
55.12
49.00
41.89
33.94
25.41
16.84
8.94
2.38
-2.39
-5.19
-6.04
-5.01
-2.33
1.59
6.13
10.60
14.44
17.38
19.24
19.85
19.06
16.91
13.95
11.49
11.21
14.52
21.85
32.23
43.49
53.07
58.92
60.33
57.94
53.33
48.22
43.78
40.32
37.54
35.09
33.10
32.34
33.89
38.45
45.82
54.78
63.52
70.20
73.59
73.19
69.15
62.07
52.78
42.38
32.17
23.49
17.37
14.06
12.95
12.78
12.27
10.69
8.17
5.32
2.73
0.34
-2.69
-7.49
-14.77
-24.14
-34.07
-42.51
-47.75
-49.01
-46.74
-42.16
-36.72
-31.66
-27.84
-25.79
-25.73
-27.50
-30.53
-33.70
-35.58
-34.82
-30.61
-22.99
-12.97
-2.26
6.96
12.61
13.16
8.14
-1.52
-13.58
-24.95
-32.56
-34.40
-30.17
-21.40
-10.95
-2.06
2.56
1.50
-5.16
-16.02
-28.77
-40.87
-50.18
-55.43
-56.28
-53.31
-47.62
-40.56
-33.54
-28.06
-25.62
-27.61
-34.83
-46.97
-62.40
-78.50
-92.53
-102.58
-108.18
-109.98
-108.80
-104.85
-97.30
-84.79
-66.24
-41.53
-11.14
24.63
66.34
114.81
169.37
226.29
278.39
316.85
334.57
329.05
303.25
263.77
217.58
169.43
121.21
73.35
27.09
-14.34
-46.46
-65.59
-70.95
-65.22
-53.49
-41.05
-31.63
-26.81
-26.29
-29.20
-34.86
-42.94
-52.93
-63.57
-72.67
-77.72
-76.78
-69.28
-56.56
-41.42
-27.34
-17.46
-13.75
-16.59
-24.77
-35.92
-47.16
-56.00
-60.76
-60.90
-56.78
-49.29
-39.39
-28.07
-16.38
-5.62
2.73
7.41
7.89
4.72
-0.54
-5.87
-9.34
-9.69
-6.43
0.10
8.95
18.56
26.85
31.61
31.02
24.37
12.56
-2.04
-16.25
-27.01
-32.34
-31.80
-26.27
-17.54
-7.68
1.42
8.29
12.12
12.79
10.89
7.52
4.02
1.65
1.25
3.11
6.89
11.82
16.78
20.57
22.20
21.07
17.16
11.08
4.04
-2.52
-7.18
-8.97
-7.57
-3.31
2.98
10.14
16.96
22.33
25.25
24.97
21.13
13.90
4.09
-6.91
-17.43
-25.80
-30.72
-31.44
-27.89
-20.67
-11.05
-0.84
7.91
13.42
14.60
11.43
4.92
-3.22
-11.08
-16.97
-19.73
-18.81
-14.36
-7.19
1.44
9.92
16.66
20.36
20.22
16.13
8.71
-0.75
-10.40
-18.24
-22.62
-22.67
-18.56
-11.39
-2.85
5.30
11.53
14.87
14.99
12.16
7.24
1.50
-3.65
-6.92
-7.52
-5.26
-0.57
5.60
12.08
17.75
21.77
23.66
23.24
20.61
16.00
9.90
3.02
-3.60
-8.82
-11.64
-11.59
-8.93
-4.61
-0.08
3.18
4.09
2.26
-1.93
-7.48
-13.13
-17.69
-20.37
-20.86
-19.19
-15.64
-10.64
-4.77
1.11
5.89
8.45
8.03
4.58
-1.14
-7.75
-13.69
-17.64
-18.83
-17.17
-13.07
-7.36
-1.02
4.96
9.61
12.15
12.04
9.18
3.97
-2.71
-9.68
-15.70
-19.70
-20.94
-19.09
-14.33
-7.34
0.67
8.20
13.67
15.89
14.42
9.73
3.16
-3.48
-8.38
-10.15
-8.26
-3.04
4.26
11.87
17.91
21.01
20.56
16.82
10.83
3.95
-2.40
-7.02
-9.01
-7.81
-3.30
4.16
13.64
23.73
32.76
39.14
41.67
39.84
34.02
25.48
16.23
8.52
4.20
4.13
7.79
13.49
18.91
22.02
21.74
18.35
13.21
7.99
4.05
1.70
0.21
-1.83
-5.85
-12.67
-22.11
-33.12
-44.37
-54.79
-64.00
-72.17
-79.51
-85.74
-89.84
-90.26
-85.47
-74.47
-57.18
-34.65
-8.84
17.49
41.15
58.99
68.59
68.77
59.98
44.23
24.59
4.71
-12.01
-22.93
-26.72
-23.51
-14.85
-3.31
8.30
17.66
23.44
25.45
24.34
21.16
17.01
12.84
9.29
6.69
5.04
4.11
3.44
2.66
1.48
-0.20
-2.46
-5.35
-9.00
-13.49
-18.67
-23.96
-28.27
-30.22
-28.51
-22.42
-12.42
-0.24
11.30
19.08
20.77
15.67
5.12
-7.92
-19.74
-27.14
-28.21
-22.70
-11.91
1.87
15.90
27.66
35.15
37.30
34.00
26.18
15.52
4.10
-6.03
-13.20
-16.40
-15.46
-11.02
-4.29
3.21
10.01
15.03
17.69
17.77
15.26
10.25
3.09
-5.39
-13.74
-20.00
-22.31
-19.67
-12.55
-2.90
6.39
12.56
13.88
10.31
3.43
-4.17
-9.74
-11.33
-8.32
-1.62
6.85
14.90
20.78
23.76
24.02
22.27
19.36
16.06
13.21
11.87
13.17
17.90
25.88
35.79
45.41
52.61
56.02
55.45
51.59
45.32
37.24
27.66
17.01
6.30
-2.85
-8.73
-10.22
-7.49
-1.90
4.45
9.57
12.03
11.31
7.48
0.92
-7.79
-17.84
-28.06
-36.88
-42.58
-43.86
-40.40
-33.02
-23.69
-14.86
-8.71
-6.63
-8.86
-14.67
-22.71
-31.36
-38.86
-43.59
-44.31
-40.49
-32.70
-22.57
-12.47
-4.67
-0.70
-0.92
-4.70
-10.82
-18.06
-25.29
-31.45
-35.40
-36.00
-32.47
-24.74
-13.80
-1.55
9.71
17.82
21.42
20.14
14.64
6.34
-2.95
-11.40
-17.41
-19.90
-18.38
-13.05
-4.73
5.18
14.90
22.58
26.57
25.85
20.30
10.90
-0.41
-11.01
-18.25
-20.18
-16.10
-6.96
4.90
16.42
24.66
27.62
24.99
17.99
9.02
0.94
-3.87
-4.15
-0.00
7.26
15.57
22.78
27.25
28.29
26.31
22.49
18.13
13.94
9.55
3.80
-4.52
-15.62
-28.17
-39.53
-46.87
-48.52
-44.83
-38.10
-31.38
-27.18
-26.28
-27.58
-28.65
-26.82
-20.07
-7.66
9.65
29.75
49.53
65.54
74.71
75.11
66.39
49.91
28.42
5.49
-15.28
-30.83
-39.28
-40.14
-34.44
-24.38
-12.77
-2.35
4.90
8.15
7.68
4.69
0.83
-2.36
-3.79
-3.06
-0.49
3.16
6.99
10.36
12.84
14.15
13.88
11.43
6.32
-1.44
-10.95
-20.52
-28.13
-32.01
-31.26
-25.92
-16.83
-5.32
6.94
18.11
26.29
29.88
27.94
20.64
9.30
-3.79
-15.88
-24.42
-27.64
-24.91
-16.99
-5.81
6.05
16.06
22.39
24.53
23.23
20.06
16.73
14.57
14.36
16.33
20.27
25.61
31.33
36.03
38.25
37.00
32.09
24.40
15.44
6.83
-0.36
-5.72
-9.37
-11.39
-11.59
-9.53
-5.13
0.81
6.43
9.36
7.68
0.83
-9.95
-22.01
-32.37
-38.80
-40.35
-37.35
-30.95
-22.50
-13.33
-4.70
2.11
5.92
6.03
2.56
-3.36
-9.92
-15.20
-17.80
-17.27
-14.05
-9.23
-4.07
0.30
3.08
3.90
2.82
0.27
-2.97
-6.08
-8.27
-8.99
-7.97
-5.20
-0.94
4.30
9.77
14.56
17.85
19.06
18.02
14.91
10.22
4.69
-0.73
-5.02
-7.34
-7.40
-5.54
-2.69
0.04
1.76
1.92
0.26
-3.35
-8.89
-15.96
-23.53
-29.97
-33.52
-32.95
-28.11
-20.13
-10.94
-2.63
3.23
5.94
5.65
3.26
0.12
-2.34
-3.04
-1.43
2.36
7.65
13.50
18.95
23.05
24.89
23.76
19.40
12.35
4.07
-3.45
-8.31
-9.45
-6.92
-1.76
4.52
10.46
14.94
17.28
16.96
13.70
7.54
-0.89
-10.24
-18.54
-23.69
-24.16
-19.53
-10.78
0.04
10.31
17.64
20.52
18.64
12.73
4.26
-5.00
-13.38
-19.53
-22.48
-21.80
-17.61
-10.70
-2.42
5.53
11.46
14.09
12.91
8.28
1.38
-6.01
-11.95
-14.81
-13.75
-8.91
-1.38
7.08
14.59
19.62
21.30
19.54
14.94
8.54
1.65
-4.39
-8.39
-9.52
-7.51
-2.76
3.80
10.85
16.94
20.78
21.45
18.53
12.26
3.60
-5.84
-14.10
-19.37
-20.53
-17.47
-11.14
-3.16
4.63
10.57
13.41
12.41
7.46
-0.69
-10.40
-19.37
-25.21
-26.31
-22.50
-15.07
-6.17
2.00
8.05
11.58
12.79
11.98
9.24
4.66
-1.21
-7.06
-11.03
-11.30
-6.93
1.53
12.15
22.14
28.81
30.40
26.48
18.03
7.07
-3.85
-12.29
-16.44
-15.51
-9.89
-1.01
9.04
18.08
24.27
26.50
24.45
18.59
9.98
0.07
-9.55
-17.31
-21.85
-22.31
-18.63
-11.63
-3.04
4.91
10.08
11.02
7.53
0.64
-7.77
-15.54
-20.87
-22.56
-20.15
-13.73
-4.00
7.67
19.23
28.30
32.79
31.63
25.28
15.64
5.38
-2.95
-7.59
-7.85
-3.98
3.12
12.12
21.42
29.27
34.21
35.30
32.66
27.31
20.97
15.39
11.77
10.38
10.53
10.99
10.61
8.93
6.41
4.05
2.61
1.75
-0.28
-5.99
-17.37
-34.62
-55.58
-76.37
-92.83
-102.09
-103.45
-98.19
-88.62
-77.01
-65.00
-53.54
-43.05
-33.64
-24.97
-16.24
-6.33
5.67
19.82
34.93
48.78
58.82
63.10
60.84
52.61
39.88
24.71
9.25
-4.42
-14.49
-19.65
-19.39
-14.18
-5.42
4.92
14.81
22.71
27.86
30.38
30.95
30.56
30.05
29.80
29.71
29.36
28.29
26.39
23.89
21.19
18.43
15.29
11.02
4.88
-3.15
-12.03
-19.76
-24.12
-23.68
-18.52
-10.17
-1.08
6.40
10.65
11.06
7.82
1.66
-6.21
-14.10
-19.92
-21.64
-18.05
-9.46
2.22
14.05
23.09
27.36
26.23
20.32
10.96
-0.21
-11.52
-21.28
-27.94
-30.28
-27.77
-20.90
-11.13
-0.59
8.47
14.16
15.29
11.45
3.13
-8.23
-20.37
-30.51
-36.07
-35.41
-28.45
-16.78
-3.15
9.36
18.24
22.11
20.80
15.16
6.72
-2.59
-10.77
-16.00
-17.10
-13.79
-6.84
2.20
11.36
18.77
22.98
23.14
19.11
11.57
1.99
-7.60
-14.95
-18.27
-16.70
-10.66
-1.65
8.13
16.39
21.19
21.36
16.64
7.73
-3.85
-15.94
-26.18
-32.51
-33.69
-29.66
-21.48
-11.08
-0.74
7.41
11.81
11.68
7.12
-1.03
-11.29
-21.88
-30.95
-37.05
-39.33
-37.68
-32.74
-25.75
-18.45
-12.83
-10.88
-14.12
-22.91
-35.97
-50.48
-62.67
-69.11
-67.94
-59.67
-47.17
-34.94
-27.83
-29.61
-41.76
-62.75
-88.15
-111.81
-127.81
-132.60
-126.08
-111.40
-93.30
-75.81
-60.56
-46.19
-29.06
-4.54
31.21
79.77
139.24
204.07
265.96
316.16
348.09
359.53
352.86
333.57
307.42
278.23
246.84
211.83
171.38
125.11
75.10
25.54
-18.54
-53.13
-76.31
-88.44
-91.43
-87.53
-78.48
-65.74
-51.27
-38.09
-29.74
-28.63
-34.27
-42.91
-49.14
-48.68
-40.74
-28.13
-15.58
-7.07
-4.44
-7.38
-14.75
-25.39
-38.19
-51.22
-61.26
-64.66
-59.18
-45.78
-28.72
-13.81
-5.55
-5.12
-10.34
-17.45
-23.60
-28.14
-32.42
-38.04
-45.30
-52.38
-56.15
-53.70
-43.80
-27.58
-8.18
10.26
23.76
29.47
26.37
15.62
0.29
-15.33
-26.97
-31.67
-28.58
-19.07
-5.98
7.37
18.00
23.81
23.69
17.50
6.16
-8.25
-22.62
-33.47
-38.06
-35.42
-26.72
-14.77
-2.84
6.45
11.55
11.85
7.23
-2.03
-15.03
-29.72
-42.78
-50.31
-49.07
-37.71
-17.48
8.07
33.96
55.11
67.36
68.29
57.66
37.55
12.06
-13.47
-33.69
-44.54
-44.16
-33.27
-14.73
7.20
27.85
43.05
49.87
47.12
35.71
18.55
0.05
-14.81
-21.81
-18.58
-5.45
14.75
37.45
57.76
71.66
77.00
73.67
63.43
49.21
34.42
22.27
15.19
14.45
19.90
30.12
42.71
54.92
64.20
68.57
66.78
58.05
41.97
18.43
-11.96
-47.40
-84.48
-118.27
-143.29
-155.09
-151.94
-135.86
-112.18
-87.74
-68.47
-57.32
-53.48
-53.28
-52.07
-46.05
-33.51
-15.03
7.11
29.75
49.57
63.71
70.17
68.03
57.63
40.39
18.54
-5.28
-28.26
-47.65
-60.97
-66.57
-64.03
-54.53
-40.67
-25.92
-13.76
-6.86
-6.53
-12.48
-22.91
-34.93
-45.30
-51.19
-50.86
-43.97
-31.58
-15.75
0.94
15.77
26.23
30.42
27.45
17.89
4.06
-10.40
-21.37
-25.46
-21.05
-8.73
8.79
27.74
44.32
55.68
60.59
59.35
53.36
44.52
34.70
25.48
18.04
13.14
11.16
11.94
14.84
18.79
22.38
24.19
22.99
18.07
9.46
-1.85
-13.97
-24.42
-30.77
-31.37
-25.90
-15.49
-2.45
10.39
20.46
26.03
26.49
22.33
14.89
6.00
-2.49
-8.98
-12.37
-12.11
-8.22
-1.29
7.50
16.46
23.66
27.24
25.88
19.27
8.24
-5.29
-18.75
-29.51
-35.62
-36.25
-31.86
-24.00
-14.78
-6.44
-0.87
0.60
-2.57
-9.98
-20.14
-30.54
-38.14
-40.28
-35.69
-25.18
-11.68
0.70
7.91
7.29
-1.70
-17.39
-36.58
-55.51
-70.80
-80.21
-82.97
-79.72
-72.25
-62.90
-54.15
-48.21
-46.77
-50.95
-61.05
-76.38
-95.00
-113.88
-129.47
-138.63
-139.55
-132.19
-118.09
-99.67
-79.16
-58.22
-37.66
-17.60
2.23
22.50
44.69
71.31
105.40
149.05
201.51
257.90
309.86
347.81
364.29
356.47
326.82
281.68
228.72
174.53
123.77
79.45
43.79
18.64
5.05
2.39
7.83
16.58
23.14
22.78
12.99
-5.84
-30.17
-54.46
-72.81
-80.89
-77.31
-63.96
-45.00
-25.29
-8.97
1.34
4.57
0.65
-9.58
-24.52
-41.44
-56.79
-66.81
-68.70
-61.58
-46.90
-28.18
-9.96
3.36
8.73
5.18
-5.93
-21.34
-36.87
-48.56
-53.67
-51.26
-42.08
-28.13
-12.03
3.43
15.65
22.50
22.79
16.60
5.48
-7.86
-20.27
-28.99
-32.28
-29.69
-21.95
-10.66
2.12
14.16
23.31
27.78
26.37
18.91
6.29
-9.34
-24.92
-37.17
-43.32
-41.94
-33.37
-19.60
-3.68
11.05
21.82
26.95
26.08
20.08
10.77
0.51
-8.36
-13.91
-15.02
-11.56
-4.31
5.22
15.02
22.98
27.16
26.23
19.72
8.35
-6.05
-20.71
-32.50
-38.73
-37.84
-30.03
-17.22
-2.57
10.49
19.26
22.43
20.23
14.12
6.26
-1.12
-6.13
-7.50
-4.73
1.90
11.37
22.14
32.25
39.74
42.84
40.43
32.33
19.48
3.85
-11.93
-25.18
-33.69
-36.14
-32.29
-22.84
-9.46
5.47
19.12
28.78
32.49
29.65
21.22
9.56
-2.33
-11.73
-16.87
-17.36
-14.02
-8.37
-2.11
3.32
6.90
8.06
6.57
2.63
-3.07
-9.33
-14.61
-17.39
-16.61
-12.02
-4.33
4.99
14.08
21.05
24.29
22.77
16.23
5.32
-8.41
-22.61
-34.68
-42.34
-44.28
-40.51
-32.39
-22.25
-12.74
-6.10
-3.64
-5.51
-10.70
-17.43
-23.53
-26.91
-25.99
-20.11
-9.61
4.05
18.52
30.96
38.58
39.31
32.47
19.04
1.61
-16.20
-30.71
-39.20
-40.61
-35.71
-26.60
-16.03
-6.61
-0.36
1.41
-1.92
-10.27
-22.78
-37.74
-52.62
-64.56
-71.24
-71.58
-66.36
-58.02
-50.12
-46.25
-49.17
-60.00
-77.99
-100.47
-123.34
-141.95
-152.26
-152.03
-141.38
-122.92
-100.64
-78.41
-58.51
-40.78
-22.60
0.37
32.56
76.49
130.90
189.94
244.10
282.70
297.39
285.26
249.98
200.58
148.19
102.37
68.79
48.68
40.24
40.51
46.74
56.76
68.57
79.90
88.31
91.69
88.82
79.61
65.19
47.21
27.35
7.10
-12.18
-28.99
-41.72
-48.82
-49.28
-43.18
-31.93
-18.17
-5.10
4.24
7.70
4.50
-4.64
-17.71
-31.75
-43.60
-50.43
-50.45
-43.29
-30.23
-13.86
2.47
15.40
22.35
22.00
14.55
1.68
-13.86
-28.76
-39.89
-45.07
-43.48
-35.86
-24.27
-11.55
-0.64
6.03
7.15
2.91
-5.00
-13.76
-20.29
-22.20
-18.57
-10.12
1.18
12.92
23.01
30.01
33.09
31.84
26.17
16.61
4.61
-7.40
-16.54
-20.35
-17.72
-9.42
2.27
14.29
23.87
29.17
29.54
25.22
16.98
5.94
-6.38
-17.96
-26.46
-29.81
-26.93
-18.29
-5.90
7.24
18.06
24.22
24.62
19.45
10.06
-1.36
-12.14
-19.67
-22.10
-18.90
-11.08
-0.85
9.11
16.50
19.97
19.22
14.78
7.78
-0.28
-7.52
-11.94
-11.87
-6.49
3.72
16.97
30.60
41.74
48.03
48.02
41.49
29.44
14.01
-1.82
-14.90
-22.71
-24.03
-19.33
-10.56
-0.45
8.23
13.29
13.43
8.41
-1.03
-13.26
-26.09
-37.14
-44.24
-45.86
-41.36
-31.25
-17.28
-2.21
10.56
17.77
17.25
8.75
-5.79
-22.68
-37.44
-46.20
-46.76
-39.04
-24.95
-7.77
8.85
21.71
28.67
28.98
23.28
13.29
1.51
-9.27
-16.34
-17.73
-12.70
-2.14
11.56
25.05
34.94
38.70
35.33
25.49
11.32
-4.10
-17.44
-25.90
-27.80
-23.00
-12.86
0.09
12.98
23.18
28.95
29.57
25.35
17.41
7.43
-2.55
-10.49
-14.82
-14.77
-10.62
-3.53
4.82
12.85
19.18
22.67
22.21
16.67
5.27
-11.75
-32.50
-53.35
-69.69
-77.33
-74.00
-60.35
-39.78
-17.42
1.55
13.41
16.74
12.54
3.51
-6.75
-14.84
-18.28
-15.86
-7.82
4.37
18.24
30.78
38.88
40.03
32.90
17.92
-2.47
-24.20
-42.49
-53.16
-53.79
-44.46
-27.55
-7.01
12.87
28.45
37.37
38.76
33.18
22.42
9.21
-3.25
-11.98
-15.02
-11.92
-3.89
6.76
17.31
25.42
29.56
29.01
23.72
14.35
2.24
-10.44
-21.04
-27.02
-26.81
-20.50
-9.87
2.32
13.14
20.40
22.95
20.58
13.82
3.87
-7.32
-17.11
-22.73
-22.19
-15.12
-3.19
10.43
22.15
29.21
30.37
26.00
17.59
7.22
-2.88
-10.63
-14.37
-13.28
-7.76
0.63
9.55
16.63
20.17
19.47
14.74
6.83
-3.04
-13.34
-22.29
-28.10
-29.35
-25.59
-17.51
-6.87
4.06
13.04
18.32
18.81
14.20
4.98
-7.38
-20.53
-31.78
-38.82
-40.53
-37.35
-30.92
-23.38
-16.54
-11.45
-8.46
-7.67
-9.03
-12.25
-16.47
-20.13
-21.24
-18.13
-10.22
1.61
15.18
27.79
37.05
41.43
40.51
34.76
25.24
13.43
1.00
-10.17
-18.30
-21.97
-20.63
-14.95
-6.89
0.64
4.54
2.54
-5.96
-19.63
-35.63
-50.53
-61.27
-65.85
-63.53
-54.70
-40.71
-23.72
-6.38
8.59
19.14
24.46
25.21
23.16
20.36
18.29
17.60
18.29
20.22
23.59
28.79
35.97
44.43
52.46
57.67
57.76
51.35
38.65
21.42
2.64
-14.37
-26.70
-32.50
-31.37
-24.17
-12.85
0.04
11.83
20.18
23.54
21.56
15.18
6.48
-1.88
-7.41
-8.54
-4.92
2.48
11.86
21.09
28.08
31.10
29.06
21.81
10.45
-2.60
-14.20
-21.38
-22.49
-17.74
-9.09
0.74
9.28
15.09
17.66
16.96
12.97
5.70
-4.31
-15.53
-25.45
-31.29
-31.13
-24.78
-13.87
-1.18
10.35
18.45
21.89
20.49
14.84
6.25
-3.30
-11.48
-16.01
-15.48
-9.88
-0.68
9.67
18.47
23.50
23.30
17.21
5.42
-10.97
-29.70
-47.41
-60.29
-65.25
-61.06
-49.09
-33.07
-17.87
-7.90
-5.75
-11.61
-23.57
-38.48
-52.88
-63.82
-69.25
-68.20
-61.09
-49.93
-38.29
-30.75
-31.27
-41.36
-58.83
-77.89
-91.09
-92.07
-77.79
-48.90
-8.27
40.90
96.07
154.49
211.76
260.91
293.66
303.29
287.57
249.67
196.66
136.56
76.00
19.70
-28.62
-65.27
-86.80
-91.46
-80.93
-60.68
-38.45
-21.45
-13.69
-15.10
-22.26
-30.37
-35.46
-35.52
-30.65
-22.30
-12.41
-2.81
4.91
9.43
9.68
5.10
-3.73
-14.92
-25.45
-32.10
-32.57
-26.34
-14.82
-0.69
12.91
23.32
28.74
28.37
22.42
12.06
-0.63
-12.97
-22.23
-26.33
-24.35
-16.86
-5.68
6.60
17.25
23.81
24.52
18.62
6.64
-9.45
-26.45
-40.54
-48.34
-47.95
-39.64
-25.75
-9.85
4.26
13.60
16.57
12.97
3.84
-8.85
-22.43
-33.99
-40.84
-41.21
-34.81
-22.89
-8.02
6.69
18.23
24.49
24.49
18.53
8.04
-4.63
-16.65
-25.25
-28.36
-25.21
-16.52
-4.40
8.19
18.29
23.49
22.44
14.94
1.99
-14.30
-30.90
-44.37
-51.64
-50.87
-42.07
-27.13
-9.18
8.27
22.17
30.52
32.48
28.42
19.89
9.35
-0.17
-5.94
-6.43
-1.87
5.86
14.05
20.20
22.78
21.39
16.56
9.34
1.11
-6.54
-11.96
-13.83
-11.57
-5.69
2.26
10.21
16.18
18.77
17.45
12.48
4.91
-3.66
-11.28
-16.12
-17.00
-13.68
-7.01
1.52
10.22
17.70
22.96
25.25
23.97
18.73
9.64
-2.22
-14.78
-25.36
-31.49
-31.79
-26.48
-17.19
-6.37
3.59
10.97
14.88
15.14
12.12
6.62
-0.16
-6.59
-11.02
-12.20
-9.72
-4.16
3.16
10.59
16.59
20.04
20.29
17.19
11.16
3.20
-5.09
-11.77
-15.10
-14.05
-8.76
-0.50
8.65
16.43
21.11
21.75
18.36
11.71
3.03
-6.05
-13.83
-18.70
-19.56
-16.08
-9.01
0.05
8.97
15.63
18.52
17.09
11.87
4.29
-3.73
-10.18
-13.49
-12.83
-8.20
-0.50
8.83
18.02
25.42
29.78
30.40
27.31
21.17
13.27
5.20
-1.41
-5.34
-6.13
-4.20
-0.73
2.77
4.91
4.71
1.60
-4.65
-13.92
-25.52
-37.88
-48.58
-54.83
-54.33
-46.27
-31.83
-13.95
3.53
17.00
24.16
24.49
19.33
11.26
3.40
-1.53
-2.00
1.94
8.76
16.19
22.12
25.17
24.95
21.69
15.88
8.11
-0.73
-9.31
-15.80
-18.46
-16.23
-9.30
0.86
12.00
21.88
28.80
31.86
30.92
26.36
19.10
10.46
2.07
-4.55
-8.31
-8.82
-6.39
-1.84
3.64
8.61
11.49
10.85
5.96
-2.67
-13.17
-22.64
-28.10
-27.68
-21.32
-10.86
0.80
10.74
16.91
18.53
15.74
9.28
0.12
-10.53
-21.17
-29.94
-34.97
-34.88
-29.32
-19.30
-6.95
4.93
13.76
17.68
15.97
9.15
-1.31
-13.21
-24.14
-31.80
-34.57
-31.74
-23.87
-12.62
-0.41
10.12
16.77
18.25
14.51
6.70
-3.06
-12.22
-18.36
-19.86
-16.36
-8.79
0.90
10.42
17.66
21.24
20.61
15.90
7.89
-2.13
-12.30
-20.43
-24.43
-23.01
-16.24
-5.67
6.06
16.08
22.05
22.91
18.86
11.17
1.70
-7.57
-14.82
-18.69
-18.40
-13.89
-5.81
4.49
15.21
24.46
30.57
32.41
29.57
22.47
12.21
0.47
-10.80
-19.70
-24.78
-25.25
-21.24
-13.90
-5.09
2.90
7.99
8.89
5.60
-0.52
-7.14
-11.72
-12.35
-8.53
-1.19
7.67
15.77
21.32
23.40
21.96
17.50
10.73
2.54
-6.10
-13.94
-19.57
-21.82
-20.24
-15.44
-9.09
-3.42
-0.47
-1.40
-6.15
-13.59
-21.89
-29.06
-33.45
-34.07
-30.85
-24.66
-17.13
-10.07
-4.96
-2.39
-2.13
-3.45
-5.67
-8.53
-12.06
-16.17
-20.26
-23.22
-23.79
-21.24
-15.84
-8.91
-2.49
1.28
0.76
-4.66
-14.38
-26.54
-38.53
-47.77
-52.41
-52.10
-48.08
-42.78
-39.01
-39.12
-44.52
-55.37
-70.64
-88.09
-104.61
-116.55
-120.67
-114.86
-98.89
-74.40
-43.98
-9.78
27.79
70.12
118.92
173.95
231.20
283.06
320.53
336.74
329.63
302.34
261.14
212.63
161.45
110.26
61.08
16.70
-19.11
-42.99
-53.74
-53.23
-45.78
-36.32
-28.52
-23.89
-22.12
-21.89
-22.03
-22.21
-22.96
-25.45
-30.82
-39.49
-50.53
-61.58
-69.50
-71.65
-66.95
-56.38
-42.60
-28.86
-18.00
-11.79
-10.86
-14.85
-22.68
-32.62
-42.41
-49.59
-52.08
-48.67
-39.63
-26.53
-11.86
1.68
11.78
17.08
17.23
12.85
5.50
-2.85
-10.07
-14.37
-14.75
-11.09
-4.13
4.72
13.72
21.09
25.24
25.07
20.23
11.46
0.51
-10.09
-17.75
-20.61
-18.17
-11.36
-2.14
7.25
14.85
19.40
20.32
17.61
11.83
4.14
-3.67
-9.49
-11.48
-8.77
-1.88
7.32
16.29
22.54
24.45
21.48
14.16
3.89
-7.45
-17.76
-25.10
-28.14
-26.43
-20.55
-11.87
-2.25
6.48
12.82
15.80
15.07
10.94
4.40
-3.10
-9.85
-14.36
-15.61
-13.32
-8.04
-0.93
6.35
12.01
14.49
12.91
7.39
-0.85
-9.84
-17.42
-21.88
-22.41
-19.17
-13.06
-5.39
2.38
8.75
12.28
11.78
6.70
-2.63
-14.71
-27.14
-37.16
-42.42
-41.69
-35.14
-24.30
-11.49
0.74
10.21
15.38
15.54
10.91
2.62
-7.41
-16.77
-23.09
-24.76
-21.43
-14.21
-5.40
2.22
6.16
4.98
-1.47
-12.09
-24.89
-37.55
-47.89
-54.44
-56.60
-54.74
-49.99
-43.88
-38.16
-34.61
-34.92
-40.17
-50.25
-63.29
-75.59
-82.47
-79.72
-64.78
-37.25
1.85
50.66
106.71
166.34
223.76
271.23
300.65
306.13
286.24
244.43
187.75
124.43
62.09
6.97
-35.97
-62.98
-72.43
-65.81
-48.14
-26.93
-9.64
-1.08
-1.97
-9.53
-19.32
-27.32
-31.22
-30.63
-26.49
-20.46
-14.47
-10.56
-10.54
-15.51
-25.29
-38.09
-50.85
-60.06
-63.02
-58.63
-47.78
-32.86
-16.95
-2.97
6.92
11.53
10.61
4.78
-4.50
-15.16
-24.81
-31.21
-32.92
-29.63
-22.23
-12.42
-2.27
6.24
11.55
12.71
9.52
2.66
-6.30
-15.15
-21.53
-23.61
-20.62
-13.07
-2.51
8.97
19.12
26.04
28.37
25.49
17.79
6.82
-4.87
-14.28
-18.88
-17.38
-10.20
0.70
12.51
22.45
28.35
29.00
24.19
14.67
1.99
-11.55
-23.25
-30.60
-31.92
-26.93
-16.82
-3.92
9.01
19.41
25.52
26.49
22.44
14.33
3.87
-6.79
-15.36
-19.96
-19.62
-14.50
-5.86
4.32
13.86
20.70
23.35
21.08
14.16
3.92
-7.37
-17.02
-22.63
-22.83
-17.67
-8.51
2.47
12.99
21.04
25.19
24.69
19.56
10.65
-0.25
-10.76
-18.34
-21.05
-18.11
-10.22
0.68
11.88
20.56
24.52
22.67
15.29
4.03
-8.49
-19.42
-26.34
-27.96
-24.33
-16.69
-7.09
2.14
8.96
11.97
10.65
5.35
-2.76
-11.91
-20.06
-25.41
-26.78
-24.03
-18.13
-10.90
-4.48
-0.73
-0.79
-4.77
-11.89
-20.66
-29.31
-36.07
-39.57
-39.11
-34.81
-27.60
-18.99
-10.77
-4.56
-1.68
-2.90
-8.43
-17.71
-29.37
-41.31
-51.07
-56.51
-56.49
-51.39
-43.11
-34.73
-29.60
-30.39
-38.25
-52.51
-70.90
-90.15
-106.81
-117.97
-121.54
-116.52
-102.89
-81.54
-54.01
-21.95
13.56
52.70
96.71
146.53
200.98
255.35
301.64
330.94
336.68
317.33
276.87
223.08
164.54
108.04
57.53
14.75
-19.45
-44.27
-58.99
-63.82
-60.45
-51.91
-41.67
-32.59
-26.25
-23.05
-22.52
-24.09
-27.34
-31.87
-37.06
-41.75
-44.44
-43.83
-39.33
-31.48
-21.67
-11.63
-2.90
3.48
6.98
7.43
4.94
0.06
-6.07
-11.83
-15.44
-15.62
-12.13
-5.86
1.41
7.71
11.40
11.60
8.24
1.99
-5.86
-13.71
-19.83
-22.81
-21.90
-17.17
-9.64
-0.97
6.82
11.82
12.65
8.79
0.79
-9.72
-20.36
-28.56
-32.30
-30.65
-24.08
-14.26
-3.45
6.03
12.41
14.73
12.85
7.49
-0.11
-8.28
-15.24
-19.38
-19.57
-15.41
-7.37
3.22
14.39
23.93
29.88
30.96
27.01
19.02
8.94
-0.80
-7.82
-10.38
-7.82
-0.65
9.54
20.35
29.25
34.18
34.05
29.11
20.78
11.23
2.84
-2.32
-2.94
1.37
10.00
21.34
33.01
42.27
46.62
44.63
36.30
23.00
6.94
-9.63
-24.96
-37.91
-47.69
-53.66
-55.42
-53.20
-48.33
-43.08
-39.95
-40.54
-44.51
-49.58
-52.44
-50.26
-42.01
-28.86
-13.53
0.85
11.90
18.44
20.28
17.64
10.88
0.49
-12.43
-25.92
-37.18
-43.25
-41.95
-32.76
-17.24
1.32
18.86
31.73
37.80
36.87
30.52
21.36
12.08
4.70
0.29
-1.01
0.43
3.94
8.71
13.74
17.79
19.47
17.72
12.27
3.96
-5.25
-12.82
-16.52
-15.25
-9.42
-0.89
7.78
14.13
16.48
14.28
8.15
-0.48
-9.69
-17.48
-22.19
-22.70
-18.80
-11.15
-1.25
8.95
17.33
22.13
22.29
17.67
9.13
-1.59
-12.28
-20.73
-25.29
-25.20
-20.77
-13.19
-4.24
4.11
10.10
12.47
10.63
4.94
-3.32
-12.11
-19.12
-22.49
-21.36
-16.18
-8.45
-0.20
6.79
11.36
13.05
11.98
8.55
3.46
-2.20
-6.97
-9.33
-8.12
-3.15
4.62
13.37
20.97
25.68
26.55
23.58
17.47
9.47
1.04
-6.26
-11.05
-12.45
-10.31
-5.30
1.29
7.96
13.34
16.49
16.94
14.65
9.97
3.65
-3.20
-9.24
-13.23
-14.29
-12.26
-7.75
-1.94
3.66
7.58
8.63
6.12
-0.04
-9.16
-19.81
-29.95
-37.44
-40.57
-38.58
-31.92
-21.98
-10.69
-0.06
8.22
12.87
13.25
9.46
2.57
-5.47
-12.24
-15.60
-14.46
-9.15
-1.20
7.26
14.31
18.65
19.70
17.49
12.46
5.51
-1.99
-8.31
-11.63
-10.72
-5.36
3.53
14.03
23.80
30.64
33.05
30.56
23.75
14.16
3.88
-4.89
-10.36
-11.58
-8.59
-2.33
5.59
13.26
18.87
21.08
19.27
13.73
5.59
-3.37
-11.15
-16.05
-17.01
-13.91
-7.48
0.90
9.44
16.41
20.41
20.62
17.02
10.45
2.38
-5.34
-10.99
-13.37
-12.03
-7.42
-0.76
6.22
11.58
13.63
11.37
4.89
-4.59
-14.90
-23.59
-28.60
-28.83
-24.36
-16.25
-6.13
4.26
13.32
19.72
22.40
20.80
15.08
6.33
-3.44
-11.80
-16.56
-16.57
-12.03
-4.39
4.13
11.29
15.42
15.78
12.51
6.53
-0.78
-7.88
-13.45
-16.54
-16.82
-14.52
-10.33
-5.31
-0.70
2.25
2.46
-0.58
-6.57
-14.23
-21.59
-26.57
-27.58
-24.12
-16.84
-7.28
2.63
11.04
16.47
17.99
15.36
9.18
0.96
-7.16
-12.81
-14.21
-10.71
-3.11
6.71
16.40
23.92
28.06
28.53
25.84
20.95
15.12
9.65
5.76
4.34
5.71
9.47
14.60
19.69
23.32
24.47
22.69
18.20
11.77
4.64
-1.77
-6.13
-7.52
-5.76
-1.54
3.74
8.27
10.31
8.51
2.16
-8.77
-23.41
-39.96
-55.76
-67.68
-72.97
-70.13
-59.57
-43.66
-26.04
-10.46
0.21
4.71
3.40
-2.01
-9.14
-15.55
-19.25
-19.09
-15.03
-8.08
0.08
7.54
12.81
15.19
14.79
12.36
9.00
5.84
3.89
3.94
6.45
11.45
18.36
26.06
32.96
37.47
38.45
35.59
29.51
21.59
13.51
6.84
2.63
1.30
2.65
5.96
10.19
14.15
16.58
16.44
13.01
6.24
-3.13
-13.50
-22.74
-28.67
-29.75
-25.62
-17.24
-6.66
3.57
11.05
14.05
11.92
5.12
-4.76
-15.38
-24.15
-28.93
-28.53
-23.10
-13.96
-3.23
6.76
13.99
17.03
15.36
9.38
0.42
-9.45
-17.82
-22.57
-22.42
-17.26
-8.22
2.73
13.27
21.34
25.49
25.07
20.35
12.41
2.98
-5.90
-12.25
-14.71
-12.78
-7.01
1.25
10.19
17.98
23.14
24.67
22.24
16.17
7.62
-1.60
-9.30
-13.48
-12.98
-7.97
0.08
8.91
16.20
20.28
20.38
16.73
10.32
2.58
-4.91
-10.72
-13.94
-14.37
-12.49
-9.33
-6.09
-3.79
-3.08
-4.25
-7.24
-11.56
-16.28
-20.05
-21.49
-19.57
-14.12
-5.91
3.63
12.83
20.19
24.53
25.04
21.28
13.44
2.56
-9.37
-19.75
-26.06
-26.67
-21.35
-11.28
1.40
14.31
25.34
32.91
36.00
34.14
27.59
17.37
5.43
-5.78
-13.83
-17.10
-15.33
-9.54
-1.66
6.15
12.03
14.78
13.84
9.24
1.67
-7.68
-17.08
-24.64
-28.78
-28.67
-24.55
-17.65
-9.87
-3.25
0.45
0.17
-4.32
-12.31
-22.22
-31.83
-38.75
-41.15
-38.23
-30.60
-20.11
-9.41
-1.16
2.53
0.55
-7.02
-18.91
-32.85
-46.04
-55.80
-60.29
-59.07
-53.20
-44.82
-36.53
-30.75
-29.40
-33.73
-43.84
-58.39
-74.28
-87.02
-91.81
-84.91
-64.57
-30.93
14.43
69.09
129.50
190.21
243.62
281.03
294.98
281.99
244.17
188.87
126.29
66.46
16.79
-18.75
-39.36
-46.44
-42.79
-32.16
-18.86
-7.01
0.23
1.48
-2.67
-10.11
-17.86
-23.13
-24.09
-20.36
-13.05
-4.44
2.68
5.98
4.12
-2.63
-12.48
-22.61
-30.08
-32.71
-29.79
-22.16
-11.77
-0.93
8.29
14.53
17.00
15.50
10.19
1.77
-8.44
-18.51
-26.27
-29.88
-28.44
-22.34
-13.12
-2.99
5.71
11.09
12.00
8.20
0.50
-9.33
-18.86
-25.60
-27.66
-24.44
-16.73
-6.48
3.90
12.23
16.94
17.25
13.17
5.40
-4.64
-14.91
-23.05
-26.92
-25.19
-17.79
-6.06
7.72
20.84
30.77
35.62
34.43
27.31
15.55
1.47
-11.92
-21.58
-25.27
-22.28
-13.56
-1.47
11.02
21.19
27.10
27.82
23.32
14.34
2.31
-10.72
-22.21
-29.75
-31.60
-27.50
-18.75
-7.95
1.88
8.13
9.31
5.24
-3.09
-13.91
-25.01
-34.23
-39.85
-40.93
-37.54
-30.58
-21.64
-12.50
-4.86
-0.14
0.67
-2.91
-10.67
-21.57
-33.78
-45.06
-53.13
-56.29
-53.84
-46.29
-35.40
-23.87
-14.74
-10.62
-12.91
-21.24
-33.52
-46.67
-57.65
-64.47
-66.66
-65.12
-61.58
-57.92
-55.85
-56.60
-60.69
-67.36
-74.44
-78.50
-75.80
-63.58
-40.91
-8.59
31.95
79.60
133.47
191.63
249.54
299.59
332.91
342.51
326.22
287.49
233.71
173.10
112.25
55.47
5.81
-33.85
-60.52
-72.45
-70.71
-59.74
-46.08
-35.78
-32.08
-34.66
-40.65
-46.53
-49.89
-50.07
-47.63
-43.54
-38.63
-33.58
-29.33
-27.06
-27.90
-32.17
-38.83
-45.55
-49.57
-48.82
-42.93
-33.22
-22.07
-11.88
-4.32
-0.07
0.94
-0.89
-4.97
-10.45
-16.19
-20.71
-22.63
-21.19
-16.48
-9.50
-1.72
5.39
10.75
13.68
13.86
11.21
6.05
-0.73
-7.70
-13.07
-15.31
-13.65
-8.38
-0.77
7.33
14.05
17.93
18.07
14.35
7.35
-1.59
-10.60
-17.56
-20.71
-19.17
-13.26
-4.47
4.99
12.81
17.15
17.02
12.48
4.42
-5.63
-15.89
-24.68
-30.75
-33.47
-32.89
-29.65
-24.81
-19.70
-15.74
-14.31
-16.39
-22.25
-31.23
-41.70
-51.38
-58.09
-60.41
-58.18
-52.58
-45.64
-39.57
-36.27
-37.05
-42.61
-53.03
-67.46
-83.66
-98.13
-106.62
-105.37
-92.43
-68.13
-34.40
6.76
54.37
108.20
167.06
226.81
279.83
316.76
329.72
315.47
276.57
220.37
156.25
93.07
37.75
-5.01
-32.57
-44.38
-42.27
-30.47
-14.75
-0.73
7.77
9.67
6.35
0.36
-5.52
-9.46
-10.77
-10.03
-8.90
-9.68
-14.51
-24.36
-38.24
-53.16
-64.94
-69.86
-66.07
-54.37
-37.89
-20.89
-7.40
-0.15
-0.09
-6.57
-17.76
-31.03
-43.37
-51.85
-54.16
-49.19
-37.48
-21.06
-3.07
13.15
24.77
30.10
28.75
21.68
10.92
-0.90
-10.98
-17.08
-17.96
-13.70
-5.59
4.28
13.53
20.08
22.52
20.35
14.02
4.83
-5.23
-13.95
-19.37
-20.26
-16.48
-8.99
0.46
9.73
16.75
19.88
18.12
11.43
0.73
-12.09
-24.51
-33.86
-38.12
-36.41
-29.24
-18.40
-6.31
4.45
11.81
14.39
11.75
4.49
-5.80
-16.70
-25.53
-30.00
-28.95
-22.60
-12.55
-1.15
9.16
16.37
19.27
17.43
11.32
2.16
-8.10
-17.09
-22.62
-23.28
-18.95
-10.84
-1.05
8.12
14.82
18.01
17.45
13.55
7.13
-0.57
-8.02
-13.56
-15.87
-14.35
-9.45
-2.56
4.51
10.01
12.73
12.16
8.43
2.20
-5.33
-12.59
-17.88
-19.78
-17.70
-12.14
-4.60
3.03
9.08
12.53
13.15
11.30
7.59
2.82
-2.05
-5.88
-7.44
-5.77
-0.59
7.42
16.78
25.47
31.58
33.78
31.55
25.30
16.22
6.04
-3.23
-9.72
-12.06
-9.83
-3.64
5.00
14.09
21.67
26.23
26.93
23.69
17.15
8.58
-0.27
-7.55
-11.71
-11.89
-8.14
-1.33
7.06
15.32
21.72
24.82
23.61
17.86
8.29
-3.38
-14.73
-23.29
-27.19
-25.78
-19.68
-10.50
-0.28
8.97
15.64
18.61
17.33
11.95
3.42
-6.50
-15.49
-21.24
-22.07
-17.48
-8.29
3.61
15.80
25.85
31.77
32.25
26.94
16.66
3.35
-10.21
-21.09
-27.00
-26.93
-21.37
-11.98
-1.06
9.08
16.48
19.77
18.23
12.03
2.28
-8.98
-19.14
-25.82
-27.46
-23.81
-15.92
-5.79
4.32
12.31
16.66
16.66
12.44
5.08
-3.59
-11.34
-16.11
-16.60
-12.69
-5.42
3.32
11.41
17.05
19.20
17.74
13.32
7.09
0.41
-5.35
-9.12
-10.22
-8.62
-4.88
-0.13
4.27
7.15
7.91
6.72
4.37
1.84
-0.10
-1.14
-1.43
-1.28
-0.89
-0.34
0.33
0.92
1.07
0.41
-1.17
-3.38
-5.61
-7.17
-7.60
-6.78
-5.03
-2.97
-1.31
-0.64
-1.40
-3.61
-6.95
-10.79
-14.37
-17.00
-18.27
-18.12
-16.83
-14.83
-12.59
-10.54
-9.09
-8.60
-9.38
-11.61
-15.24
-19.96
-25.11
-29.83
-33.18
-34.45
-33.47
-30.83
-27.85
-26.31
-27.85
-33.30
-42.28
-53.16
-63.62
-71.53
-75.82
-76.87
-76.30
-76.19
-78.21
-82.99
-90.02
-97.99
-105.54
-111.82
-116.86
-121.63
-127.90
-137.86
-153.43
-175.41
-202.61
-231.51
-256.83
-272.97
-275.83
-263.93
-238.72
-203.48
-161.72
-115.82
-66.31
-12.08
48.88
118.26
195.98
278.90
360.63
432.33
485.06
512.52
513.01
489.47
447.68
393.93
333.46
270.53
209.41
155.01
112.22
83.99
69.64
64.76
63.02
59.09
50.80
39.40
27.96
19.43
14.94
13.72
14.03
14.19
13.24
10.84
6.89
1.29
-6.00
-14.69
-23.88
-32.16
-38.00
-40.29
-38.74
-33.89
-26.90
-19.23
-12.42
-7.88
-6.88
-10.29
-18.18
-29.43
-41.62
-51.43
-55.64
-52.29
-41.53
-25.75
-8.86
4.98
12.58
12.57
5.63
-5.94
-18.93
-30.05
-36.68
-37.29
-31.71
-21.04
-7.32
6.83
18.77
26.26
27.91
23.46
13.96
1.62
-10.71
-20.16
-24.68
-23.49
-17.20
-7.46
3.54
13.59
20.85
23.98
22.32
15.96
5.82
-6.42
-18.63
-28.61
-34.66
-35.80
-31.94
-23.90
-13.19
-1.95
7.44
12.73
12.43
6.27
-4.63
-17.97
-30.83
-40.49
-44.96
-43.33
-35.89
-23.86
-9.33
5.10
16.70
23.14
23.15
16.90
6.16
-6.16
-16.75
-22.86
-23.10
-17.64
-7.94
3.87
15.56
25.26
31.53
33.39
30.45
23.15
12.99
2.38
-5.81
-9.23
-6.85
0.60
10.97
21.49
29.74
34.19
34.37
30.51
23.21
13.28
1.85
-9.55
-19.00
-24.66
-25.31
-20.96
-12.89
-3.30
5.37
11.12
12.81
10.23
3.89
-5.12
-15.33
-25.01
-32.40
-36.04
-35.06
-29.56
-20.62
-10.09
-0.18
7.07
10.14
8.45
2.36
-6.85
-17.28
-26.76
-33.29
-35.49
-32.92
-26.15
-16.66
-6.51
2.16
7.56
8.64
5.34
-1.37
-9.70
-17.40
-22.34
-23.06
-19.18
-11.47
-1.53
8.71
17.46
23.45
25.98
24.96
20.84
14.67
7.95
2.33
-0.78
-0.65
2.57
7.94
14.16
19.82
23.80
25.29
23.77
19.10
11.72
2.69
-6.32
-13.43
-17.03
-16.35
-11.67
-4.26
3.92
10.81
14.64
14.42
10.07
2.54
-6.44
-14.66
-20.06
-21.21
-17.74
-10.44
-0.92
8.72
16.49
20.80
20.79
16.47
8.78
-0.54
-9.24
-15.07
-16.40
-12.72
-4.77
5.69
16.40
25.18
30.34
30.90
26.72
18.40
7.28
-4.70
-15.33
-22.61
-25.30
-23.33
-17.88
-10.97
-4.95
-1.94
-3.32
-9.51
-19.79
-32.21
-43.81
-51.27
-51.77
-44.09
-29.04
-9.43
10.87
27.93
38.74
41.65
36.36
24.02
7.07
-10.80
-25.33
-32.83
-31.41
-21.77
-7.01
8.57
21.10
28.25
29.66
26.35
19.97
12.17
4.41
-1.96
-5.68
-5.72
-1.70
5.79
15.28
24.70
31.90
35.18
33.67
27.49
17.76
6.40
-4.18
-11.64
-14.29
-11.58
-4.35
5.44
15.21
22.49
25.52
23.58
17.04
7.18
-4.16
-14.92
-23.19
-27.60
-27.59
-23.56
-16.71
-8.71
-1.33
3.92
6.06
4.68
0.04
-6.98
-15.00
-22.37
-27.51
-29.34
-27.39
-21.91
-13.77
-4.28
5.04
12.57
17.00
17.62
14.65
9.25
3.20
-1.61
-3.83
-2.97
0.57
5.80
11.39
16.02
18.53
18.07
14.29
7.46
-1.44
-10.89
-19.25
-25.18
-27.95
-27.54
-24.49
-19.56
-13.49
-7.04
-1.07
3.35
4.99
2.88
-3.22
-12.47
-22.90
-31.92
-37.12
-37.09
-31.78
-22.52
-11.49
-1.16
6.33
9.52
7.85
1.67
-7.77
-18.50
-28.16
-34.52
-35.95
-31.95
-23.28
-11.87
-0.21
9.30
14.95
16.16
13.49
8.25
2.13
-3.30
-6.83
-7.78
-6.05
-2.18
2.78
7.41
10.34
10.51
7.49
1.56
-6.45
-15.29
-23.67
-30.41
-34.76
-36.35
-35.32
-32.08
-27.28
-21.79
-16.92
-14.61
-17.24
-26.97
-44.67
-69.06
-96.61
-122.56
-142.50
-153.79
-156.18
-151.00
-140.17
-124.99
-105.88
-82.72
-55.36
-23.56
13.35
56.48
106.53
161.99
217.95
266.14
297.02
303.10
281.87
237.04
177.33
113.76
56.40
12.25
-15.58
-27.37
-25.66
-14.20
2.84
21.33
37.63
48.76
52.75
48.85
37.71
21.64
4.17
-10.81
-20.18
-22.60
-18.93
-11.61
-3.65
2.52
5.84
6.38
4.78
1.61
-2.92
-8.76
-15.39
-21.63
-25.71
-25.95
-21.59
-13.20
-2.64
7.59
15.05
18.03
15.80
8.80
-1.50
-12.86
-22.63
-28.48
-28.97
-24.12
-15.36
-5.11
4.02
9.96
11.60
8.83
2.40
-6.28
-15.41
-23.05
-27.43
-27.47
-23.08
-15.22
-5.69
3.42
10.22
13.42
12.52
7.80
0.24
-8.60
-16.80
-22.47
-24.26
-21.65
-15.20
-6.36
2.95
10.79
15.60
16.43
13.01
5.83
-3.93
-14.43
-23.48
-29.05
-29.81
-25.59
-17.49
-7.54
1.88
8.67
11.45
9.78
4.05
-4.61
-14.55
-23.84
-30.71
-33.90
-33.15
-29.33
-24.26
-20.26
-19.39
-22.87
-30.65
-41.28
-52.19
-60.28
-62.51
-56.58
-41.35
-17.10
14.40
49.99
85.52
116.50
138.95
150.27
149.75
138.46
118.68
92.94
63.23
30.65
-4.21
-40.47
-76.17
-108.06
-132.33
-145.98
-148.18
-141.02
-128.89
-116.92
-109.14
-107.23
-110.51
-116.86
-123.94
-129.93
-133.42
-132.88
-126.15
-110.87
-85.46
-50.18
-7.66
37.59
80.61
117.46
146.40
167.93
183.91
196.44
206.77
214.91
220.03
221.16
217.59
209.12
195.95
178.28
156.11
129.54
99.30
67.56
38.43
17.83
12.15
25.93
59.30
106.52
156.83
197.49
218.27
214.75
189.46
149.82
104.52
59.98
18.69
-20.37
-59.78
-101.62
-146.25
-191.87
-235.24
-272.72
-301.28
-319.08
-325.91
-323.02
-312.51
-296.99
-279.24
-262.19
-248.77
-241.51
-241.57
-247.94
-257.14
-264.09
-263.89
-253.68
-233.69
-206.90
-177.36
-148.56
-121.89
-96.69
-70.98
-42.81
-11.28
23.23
59.27
94.96
128.42
158.11
182.92
202.23
216.04
224.92
229.90
232.14
232.58
231.61
229.12
224.63
217.74
208.49
197.51
185.93
174.92
165.20
156.56
147.95
137.81
124.72
108.03
88.14
66.40
44.73
25.19
9.58
-1.02
-6.45
-7.56
-5.97
-3.62
-2.18
-2.62
-5.13
-9.21
-14.12
-19.13
-23.64
-27.15
-29.18
-29.36
-27.56
-24.03
-19.44
-14.67
-10.44
-7.05
-4.27
-1.62
1.21
4.06
6.20
6.61
4.50
-0.24
-6.83
-13.72
-19.17
-21.84
-21.24
-17.87
-12.94
-7.97
-4.33
-2.95
-4.15
-7.75
-13.05
-19.02
-24.38
-27.74
-27.98
-24.54
-17.66
-8.45
1.39
10.03
15.94
18.30
17.13
13.16
7.65
1.97
-2.63
-5.34
-5.89
-4.48
-1.69
1.72
4.98
7.43
8.59
8.18
6.22
3.00
-0.99
-5.12
-8.74
-11.31
-12.48
-12.07
-10.20
-7.29
-3.98
-1.04
0.88
1.47
0.77
-0.86
-2.95
-5.12
-7.12
-8.78
-9.92
-10.28
-9.56
-7.49
-4.05
0.47
5.39
9.73
12.35
12.29
9.13
3.26
-4.05
-11.00
-15.79
-17.25
-15.14
-10.13
-3.49
3.39
9.30
13.29
14.72
13.16
8.61
1.72
-6.19
-13.42
-18.42
-20.34
-19.33
-16.30
-12.39
-8.55
-5.21
-2.50
-0.50
0.53
0.22
-1.61
-4.73
-8.38
-11.49
-13.17
-12.96
-11.01
-7.88
-4.25
-0.63
2.65
5.32
7.09
7.45
5.87
2.07
-3.72
-10.63
-17.26
-22.02
-23.64
-21.58
-16.22
-8.80
-1.08
5.13
8.40
7.98
3.88
-3.12
-11.68
-20.08
-26.58
-29.72
-28.66
-23.45
-14.98
-4.77
5.45
14.18
20.38
23.54
23.56
20.56
14.86
7.05
-1.87
-10.53
-17.39
-21.19
-21.33
-18.09
-12.46
-5.76
0.73
6.08
9.67
11.13
10.28
7.14
2.14
-3.81
-9.42
-13.31
-14.46
-12.52
-7.88
-1.48
5.45
11.75
16.50
19.21
19.73
18.25
15.16
11.06
6.66
2.75
0.13
-0.61
0.79
4.01
8.21
12.26
15.07
15.95
14.76
11.78
7.47
2.22
-3.72
-10.02
-16.00
-20.55
-22.38
-20.51
-14.83
-6.42
2.77
10.56
15.34
16.56
14.66
10.65
5.56
0.10
-5.25
-9.98
-13.34
-14.52
-13.01
-8.94
-3.17
3.02
8.37
11.99
13.53
13.00
10.59
6.59
1.41
-4.29
-9.62
-13.64
-15.59
-15.18
-12.62
-8.56
-3.82
0.73
4.38
6.58
6.94
5.31
1.86
-2.77
-7.51
-11.16
-12.67
-11.63
-8.32
-3.59
1.51
6.17
9.87
12.36
13.36
12.47
9.30
3.90
-3.00
-9.98
-15.40
-17.98
-17.31
-13.95
-9.04
-3.83
0.78
4.29
6.45
7.03
5.77
2.55
-2.24
-7.61
-12.15
-14.46
-13.79
-10.32
-5.05
0.66
5.62
9.26
11.53
12.71
12.97
12.24
10.34
7.17
3.12
-0.98
-4.00
-5.02
-3.69
-0.39
3.93
8.18
11.47
13.30
13.51
12.10
9.15
4.87
-0.25
-5.37
-9.35
-11.25
-10.63
-7.72
-3.40
1.26
5.27
8.01
9.13
8.49
6.02
1.87
-3.53
-9.35
-14.55
-18.13
-19.48
-18.59
-15.93
-12.22
-8.18
-4.32
-0.99
1.56
3.05
3.29
2.29
0.42
-1.59
-2.88
-2.74
-0.92
2.33
6.36
10.43
13.93
16.55
18.08
18.33
17.04
13.95
9.08
3.00
-3.13
-7.87
-9.91
-8.64
-4.35
1.82
8.34
13.80
17.24
18.27
16.89
13.38
8.23
2.23
-3.56
-7.96
-10.03
-9.37
-6.36
-1.99
2.55
6.26
8.53
9.17
8.16
5.56
1.42
-4.04
-10.34
-16.77
-22.49
-26.72
-28.94
-28.92
-26.74
-22.81
-17.82
-12.66
-8.28
-5.43
-4.45
-5.20
-7.09
-9.32
-11.06
-11.63
-10.57
-7.65
-2.97
3.04
9.56
15.49
19.67
21.24
19.93
16.12
10.76
5.08
0.26
-2.84
-3.72
-2.33
1.03
5.74
10.94
15.74
19.30
21.05
20.76
18.53
14.69
9.75
4.31
-0.99
-5.42
-8.35
-9.27
-8.00
-4.75
-0.18
4.77
9.05
11.70
12.11
10.13
6.12
0.78
-4.97
-10.28
-14.42
-16.95
-17.64
-16.48
-13.66
-9.59
-4.94
-0.59
2.57
3.87
3.06
0.39
-3.50
-7.79
-11.72
-14.65
-16.12
-15.76
-13.37
-9.05
-3.30
2.95
8.51
12.20
13.20
11.19
6.44
-0.26
-7.80
-14.87
-20.22
-22.87
-22.36
-18.85
-13.15
-6.45
-0.03
5.05
8.11
8.88
7.43
4.05
-0.67
-5.96
-10.83
-14.24
-15.39
-13.90
-9.95
-4.28
2.02
7.72
11.69
13.12
11.64
7.49
1.48
-5.13
-10.92
-14.60
-15.37
-13.09
-8.29
-2.00
4.54
10.16
14.07
15.81
15.36
12.93
8.91
3.84
-1.54
-6.33
-9.54
-10.43
-8.77
-5.00
-0.13
4.58
8.04
9.61
9.19
7.11
3.88
0.07
-3.72
-6.91
-8.94
-9.40
-8.19
-5.64
-2.42
0.57
2.61
3.29
2.65
0.98
-1.27
-3.74
-6.13
-8.16
-9.57
-10.17
-9.86
-8.72
-6.96
-4.89
-2.88
-1.35
-0.78
-1.63
-4.07
-7.87
-12.30
-16.30
-18.90
-19.67
-18.92
-17.63
-16.99
-17.84
-20.29
-23.66
-26.92
-29.18
-30.21
-30.58
-31.43
-33.94
-38.71
-45.43
-52.94
-59.61
-63.83
-64.73
-62.59
-59.23
-57.78
-61.98
-74.79
-96.89
-125.58
-154.94
-177.39
-186.21
-177.88
-153.31
-117.12
-75.56
-33.95
5.01
41.82
79.21
120.53
167.62
219.41
271.37
316.31
346.31
355.13
340.33
304.04
252.47
194.12
137.69
90.23
56.05
36.36
29.45
31.38
37.00
41.35
40.90
34.31
22.53
8.04
-6.11
-17.14
-23.23
-23.79
-19.62
-12.76
-5.95
-1.97
-2.69
-8.40
-17.84
-28.61
-38.12
-44.37
-46.55
-45.02
-41.03
-36.16
-31.88
-29.14
-28.27
-29.07
-31.00
-33.39
-35.66
-37.32
-37.99
-37.34
-35.13
-31.36
-26.37
-20.81
-15.54
-11.42
-9.01
-8.51
-9.71
-12.11
-15.01
-17.64
-19.23
-19.20
-17.27
-13.63
-8.92
-4.10
-0.15
2.16
2.48
0.90
-2.11
-5.80
-9.33
-11.92
-12.99
-12.26
-9.82
-6.10
-1.83
2.14
5.01
6.18
5.43
3.01
-0.47
-4.21
-7.35
-9.23
-9.45
-7.96
-5.02
-1.19
2.73
5.81
7.12
6.02
2.34
-3.51
-10.60
-17.65
-23.33
-26.47
-26.31
-22.63
-15.82
-6.83
2.91
11.70
17.92
20.33
18.43
12.60
4.11
-5.18
-13.34
-18.68
-20.23
-17.85
-12.22
-4.64
3.25
9.78
13.62
14.00
10.92
5.15
-2.02
-8.99
-14.24
-16.65
-15.64
-11.31
-4.48
3.55
11.19
16.92
19.63
18.75
14.39
7.28
-1.47
-10.42
-18.04
-22.93
-24.10
-21.20
-14.75
-6.02
3.20
11.07
16.13
17.60
15.45
10.27
3.12
-4.59
-11.29
-15.49
-16.10
-12.76
-6.00
2.79
11.84
19.42
24.33
26.02
24.59
20.63
15.09
9.12
4.00
0.87
0.52
3.08
7.92
13.86
19.42
23.32
24.74
23.41
19.64
14.10
7.74
1.62
-3.23
-6.00
-6.25
-4.08
-0.09
4.79
9.50
13.08
14.88
14.60
12.33
8.36
3.26
-2.24
-7.20
-10.63
-11.79
-10.46
-7.13
-2.94
0.70
2.60
2.13
-0.67
-5.23
-10.74
-16.41
-21.53
-25.39
-27.25
-26.52
-22.96
-16.95
-9.53
-2.20
3.58
6.72
6.75
3.94
-0.86
-6.36
-11.19
-14.16
-14.49
-12.07
-7.39
-1.37
4.90
10.41
14.38
16.26
15.63
12.33
6.49
-1.18
-9.41
-16.56
-21.03
-21.89
-19.21
-14.15
-8.56
-4.36
-2.92
-4.63
-8.88
-14.43
-19.92
-24.27
-26.97
-28.07
-28.01
-27.32
-26.44
-25.60
-24.84
-24.02
-22.90
-21.37
-19.44
-17.56
-16.68
-17.94
-22.08
-28.46
-34.56
-36.16
-28.52
-8.29
24.74
66.88
111.44
150.62
178.06
190.48
187.99
173.23
149.94
121.75
91.75
62.56
36.52
15.69
1.30
-6.58
-9.29
-9.20
-8.92
-10.42
-14.47
-20.70
-27.92
-34.80
-40.47
-44.79
-48.27
-51.74
-55.71
-60.04
-63.75
-65.40
-63.62
-57.80
-48.20
-36.00
-22.78
-10.00
1.39
11.03
19.07
25.84
31.70
36.96
41.93
46.95
52.32
58.03
63.48
67.33
67.73
62.83
51.32
32.74
7.45
-23.75
-59.91
-99.76
-141.23
-181.09
-215.14
-239.08
-249.74
-246.12
-229.70
-203.91
-173.24
-142.28
-114.93
-93.79
-79.58
-70.88
-64.33
-55.74
-41.66
-20.84
5.19
32.68
57.33
75.95
87.55
93.36
96.02
98.45
102.80
109.97
119.63
130.50
140.75
148.47
151.91
149.74
141.21
126.28
105.76
81.59
56.74
34.89
19.64
13.46
16.82
28.04
43.88
60.68
75.50
86.77
94.13
97.67
97.34
92.46
82.14
65.88
44.28
19.26
-6.24
-28.98
-46.17
-56.06
-58.25
-53.54
-43.65
-30.61
-16.41
-2.48
10.37
21.85
31.78
39.73
44.79
45.63
40.96
30.11
13.55
-6.99
-28.83
-48.96
-64.85
-74.84
-78.38
-75.84
-68.17
-56.63
-42.56
-27.33
-12.33
1.07
11.66
18.49
21.13
19.80
15.40
9.37
3.39
-1.01
-2.99
-2.48
-0.13
3.10
6.43
9.55
12.65
16.09
19.92
23.60
25.99
25.81
22.22
15.34
6.42
-2.46
-9.09
-11.91
-10.53
-5.88
0.31
6.24
10.74
13.56
15.19
16.27
16.98
16.80
14.64
9.57
1.59
-7.92
-16.48
-21.41
-21.03
-15.70
-8.03
-2.01
-1.55
-8.97
-24.12
-44.48
-65.75
-82.73
-89.94
-82.58
-57.78
-16.16
36.94
92.00
137.57
163.91
166.22
145.86
108.74
61.96
10.57
-43.50
-99.99
-157.53
-211.63
-254.96
-280.00
-282.21
-262.13
-225.15
-178.96
-130.68
-85.05
-44.20
-9.01
19.53
39.83
50.40
51.11
43.99
32.97
22.50
16.01
14.86
18.17
23.69
29.04
32.54
33.68
32.82
30.76
28.31
25.98
23.98
22.39
21.20
20.32
19.49
18.18
15.72
11.61
5.84
-0.88
-7.23
-11.75
-13.40
-11.97
-8.04
-2.57
3.57
10.00
16.65
23.43
29.92
35.25
38.47
39.02
37.05
33.40
29.18
25.33
22.37
20.31
18.93
17.97
17.27
16.78
16.52
16.59
17.16
18.38
20.31
22.78
25.41
27.57
28.67
28.34
26.53
23.61
20.23
17.10
14.87
13.92
14.36
15.99
18.43
21.15
23.55
25.00
24.89
22.74
18.41
12.32
5.45
-0.86
-5.33
-7.17
-6.39
-3.71
-0.24
3.01
5.49
7.17
8.35
9.34
10.31
11.22
11.96
12.47
12.77
12.97
13.16
13.34
13.43
13.32
12.93
12.19
11.07
9.48
7.26
4.26
0.41
-4.24
-9.36
-14.46
-18.94
-22.27
-24.22
-24.87
-24.59
-23.79
-22.75
-21.54
-20.04
-18.08
-15.63
-12.80
-9.82
-6.92
-4.28
-1.96
-0.06
1.30
1.94
1.71
0.62
-1.17
-3.32
-5.47
-7.27
-8.52
-9.19
-9.35
-9.16
-8.83
-8.51
-8.35
-8.45
-8.77
-9.19
-9.49
-9.51
-9.18
-8.62
-8.07
-7.69
-7.50
-7.32
-6.78
-5.61
-3.73
-1.31
1.30
3.69
5.48
6.47
6.58
5.84
4.32
2.11
-0.76
-4.23
-8.17
-12.25
-15.90
-18.33
-18.81
-16.94
-12.83
-7.19
-1.04
4.58
8.89
11.50
12.38
11.78
10.11
7.86
5.52
3.48
1.97
1.02
0.47
0.14
-0.10
-0.24
-0.16
0.32
1.29
2.71
4.38
5.92
6.93
6.99
5.82
3.36
-0.19
-4.39
-8.68
-12.51
-15.46
-17.32
-18.08
-17.93
-17.13
-15.94
-14.56
-13.09
-11.49
-9.67
-7.53
-5.05
-2.31
0.52
3.18
5.42
7.03
7.85
7.73
6.60
4.53
1.74
-1.36
-4.25
-6.47
-7.65
-7.72
-6.79
-5.09
-2.88
-0.35
2.29
4.85
7.03
8.48
8.87
8.00
5.88
2.82
-0.63
-3.80
-6.00
-6.76
-5.93
-3.72
-0.60
2.87
6.19
9.04
11.22
12.57
12.97
12.32
10.62
7.98
4.67
1.06
-2.45
-5.47
-7.71
-8.98
-9.17
-8.29
-6.45
-3.91
-1.00
1.92
4.54
6.63
8.06
8.65
8.27
6.78
4.20
0.82
-2.82
-6.04
-8.33
-9.45
-9.56
-9.09
-8.37
-7.43
-6.03
-3.86
-0.79
2.87
6.44
9.12
10.25
9.63
7.50
4.46
1.16
-1.85
-4.27
-5.99
-6.92
-7.02
-6.22
-4.46
-1.80
1.61
5.54
9.68
13.73
17.32
20.03
21.42
21.02
18.63
14.39
8.96
3.26
-1.63
-4.93
-6.34
-6.11
-4.90
-3.49
-2.52
-2.34
-2.94
-4.05
-5.29
-6.30
-6.93
-7.27
-7.69
-8.64
-10.55
-13.61
-17.65
-22.19
-26.45
-29.61
-30.94
-30.05
-26.91
-21.94
-15.88
-9.60
-3.93
0.46
3.17
4.00
2.92
0.05
-4.32
-9.68
-15.29
-20.32
-24.10
-26.24
-26.79
-26.18
-25.00
-23.74
-22.59
-21.44
-20.03
-18.27
-16.46
-15.35
-15.92
-18.95
-24.62
-32.39
-41.04
-49.17
-55.60
-59.71
-61.68
-62.44
-63.58
-66.87
-73.57
-83.55
-94.73
-103.19
-104.12
-93.24
-68.14
-29.10
20.85
76.52
131.67
180.17
217.04
239.23
245.84
237.98
218.13
189.40
155.09
118.57
83.22
52.36
28.79
13.88
7.07
6.01
7.40
8.24
6.80
2.88
-2.64
-8.54
-13.89
-18.27
-21.62
-23.97
-25.21
-25.13
-23.60
-20.68
-16.73
-12.44
-8.64
-6.19
-5.71
-7.48
-11.24
-16.28
-21.63
-26.24
-29.41
-30.86
-30.79
-29.63
-27.77
-25.32
-22.14
-17.96
-12.68
-6.70
-0.91
3.58
5.79
5.27
2.24
-2.55
-8.10
-13.48
-18.02
-21.27
-22.97
-23.02
-21.42
-18.28
-13.86
-8.51
-2.63
3.34
8.90
13.50
16.58
17.61
16.31
12.74
7.39
1.10
-5.10
-10.21
-13.47
-14.53
-13.38
-10.39
-6.10
-1.04
4.37
9.81
15.02
19.68
23.30
25.28
25.03
22.21
16.85
9.48
0.99
-7.49
-14.84
-20.15
-22.87
-22.91
-20.59
-16.56
-11.50
-5.98
-0.42
4.90
9.69
13.51
15.76
15.87
13.55
8.91
2.54
-4.60
-11.45
-16.98
-20.42
-21.38
-19.84
-16.19
-11.05
-5.12
0.97
6.78
11.97
16.21
19.14
20.36
19.53
16.55
11.67
5.48
-1.15
-7.31
-12.21
-15.27
-16.22
-15.07
-12.14
-7.85
-2.74
2.78
8.33
13.62
18.25
21.73
23.45
22.86
19.70
14.10
6.75
-1.30
-8.81
-14.67
-18.19
-19.18
-17.88
-14.79
-10.49
-5.45
-0.10
5.07
9.54
12.68
13.92
13.00
10.01
5.40
-0.23
-6.23
-12.06
-17.16
-20.95
-22.83
-22.37
-19.45
-14.41
-7.92
-0.87
5.91
11.77
16.29
19.16
20.21
19.32
16.46
11.85
5.94
-0.56
-6.74
-11.64
-14.51
-14.92
-12.93
-9.02
-3.84
1.90
7.67
13.00
17.47
20.55
21.67
20.41
16.72
11.06
4.31
-2.42
-8.11
-11.97
-13.63
-13.08
-10.61
-6.71
-1.91
3.27
8.40
13.09
16.91
19.37
20.00
18.48
14.81
9.42
3.06
-3.42
-9.30
-14.08
-17.47
-19.28
-19.37
-17.74
-14.55
-10.17
-5.17
-0.16
4.21
7.39
8.83
8.10
4.92
-0.61
-7.85
-15.73
-22.84
-27.86
-29.90
-28.67
-24.57
-18.48
-11.42
-4.38
1.93
7.12
10.99
13.48
14.46
13.88
11.70
8.07
3.32
-2.05
-7.33
-11.83
-14.83
-15.87
-14.84
-12.01
-8.02
-3.61
0.60
4.29
7.41
9.99
11.96
13.04
12.88
11.29
8.43
4.86
1.39
-1.19
-2.37
-2.04
-0.35
2.37
5.81
9.70
13.74
17.48
20.28
21.49
20.63
17.74
13.35
8.33
3.53
-0.50
-3.62
-5.94
-7.54
-8.30
-7.84
-5.83
-2.22
2.52
7.52
11.76
14.52
15.40
14.45
11.87
7.88
2.72
-3.24
-9.35
-14.59
-17.75
-17.76
-14.12
-7.12
2.15
12.16
21.33
28.43
32.68
33.73
31.47
25.90
17.10
5.36
-8.70
-24.03
-39.18
-52.45
-62.23
-67.17
-66.50
-60.23
-49.20
-34.95
-19.49
-4.82
7.49
16.58
22.31
25.04
25.27
23.28
19.14
12.82
4.52
-5.03
-14.50
-22.19
-26.44
-26.15
-21.12
-12.06
-0.32
12.46
24.91
36.08
45.33
52.11
55.77
55.48
50.58
40.92
27.07
10.41
-7.11
-23.35
-36.34
-44.57
-47.10
-43.68
-35.05
-22.94
-10.05
0.49
5.96
4.99
-1.94
-12.54
-23.57
-31.92
-35.56
-33.96
-27.86
-18.74
-8.20
2.30
11.49
18.21
21.48
20.65
15.72
7.36
-3.10
-13.88
-23.23
-29.67
-32.30
-30.88
-25.75
-17.66
-7.60
3.41
14.35
24.19
31.81
36.13
36.27
31.94
23.62
12.63
0.82
-9.83
-17.79
-22.18
-22.78
-19.86
-13.89
-5.41
4.89
16.03
26.73
35.52
40.96
42.08
38.50
30.58
19.24
5.80
-8.14
-20.91
-30.95
-37.09
-38.72
-35.91
-29.32
-20.00
-9.12
2.21
12.94
22.03
28.48
31.32
29.87
23.92
13.88
0.86
-13.51
-27.25
-38.40
-45.37
-47.23
-43.89
-36.03
-24.84
-11.72
1.98
14.98
26.05
33.99
37.62
36.07
29.05
17.13
1.77
-14.85
-30.22
-42.10
-48.99
-50.51
-47.40
-41.15
-33.51
-25.85
-19.02
-13.40
-9.33
-7.42
-8.58
-13.67
-23.10
-36.38
-52.12
-68.35
-82.90
-93.86
-99.95
-100.71
-96.66
-89.38
-81.16
-74.22
-69.88
-67.65
-65.00
-57.93
-42.24
-15.29
22.80
68.77
116.94
160.78
194.56
214.68
220.09
212.11
193.68
168.62
140.82
113.81
90.33
72.05
59.42
51.63
46.95
43.18
38.29
31.00
21.15
9.73
-1.41
-10.16
-14.93
-15.05
-10.99
-3.99
4.35
12.66
19.97
25.74
29.56
30.96
29.25
23.78
14.32
1.39
-13.56
-28.29
-40.34
-47.64
-49.11
-44.87
-36.11
-24.62
-12.21
-0.44
9.58
17.06
21.34
21.93
18.54
11.26
0.61
-12.42
-26.53
-40.11
-51.36
-58.51
-60.14
-55.55
-45.16
-30.54
-14.11
1.54
14.32
23.02
27.27
27.26
23.35
15.92
5.44
-7.33
-21.23
-34.66
-45.85
-53.22
-55.63
-52.57
-44.20
-31.38
-15.58
1.17
16.49
28.01
33.77
32.76
25.13
12.25
-3.74
-20.43
-35.64
-47.70
-55.43
-58.08
-55.27
-47.24
-34.95
-20.08
-4.70
9.29
20.57
28.54
33.06
34.12
31.51
25.05
14.85
1.76
-12.50
-25.66
-35.39
-39.96
-38.63
-31.79
-20.66
-6.96
7.59
21.46
33.43
42.56
48.07
49.38
46.17
38.52
27.13
13.24
-1.39
-14.73
-24.86
-30.34
-30.50
-25.55
-16.52
-4.87
7.85
20.29
31.39
40.23
45.92
47.63
44.71
37.02
25.09
10.16
-5.99
-21.40
-34.21
-42.95
-46.68
-45.15
-38.75
-28.39
-15.39
-1.21
12.61
24.62
33.46
37.95
37.31
31.40
20.81
6.94
-8.18
-22.28
-33.19
-39.37
-40.12
-35.64
-26.85
-15.06
-1.66
12.13
25.21
36.48
44.80
49.01
48.22
42.01
30.77
15.68
-1.40
-18.21
-32.45
-42.23
-46.41
-44.75
-37.92
-27.21
-14.17
-0.38
12.73
23.83
31.73
35.47
34.52
28.92
19.42
7.30
-5.83
-18.30
-28.60
-35.55
-38.43
-36.99
-31.51
-22.66
-11.39
1.23
14.03
25.73
35.00
40.57
41.53
37.52
28.94
16.79
2.59
-11.94
-25.00
-34.93
-40.41
-40.58
-35.36
-25.47
-12.34
2.11
15.79
26.83
33.75
35.74
32.62
24.88
13.54
-0.11
-14.76
-29.24
-42.48
-53.46
-61.13
-64.41
-62.50
-55.19
-43.16
-28.07
-12.28
1.41
10.31
12.15
5.59
-9.02
-29.01
-49.27
-63.23
-64.73
-50.29
-20.60
19.42
62.17
99.88
126.98
141.29
143.74
137.10
124.51
108.44
90.40
71.25
51.58
32.08
13.57
-3.17
-17.47
-28.96
-37.40
-42.62
-44.26
-41.90
-35.39
-25.15
-12.28
1.42
13.90
23.22
28.01
27.73
22.69
14.00
3.26
-7.68
-17.15
-24.00
-27.70
-28.33
-26.31
-22.17
-16.34
-9.10
-0.82
7.88
15.96
22.07
24.89
23.54
17.93
8.70
-2.90
-15.40
-27.30
-37.26
-44.13
-46.98
-45.31
-39.17
-29.24
-16.82
-3.49
9.08
19.40
26.27
28.85
26.75
20.23
10.25
-1.61
-13.49
-23.58
-30.60
-33.86
-33.31
-29.30
-22.41
-13.35
-2.94
7.80
17.72
25.53
30.09
30.64
26.92
19.34
8.85
-3.11
-14.87
-24.74
-31.25
-33.39
-30.83
-24.05
-14.28
-3.21
7.48
16.52
23.24
27.45
29.10
28.05
23.95
16.53
6.03
-6.55
-19.44
-30.53
-37.89
-40.39
-37.84
-30.94
-20.93
-9.23
2.84
14.16
23.71
30.58
33.91
33.10
28.00
19.07
7.44
-5.26
-17.16
-26.52
-31.98
-32.83
-29.06
-21.35
-10.84
1.10
13.11
24.08
33.09
39.36
42.12
40.75
34.96
25.12
12.42
-1.27
-13.76
-23.06
-27.89
-27.88
-23.54
-15.97
-6.49
3.61
13.26
21.57
27.86
31.47
31.84
28.54
21.52
11.30
-0.98
-13.66
-24.90
-33.06
-37.12
-36.76
-32.33
-24.63
-14.69
-3.63
7.39
17.20
24.65
28.74
28.81
24.66
16.73
6.07
-5.76
-16.94
-25.66
-30.59
-30.99
-26.94
-19.23
-9.12
1.95
12.72
22.22
29.80
35.02
37.46
36.68
32.28
24.19
12.94
-0.15
-13.08
-23.58
-29.74
-30.58
-26.15
-17.45
-5.96
6.79
19.49
31.01
40.26
46.12
47.46
43.54
34.27
20.57
4.20
-12.55
-27.38
-38.46
-44.78
-46.13
-43.01
-36.26
-26.91
-16.03
-4.77
5.58
13.65
18.12
18.04
13.05
3.60
-9.07
-23.05
-36.13
-46.19
-51.63
-51.75
-46.89
-38.25
-27.49
-16.22
-5.61
3.67
11.26
16.78
19.60
18.88
13.93
4.54
-8.68
-24.40
-40.80
-55.81
-67.60
-74.76
-76.53
-73.02
-65.16
-54.45
-42.43
-30.05
-17.42
-3.86
11.42
28.67
47.14
65.14
80.57
91.68
97.60
98.44
95.14
89.02
81.40
73.30
65.30
57.63
50.26
43.08
35.92
28.55
20.67
11.77
1.41
-10.48
-23.41
-36.18
-47.22
-55.04
-58.80
-58.49
-54.92
-49.32
-42.96
-36.89
-31.94
-28.87
-28.51
-31.71
-39.09
-50.50
-64.51
-78.22
-87.74
-89.31
-80.65
-61.95
-35.94
-6.97
20.50
43.33
60.32
71.81
78.80
81.98
81.34
76.51
67.35
54.54
39.66
24.86
12.37
4.02
0.89
3.17
10.26
20.83
33.12
45.13
54.85
60.50
60.90
55.53
44.77
29.84
12.65
-4.61
-19.79
-31.24
-37.94
-39.60
-36.59
-29.79
-20.45
-10.03
-0.04
8.20
13.68
15.76
14.24
9.31
1.62
-7.79
-17.56
-26.14
-32.08
-34.27
-32.21
-26.13
-16.92
-5.89
5.53
16.05
24.68
30.69
33.59
33.01
28.89
21.58
12.07
1.95
-6.99
-13.18
-15.72
-14.59
-10.39
-4.07
3.52
11.68
19.80
27.09
32.51
34.78
32.83
26.15
15.09
0.86
-14.67
-29.39
-41.38
-49.24
-52.28
-50.53
-44.72
-35.96
-25.55
-14.76
-4.68
3.81
9.97
13.23
13.24
10.03
4.06
-3.67
-11.79
-18.82
-23.46
-24.93
-23.07
-18.26
-11.27
-2.99
5.71
14.01
21.07
26.07
28.20
26.96
22.31
14.80
5.58
-3.83
-11.84
-17.15
-18.99
-17.30
-12.64
-6.02
1.42
8.71
15.15
20.32
23.83
25.26
24.10
20.00
12.96
3.54
-7.09
-17.39
-25.72
-30.71
-31.51
-28.00
-20.79
-11.03
-0.23
10.16
18.80
24.74
27.32
26.28
21.73
14.27
5.01
-4.57
-12.86
-18.51
-20.69
-19.26
-14.70
-7.87
0.22
8.61
16.40
22.84
27.20
28.88
27.45
22.79
15.22
5.60
-4.71
-14.08
-20.92
-24.06
-23.01
-18.01
-9.94
-0.04
10.31
19.79
27.23
31.68
32.51
29.58
23.34
14.79
5.34
-3.50
-10.40
-14.49
-15.46
-13.52
-9.30
-3.56
2.98
9.81
16.54
22.81
28.00
31.23
31.41
27.57
19.29
7.01
-7.87
-23.14
-36.33
-45.28
-48.65
-46.23
-38.86
-28.14
-16.11
-4.78
4.03
8.96
9.24
4.80
-3.75
-15.23
-28.02
-40.35
-50.53
-57.19
-59.38
-56.87
-50.08
-40.10
-28.34
-16.22
-4.81
5.21
13.44
19.56
23.21
24.10
22.24
18.20
13.12
8.48
5.73
5.83
9.00
14.80
22.28
30.36
37.99
44.28
48.51
50.19
49.10
45.36
39.44
32.16
24.42
17.08
10.66
5.38
1.18
-2.18
-5.01
-7.72
-10.82
-14.86
-20.30
-27.36
-35.79
-44.98
-54.07
-62.10
-68.29
-72.03
-72.92
-70.68
-65.25
-56.90
-46.39
-34.95
-24.04
-14.92
-8.29
-4.20
-2.14
-1.33
-1.09
-0.88
-0.33
0.96
3.43
7.47
13.16
20.20
27.84
35.09
41.03
45.03
46.81
46.41
44.02
39.92
34.42
27.94
21.04
14.49
9.07
5.48
4.15
5.15
8.15
12.57
17.56
22.15
25.27
25.89
23.25
17.05
7.63
-4.06
-16.63
-28.48
-38.13
-44.44
-46.74
-44.84
-39.04
-30.05
-18.86
-6.58
5.63
16.71
25.71
31.78
34.30
32.97
28.05
20.29
11.00
1.71
-6.02
-10.93
-12.26
-9.90
-4.34
3.57
12.83
22.51
31.85
40.16
46.63
50.36
50.42
46.22
37.83
26.08
12.41
-1.52
-14.31
-25.01
-33.20
-38.83
-42.01
-42.84
-41.50
-38.31
-33.89
-29.19
-25.35
-23.46
-24.30
-28.09
-34.47
-42.58
-51.18
-58.81
-64.06
-65.69
-62.90
-55.54
-44.19
-30.05
-14.66
0.45
14.12
25.62
34.59
40.81
44.11
44.31
41.38
35.67
27.96
19.45
11.49
5.31
1.68
0.75
2.16
5.19
9.03
12.94
16.32
18.68
19.64
18.91
16.25
11.46
4.34
-5.22
-17.10
-30.79
-45.30
-59.16
-70.61
-77.77
-78.95
-73.00
-59.55
-39.24
-13.67
14.81
43.58
70.25
92.95
110.42
121.80
126.43
123.94
114.36
98.52
78.23
56.04
34.81
17.01
4.29
-2.79
-4.60
-2.17
3.11
9.67
15.87
20.10
20.96
17.54
9.83
-1.22
-13.66
-25.15
-33.46
-37.16
-35.92
-30.45
-22.11
-12.56
-3.35
4.22
9.08
10.41
7.62
0.57
-10.33
-24.17
-39.59
-55.07
-68.97
-79.62
-85.51
-85.49
-79.26
-67.59
-52.31
-35.82
-20.45
-7.87
1.17
6.67
9.03
8.73
6.30
2.43
-1.91
-5.49
-7.19
-6.32
-2.90
2.40
8.49
14.35
19.33
23.32
26.66
29.79
32.94
35.89
37.98
38.34
36.30
31.62
24.70
16.51
8.36
1.57
-2.79
-4.17
-2.57
1.50
7.23
13.68
19.93
25.17
28.62
29.59
27.52
22.14
13.61
2.57
-9.90
-22.49
-33.79
-42.48
-47.45
-48.01
-43.94
-35.73
-24.52
-11.98
0.14
10.20
17.08
20.28
19.85
16.29
10.39
3.18
-4.21
-10.58
-14.87
-16.34
-14.74
-10.38
-4.00
3.47
11.24
18.77
25.78
32.06
37.22
40.59
41.39
38.96
33.09
24.28
13.65
2.73
-6.95
-14.16
-18.24
-19.22
-17.67
-14.53
-10.77
-7.20
-4.35
-2.62
-2.34
-3.93
-7.78
-14.06
-22.42
-31.85
-40.77
-47.36
-50.15
-48.38
-42.30
-32.97
-21.97
-10.89
-0.97
7.04
12.88
16.55
18.26
18.25
16.89
14.69
12.25
10.23
9.13
9.29
10.77
13.44
17.06
21.30
25.86
30.37
34.37
37.22
38.19
36.60
32.03
24.52
14.79
4.09
-6.02
-14.09
-19.13
-20.81
-19.46
-15.79
-10.75
-5.24
-0.21
3.41
4.67
2.84
-2.44
-10.86
-21.47
-32.82
-43.27
-51.35
-56.02
-56.75
-53.58
-47.05
-38.05
-27.65
-16.93
-6.77
2.11
9.20
14.07
16.34
15.83
12.63
7.21
0.55
-6.13
-11.51
-14.61
-14.95
-12.67
-8.35
-2.80
3.29
9.41
15.29
20.74
25.46
29.01
30.91
30.85
28.88
25.46
21.38
17.50
14.49
12.73
12.22
12.69
13.79
15.21
16.70
18.10
19.20
19.74
19.40
17.88
15.01
10.85
5.57
-0.50
-6.96
-13.37
-19.15
-23.61
-26.10
-26.13
-23.56
-18.69
-12.12
-4.57
3.18
10.47
16.64
21.04
23.10
22.54
19.59
14.99
9.90
5.49
2.64
1.62
2.24
4.05
6.61
9.68
13.21
17.17
21.31
25.17
28.06
29.24
28.14
24.41
18.03
9.26
-1.24
-12.49
-23.23
-32.05
-37.68
-39.30
-36.76
-30.59
-21.88
-12.05
-2.51
5.42
10.69
12.54
10.55
4.79
-4.17
-15.29
-27.17
-38.30
-47.32
-53.10
-55.01
-52.87
-47.10
-38.58
-28.53
-18.23
-8.76
-0.87
5.12
9.15
11.28
11.65
10.47
8.15
5.28
2.69
1.10
1.05
2.67
5.71
9.69
14.04
18.29
22.08
25.17
27.25
28.02
27.16
24.43
19.80
13.35
5.22
-4.42
-15.27
-26.68
-37.34
-45.38
-48.78
-46.12
-37.29
-23.83
-8.49
5.49
15.40
19.69
18.07
11.21
0.51
-11.93
-23.24
-29.88
-28.42
-16.73
4.94
33.67
64.64
92.75
114.10
126.84
131.01
127.65
118.01
103.14
84.12
62.35
39.75
18.47
0.38
-13.38
-22.52
-27.44
-29.06
-28.63
-27.41
-26.55
-26.87
-28.72
-32.01
-36.34
-41.24
-46.22
-50.78
-54.33
-56.19
-55.63
-52.21
-45.89
-37.23
-27.17
-16.82
-7.15
1.05
7.19
10.75
11.40
9.15
4.66
-0.78
-5.51
-7.99
-7.36
-3.60
2.61
10.35
18.80
27.49
36.08
44.11
50.79
55.01
55.75
52.39
44.96
34.19
21.38
8.17
-3.65
-12.44
-16.91
-16.40
-11.03
-1.65
10.44
23.78
37.04
49.11
59.00
65.73
68.30
65.85
57.87
44.48
26.47
5.31
-17.08
-38.56
-57.06
-70.92
-79.19
-81.70
-79.08
-72.54
-63.59
-53.85
-44.83
-37.74
-33.42
-32.27
-34.15
-38.51
-44.49
-51.04
-57.03
-61.21
-62.30
-59.22
-51.33
-38.79
-22.68
-4.80
12.76
28.12
39.81
46.97
49.20
46.52
39.37
28.58
15.50
1.83
-10.56
-19.96
-25.14
-25.53
-21.28
-13.15
-2.34
9.74
21.60
31.84
39.28
43.04
42.64
38.18
30.23
19.83
8.29
-3.02
-12.77
-19.67
-22.76
-21.30
-15.02
-4.23
10.09
26.46
43.07
58.21
70.49
78.76
82.40
81.54
77.05
70.45
63.60
58.10
54.85
53.71
53.14
51.04
45.47
35.32
20.62
2.43
-17.66
-38.20
-58.33
-78.69
-100.40
-124.44
-150.98
-178.93
-206.19
-230.38
-249.58
-258.65
-253.98
-233.33
-196.96
-147.74
-90.38
-29.96
29.03
82.88
128.93
164.60
189.00
202.98
208.95
210.10
209.33
208.10
205.86
201.69
192.26
175.44
151.34
122.30
91.80
62.98
37.53
14.79
-7.10
-31.28
-59.79
-93.43
-131.66
-172.69
-213.14
-248.31
-274.17
-283.99
-276.64
-256.30
-231.13
-209.91
-197.96
-194.87
-190.95
-176.38
-144.72
-97.05
-40.65
15.24
64.37
105.32
139.95
170.15
194.95
211.69
217.53
212.10
198.05
180.47
164.43
153.11
146.65
142.52
135.39
120.26
94.38
57.51
11.97
-37.97
-86.57
-125.24
-147.41
-150.34
-136.29
-111.73
-85.09
-63.26
-49.38
-42.24
-38.04
-33.41
-26.84
-19.46
-11.98
-4.48
4.08
14.99
28.75
44.45
59.38
70.31
