1679652892.00
64.000000
-0.00
-0.00
-0.00
-0.00
-0.00
-0.00
-0.00
-0.00
-0.00
-0.00
0.00
0.01
0.01
-0.00
-0.03
-0.05
-0.05
0.00
0.13
0.36
0.66
1.01
1.37
1.72
2.06
2.40
2.79
3.24
3.80
4.42
5.06
5.66
6.20
6.68
7.15
7.68
8.31
9.14
10.09
11.04
11.88
12.56
13.14
13.76
14.65
15.96
17.91
20.32
22.90
25.38
27.58
29.57
31.68
34.32
37.81
42.54
48.15
54.10
59.83
64.97
69.58
74.14
79.34
85.71
93.76
103.00
112.62
121.73
129.77
136.75
143.30
150.75
157.77
166.64
177.95
191.79
206.97
220.57
228.25
225.36
208.53
176.87
132.76
80.05
23.07
-34.94
-92.44
-149.16
-205.23
-260.37
-313.74
-363.87
-409.83
-450.91
-486.50
-515.74
-537.23
-549.22
-549.96
-538.37
-514.21
-478.67
-433.88
-382.45
-327.02
-269.84
-212.63
-156.66
-102.95
-52.37
-5.90
35.58
71.43
101.35
125.50
144.38
158.69
169.15
176.37
180.75
182.57
182.07
179.51
175.23
169.65
163.18
156.15
148.81
141.30
133.69
126.02
118.33
110.69
103.16
95.80
88.68
81.83
75.25
68.95
62.95
57.25
51.86
46.78
42.03
37.59
33.45
29.61
26.07
22.81
19.83
17.11
14.67
12.48
10.54
8.83
7.35
6.07
4.97
4.05
3.27
2.62
2.09
1.65
1.30
1.02
0.80
0.63
0.50
0.40
0.33
0.29
0.26
0.25
0.25
0.26
0.29
0.32
0.36
0.41
0.47
0.54
0.62
0.71
0.80
0.91
1.02
1.13
1.25
1.37
1.50
1.63
1.78
1.93
2.09
2.26
2.45
2.65
2.87
3.10
3.37
3.65
3.98
4.34
4.75
5.19
5.68
6.22
6.81
7.46
8.17
8.95
9.80
10.73
11.72
12.77
13.88
15.06
16.32
17.66
19.06
20.57
22.15
23.74
25.32
26.84
28.26
29.51
30.50
31.20
31.51
31.43
30.80
29.59
27.81
25.46
22.51
18.87
14.56
9.54
3.87
-2.61
-9.90
-17.92
-26.54
-35.60
-44.88
-54.15
-63.15
-70.78
-77.26
-82.47
-86.20
-88.24
-88.45
-86.81
-83.28
-78.64
-72.37
-64.57
-55.40
-44.95
-33.43
-21.18
-8.56
4.11
16.47
28.43
39.99
50.68
60.38
69.03
76.51
82.66
87.28
90.23
91.53
91.15
89.17
86.01
81.98
77.19
71.55
64.98
57.43
49.16
40.42
31.52
22.94
14.93
7.27
-0.56
-9.17
-18.91
-29.57
-39.64
-48.65
-55.67
-60.19
-62.52
-63.65
-64.79
-66.90
-70.11
-73.88
-77.16
-78.90
-78.62
-76.73
-74.35
-72.75
-73.42
-76.73
-83.02
-92.22
-102.90
-111.99
-115.20
-108.39
-89.74
-61.16
-28.16
2.07
23.55
33.93
34.77
29.93
23.26
16.84
10.76
4.24
-3.09
-10.55
-16.69
-20.34
-21.41
-20.82
-19.84
-19.55
-19.93
-20.11
-18.78
-14.92
-8.08
1.15
11.41
21.11
28.99
34.53
37.87
39.62
40.42
40.60
40.08
38.50
35.51
31.04
25.49
19.65
14.45
10.74
9.08
9.61
12.14
16.28
21.51
27.34
33.28
38.88
43.64
47.09
48.83
48.59
46.21
41.75
35.41
27.52
18.50
8.75
-1.30
-11.19
-20.55
-29.17
-36.96
-43.97
-50.33
-56.27
-62.00
-67.75
-73.53
-79.37
-85.35
-91.55
-98.06
-104.95
-112.21
-119.74
-127.31
-134.36
-140.39
-145.07
-148.22
-149.86
-150.02
-148.56
-144.92
-139.95
-133.61
-125.70
-116.16
-105.21
-93.39
-81.34
-69.63
-58.50
-47.80
-36.86
-25.12
-12.39
1.05
14.47
27.12
38.49
48.62
58.05
67.78
78.83
92.11
108.36
127.99
150.68
174.72
196.96
213.35
220.36
216.42
202.78
183.14
162.15
143.63
129.43
119.61
113.51
110.94
112.39
118.44
128.74
141.33
152.94
160.05
160.20
152.63
138.35
119.49
98.22
76.13
53.90
31.42
8.32
-15.63
-40.23
-64.83
-88.58
-110.51
-129.50
-144.05
-152.14
-151.50
-140.25
-117.81
-85.54
-46.70
-5.79
32.52
64.42
87.62
101.38
106.33
103.92
95.99
84.29
70.28
55.02
39.26
23.66
8.89
-4.42
-15.64
-24.21
-29.53
-30.90
-27.59
-19.13
-5.70
11.50
30.36
48.35
63.24
73.75
79.77
82.10
81.85
79.95
76.88
72.86
68.15
63.25
58.90
55.73
53.93
53.03
52.02
49.56
44.40
35.83
23.96
9.93
-4.36
-16.82
-25.79
-30.78
-32.58
-32.76
-32.95
-33.98
-35.61
-36.95
-37.17
-36.11
-34.47
-33.25
-33.21
-34.40
-36.29
-38.25
-39.95
-41.59
-43.66
-46.58
-50.27
-54.14
-57.23
-58.72
-58.16
-55.66
-51.79
-47.36
-43.20
-39.90
-37.70
-36.31
-34.93
-32.48
-27.95
-21.05
-12.43
-3.63
3.59
7.99
9.49
9.17
8.71
9.63
12.62
17.43
23.20
28.99
34.21
38.65
42.29
45.07
46.76
47.07
45.88
43.43
40.40
37.69
36.21
36.59
38.99
43.11
48.38
54.30
60.53
67.02
73.87
81.14
88.79
96.53
103.78
109.90
114.28
116.62
117.05
116.09
114.37
112.17
109.04
103.78
94.87
81.08
62.04
38.40
11.65
-16.19
-42.95
-66.40
-84.40
-95.22
-98.00
-93.23
-82.85
-69.83
-57.30
-47.47
-40.91
-36.58
-32.44
-26.48
-17.62
-6.01
7.10
20.05
31.50
40.91
48.69
55.87
63.63
73.03
84.77
99.17
116.08
134.87
154.25
172.26
186.61
195.14
196.53
190.92
179.86
165.96
151.94
139.77
129.96
121.65
113.28
103.57
92.48
81.31
72.17
66.91
66.08
68.40
71.14
71.02
65.44
53.20
34.63
11.27
-14.89
-41.99
-68.56
-93.52
-116.12
-135.91
-152.68
-166.53
-177.61
-186.04
-191.79
-194.66
-194.61
-191.97
-187.78
-183.58
-181.09
-181.63
-185.78
-193.37
-203.69
-216.10
-230.40
-247.06
-267.05
-291.90
-323.48
-363.68
-413.28
-470.60
-530.52
-584.73
-623.81
-640.27
-631.38
-600.12
-553.81
-501.13
-449.06
-401.28
-358.41
-319.57
-283.79
-250.73
-220.27
-191.92
-164.60
-137.04
-108.54
-79.33
-50.42
-23.15
1.70
24.22
45.26
65.95
87.10
108.88
130.79
152.07
172.05
190.62
208.34
226.58
247.07
271.37
299.70
330.10
358.18
378.20
385.16
376.86
355.06
324.86
292.67
263.83
241.05
224.28
211.72
201.29
191.44
181.40
170.70
158.82
145.25
129.77
112.88
95.80
80.14
67.40
58.39
52.94
49.91
47.61
44.39
39.30
32.50
25.23
19.31
16.25
16.61
19.62
23.58
26.62
27.60
26.48
24.20
21.89
20.26
19.19
18.00
16.09
13.35
10.30
7.79
6.52
6.71
8.12
10.12
11.95
12.93
12.54
10.61
7.41
3.58
-0.07
-2.89
-4.69
-5.71
-6.42
-7.13
-7.76
-7.98
-7.43
-6.16
-4.72
-3.89
-4.19
-5.60
-7.57
-9.34
-10.43
-10.96
-11.48
-12.68
-14.97
-18.27
-22.02
-25.51
-28.08
-29.28
-28.85
-26.62
-22.45
-16.26
-8.28
0.82
9.81
17.19
21.65
22.72
21.08
18.31
16.25
16.05
17.69
20.13
21.96
22.20
20.83
18.60
16.53
15.30
14.99
15.08
14.94
14.11
12.44
10.11
7.44
4.67
1.98
-0.60
-3.04
-5.30
-7.25
-8.69
-9.38
-9.14
-7.88
-5.67
-2.64
0.96
4.81
8.45
11.27
12.41
10.97
6.30
-1.75
-12.62
-25.12
-37.77
-49.20
-58.47
-65.06
-68.74
-69.32
-66.56
-60.25
-50.56
-38.20
-24.54
-11.15
0.55
9.79
16.68
22.02
26.95
32.42
38.80
45.78
52.60
58.54
63.39
67.65
72.21
77.88
84.83
92.39
99.34
104.41
106.84
106.61
104.42
101.29
98.07
95.16
92.34
88.90
83.88
76.35
65.72
51.90
35.31
16.74
-2.79
-22.22
-40.51
-56.66
-69.77
-79.13
-84.53
-86.33
-85.47
-83.20
-80.72
-78.83
-77.77
-77.35
-77.06
-76.39
-75.05
-73.09
-70.91
-69.10
-68.13
-68.09
-68.60
-68.86
-67.95
-65.03
-59.54
-51.32
-40.60
-27.94
-14.29
-0.85
11.09
20.44
26.58
29.47
29.58
27.60
24.21
19.92
15.14
10.35
6.11
2.98
1.41
1.43
2.70
4.54
6.20
7.10
7.04
6.18
5.00
4.02
3.63
3.97
4.84
5.91
6.87
7.54
8.01
8.43
8.93
9.41
9.57
8.90
6.89
3.39
-1.29
-6.18
-9.99
-11.59
-10.37
-6.48
-0.56
6.73
15.16
25.06
37.10
51.83
69.41
89.60
112.06
136.53
162.60
189.05
213.30
231.51
239.43
233.76
213.34
179.68
136.71
89.70
44.00
3.99
-27.43
-48.99
-60.77
-63.79
-59.70
-50.26
-37.15
-21.78
-5.38
10.98
26.18
39.02
48.13
51.90
48.81
37.93
19.78
-3.21
-27.00
-47.00
-59.52
-63.02
-58.38
-48.12
-35.17
-21.76
-9.22
1.69
10.36
16.04
17.90
15.27
7.66
-5.32
-24.04
-48.57
-78.36
-112.01
-147.47
-182.58
-215.29
-243.49
-264.49
-274.51
-269.28
-245.61
-203.38
-146.78
-83.82
-24.38
22.46
50.47
56.77
41.41
6.65
-43.12
-100.74
-156.04
-197.09
-213.23
-199.16
-157.58
-98.91
-37.60
13.46
47.75
66.49
76.55
86.21
101.09
122.38
147.31
171.17
189.11
196.98
191.51
170.56
133.96
84.47
28.21
-26.37
-70.88
-99.58
-110.88
-107.19
-92.91
-72.29
-48.27
-22.96
1.14
20.47
31.57
33.12
27.84
22.31
24.25
38.68
65.16
97.80
128.12
149.21
158.60
158.67
154.59
151.39
151.92
156.55
164.20
173.46
183.54
194.28
205.59
216.84
226.33
231.37
228.93
216.90
195.49
167.80
138.97
114.08
95.93
83.94
75.22
66.83
58.07
51.12
49.58
55.92
69.47
86.23
100.66
108.17
106.93
98.02
84.16
68.05
51.28
34.26
16.88
-0.89
-18.81
-36.44
-53.55
-70.42
-87.79
-106.58
-127.41
-150.26
-174.43
-198.94
-223.01
-246.47
-269.77
-293.62
-318.41
-344.16
-370.84
-398.99
-429.82
-464.47
-502.52
-540.98
-574.26
-595.93
-600.95
-587.49
-556.98
-512.36
-456.51
-392.02
-322.91
-256.44
-202.95
-172.54
-169.97
-191.07
-222.80
-248.20
-253.30
-232.65
-190.35
-136.69
-82.48
-34.65
5.08
38.78
69.49
99.52
130.23
163.06
199.96
242.43
289.56
335.74
371.16
384.40
367.56
320.77
253.87
183.78
128.74
102.01
107.09
138.43
185.39
237.59
288.51
335.73
378.59
415.53
442.88
454.53
445.90
416.40
370.51
315.75
259.49
206.17
156.64
109.42
60.84
8.92
-45.52
-99.27
-148.47
-190.71
-225.95
-256.03
-283.54
-313.22
-348.11
-388.52
-431.88
-473.99
-511.06
-541.32
-565.12
-566.65
-534.77
-465.28
-364.79
-248.15
-131.09
-24.61
65.86
138.72
194.65
232.58
252.68
257.19
250.69
238.92
227.02
217.92
212.23
209.40
205.90
198.37
184.69
164.99
142.04
120.96
107.93
108.24
124.32
152.39
184.33
210.66
224.04
221.74
205.83
181.23
151.03
120.51
91.32
63.15
35.80
10.28
-11.39
-27.49
-37.74
-43.43
-46.33
-48.95
-52.70
-57.50
-62.10
-64.87
-64.63
-61.19
-55.33
-48.12
-40.78
-34.06
-28.08
-22.53
-17.05
-11.60
-6.67
-2.94
-1.05
-1.56
-4.53
-9.43
-15.32
-21.14
-26.05
-29.65
-31.90
-33.06
-33.68
-34.32
-35.38
-37.08
-39.40
-42.26
-45.63
-49.39
-53.57
-58.40
-64.17
-71.04
-78.88
-87.15
-95.16
-102.27
-107.67
-111.06
-112.62
-112.81
-111.84
-110.29
-107.65
-103.00
-95.48
-83.98
-68.43
-49.91
-30.17
-10.81
7.52
25.54
44.70
66.32
92.20
122.50
155.76
189.35
220.69
248.29
272.21
293.61
314.34
338.33
368.86
406.96
450.10
491.93
523.67
536.84
526.30
481.54
402.78
299.75
188.29
83.80
-4.32
-73.81
-126.66
-165.71
-193.02
-208.42
-212.80
-208.99
-201.19
-193.37
-187.77
-184.44
-181.85
-178.36
-171.82
-161.68
-149.04
-136.06
-124.85
-116.48
-110.65
-106.15
-101.73
-95.84
-87.98
-78.71
-69.29
-61.00
-54.50
-49.66
-45.82
-42.27
-38.18
-33.23
-27.67
-22.07
-17.03
-12.86
-9.53
-6.75
-4.23
-1.60
1.26
4.33
7.43
10.39
13.10
15.60
18.01
20.40
22.84
25.32
27.75
30.00
31.84
33.05
33.40
32.66
30.67
27.39
22.90
17.42
11.27
4.87
-1.34
-6.95
-11.63
-15.19
-17.51
-18.61
-18.62
-17.75
-16.29
-14.60
-13.02
-11.93
-11.54
-11.97
-13.11
-14.65
-16.15
-17.05
-16.85
-15.15
-11.94
-7.30
-1.49
5.13
12.15
19.20
25.91
31.98
37.15
40.90
42.97
43.35
42.40
40.73
39.16
38.42
39.04
41.16
44.01
46.78
48.83
49.92
50.26
50.41
51.06
52.61
55.09
57.25
57.84
55.86
50.84
42.90
32.42
19.47
3.03
-13.90
-31.28
-49.88
-70.84
-95.26
-123.66
-155.32
-187.79
-216.71
-236.53
-242.91
-233.51
-209.24
-174.32
-134.82
-96.70
-63.99
-38.12
-18.29
-3.28
8.11
16.43
21.80
24.35
24.71
24.09
24.00
25.96
30.69
38.48
48.90
60.91
73.05
83.85
92.16
97.52
100.20
100.78
100.19
99.40
99.28
100.50
103.16
106.13
106.74
100.92
84.34
54.34
11.44
-40.09
-93.27
-140.39
-175.13
-193.90
-195.96
-182.86
-157.55
-123.90
-86.33
-49.49
-17.56
6.66
22.34
30.68
34.23
35.84
37.55
40.14
43.19
45.60
46.16
44.14
39.53
32.98
25.60
18.45
12.24
7.10
2.68
-1.50
-5.80
-10.21
-14.39
-17.93
-20.52
-22.08
-22.77
-22.87
-22.72
-22.56
-22.67
-23.21
-24.29
-26.06
-28.60
-31.98
-36.12
-40.68
-45.11
-48.67
-50.69
-50.81
-49.01
-45.44
-40.31
-33.77
-26.11
-18.12
-11.15
-6.71
-5.70
-7.57
-10.06
-9.79
-3.51
10.57
32.14
58.98
87.95
116.03
140.92
161.09
175.22
182.21
181.27
172.49
157.19
137.86
117.45
98.56
82.67
70.05
60.13
52.13
45.76
41.42
39.93
42.06
47.88
56.49
66.17
74.83
80.57
82.26
79.68
73.40
64.44
53.96
42.97
32.31
22.66
14.53
8.20
3.70
0.63
-1.80
-4.63
-8.92
-15.35
-23.99
-34.25
-45.12
-55.55
-64.86
-72.82
-79.60
-85.38
-90.14
-93.65
-95.62
-96.01
-95.04
-93.15
-90.67
-87.69
-83.96
-79.16
-73.04
-65.63
-57.24
-48.28
-39.18
-30.23
-21.63
-13.53
-6.05
0.74
6.97
12.97
19.22
26.17
33.99
42.43
50.80
58.04
62.94
64.40
61.61
54.27
42.74
28.10
12.07
-3.27
-15.87
-24.19
-27.45
-25.71
-19.62
-10.14
1.83
15.50
30.10
44.62
57.68
67.49
72.12
69.96
60.00
42.00
16.36
-16.30
-55.20
-99.40
-147.47
-197.40
-246.68
-292.91
-334.43
-370.68
-401.97
-428.64
-450.26
-465.13
-470.77
-464.85
-446.29
-415.79
-375.61
-328.68
-277.71
-224.67
-170.68
-116.33
-62.07
-8.46
43.72
93.39
139.31
180.14
214.61
241.78
261.26
273.35
279.01
279.70
277.11
272.78
267.69
261.86
254.15
242.46
224.34
197.84
162.43
119.38
71.67
23.35
-21.28
-58.57
-86.09
-102.94
-109.79
-108.69
-102.57
-94.70
-87.97
-84.22
-83.89
-86.16
-89.18
-90.76
-88.79
-81.63
-68.28
-48.85
-24.91
0.50
23.22
39.10
45.30
41.44
29.70
14.16
-0.57
-10.68
-14.20
-11.23
-3.53
6.43
16.58
26.28
36.68
50.37
70.35
98.59
135.04
177.33
221.53
263.35
299.42
327.90
348.54
362.27
370.59
375.05
376.83
376.25
372.56
363.98
348.21
323.31
288.58
245.36
197.00
148.20
103.67
66.76
38.43
17.03
-1.15
-20.56
-45.12
-77.05
-116.44
-161.20
-207.70
-251.63
-289.00
-317.06
-334.87
-343.39
-345.13
-343.35
-341.17
-340.62
-342.18
-344.79
-346.16
-343.43
-334.05
-316.49
-290.63
-257.78
-219.99
-179.44
-137.74
-95.78
-54.07
-13.13
26.17
62.75
95.73
124.88
150.65
173.90
195.38
215.31
233.29
248.48
260.08
267.58
270.91
270.37
266.44
259.69
250.55
239.27
225.80
209.77
190.46
166.95
138.54
105.14
67.80
28.78
-8.84
-41.75
-67.33
-84.23
-92.64
-94.00
-90.66
-85.35
-80.78
-79.24
-82.21
-90.02
-101.79
-115.67
-129.33
-140.62
-148.04
-150.99
-149.82
-145.68
-140.34
-135.67
-133.20
-133.48
-135.64
-137.53
-136.32
-129.47
-115.60
-94.97
-69.23
-40.81
-12.18
14.49
37.32
54.58
64.68
66.46
59.80
45.93
27.53
8.05
-9.12
-21.64
-28.63
-30.71
-29.34
-26.14
-22.36
-18.63
-15.03
-11.33
-7.35
-2.96
1.90
7.37
13.73
21.38
30.56
41.12
52.49
63.60
73.33
80.73
85.43
87.69
88.33
88.45
89.09
90.90
93.99
97.90
101.80
104.72
105.91
104.90
101.69
96.59
90.15
83.09
76.20
70.33
66.22
64.40
64.94
67.43
71.02
74.65
77.44
78.88
78.91
77.79
75.76
72.78
68.44
62.16
53.56
42.75
30.31
17.07
3.72
-9.49
-22.65
-35.88
-49.05
-61.61
-72.68
-81.36
-87.05
-89.68
-89.59
-87.50
-84.37
-81.21
-79.05
-78.61
-80.12
-83.08
-86.40
-88.65
-88.55
-85.41
-79.30
-71.06
-61.93
-53.23
-45.92
-40.48
-36.97
-35.07
-34.41
-34.67
-35.66
-37.28
-39.47
-42.16
-45.36
-49.23
-54.14
-60.49
-68.31
-76.97
-84.95
-90.16
-90.66
-85.41
-74.79
-60.42
-44.62
-29.49
-16.46
-6.15
1.23
5.53
6.56
4.39
-0.24
-5.87
-10.63
-13.05
-12.56
-9.73
-5.91
-2.48
-0.29
0.66
1.03
1.78
3.57
6.53
10.08
13.08
14.18
12.21
6.72
-1.77
-11.74
-21.12
-27.92
-30.90
-29.94
-25.92
-20.47
-15.30
-11.89
-11.18
-13.42
-18.23
-24.62
-31.20
-36.46
-39.16
-38.66
-35.11
-29.39
-22.77
-16.47
-11.30
-7.55
-5.00
-3.18
-1.49
0.57
3.30
6.76
10.78
15.02
19.14
22.94
26.46
29.88
33.43
37.16
40.82
43.97
46.11
46.96
46.50
44.94
42.60
39.82
36.94
34.33
32.36
31.20
30.80
30.74
30.38
29.12
26.68
23.29
19.62
16.54
14.72
14.45
15.52
17.33
19.03
19.74
18.82
15.98
11.47
5.94
0.36
-4.35
-7.56
-9.00
-8.76
-7.03
-4.12
-0.25
4.24
8.91
13.17
16.41
18.19
18.47
17.64
16.51
15.99
16.82
19.24
22.93
27.00
30.45
32.55
33.10
32.48
31.44
30.65
30.40
30.55
30.64
30.20
28.93
26.84
24.20
21.43
18.91
16.91
15.61
14.92
14.59
14.16
13.15
11.26
8.61
5.77
3.66
3.18
4.74
7.98
11.80
14.69
15.30
12.95
7.89
1.32
-4.86
-8.58
-8.30
-3.77
3.41
9.99
11.95
5.99
-8.99
-31.26
-56.88
-81.04
-99.73
-110.76
-113.71
-109.24
-98.35
-81.98
-61.25
-37.89
-14.29
6.93
23.72
35.25
41.99
45.27
46.55
46.72
45.96
43.91
40.18
34.74
28.10
21.16
14.82
9.70
5.92
3.21
1.11
-0.78
-2.61
-4.24
-5.33
-5.46
-4.23
-1.42
3.01
8.80
15.40
21.97
27.59
31.49
33.31
33.16
31.64
29.53
27.54
26.12
25.40
25.24
25.39
25.59
25.55
25.02
23.83
21.90
19.29
16.27
13.13
10.14
7.42
4.95
2.62
0.30
-2.03
-4.35
-6.53
-8.46
-9.97
-10.92
-11.13
-10.45
-8.77
-6.07
-2.47
1.81
6.40
10.85
14.72
17.56
19.08
19.10
17.64
14.87
11.14
6.93
2.79
-0.79
-3.49
-5.31
-6.55
-7.69
-9.20
-11.36
-14.12
-17.17
-20.00
-22.20
-23.51
-23.92
-23.61
-22.91
-22.08
-21.39
-21.02
-21.06
-21.56
-22.42
-23.40
-24.13
-24.33
-23.85
-22.88
-21.77
-20.87
-20.32
-19.84
-18.94
-17.15
-14.35
-10.87
-7.32
-4.34
-2.29
-1.14
-0.51
0.05
0.94
2.45
4.67
7.62
11.22
15.32
19.63
23.83
27.62
30.78
33.23
34.96
35.95
36.12
35.32
33.40
30.25
25.92
20.65
14.83
8.94
3.38
-1.55
-5.74
-9.25
-12.29
-15.07
-17.84
-20.74
-23.77
-26.74
-29.34
-31.20
-32.01
-31.71
-30.42
-28.56
-26.59
-24.97
-23.95
-23.56
-23.65
-23.96
-24.25
-24.35
-24.26
-24.03
-23.79
-23.67
-23.73
-23.98
-24.33
-24.65
-24.71
-24.26
-23.14
-21.22
-18.56
-15.29
-11.69
-8.01
-4.50
-1.37
1.26
3.26
4.54
5.09
4.97
4.33
3.42
2.45
1.52
0.53
-0.72
-2.47
-4.79
-7.50
-10.17
-12.24
-13.26
-12.94
-11.37
-8.81
-5.76
-2.69
-0.00
2.10
3.64
4.79
5.82
7.00
8.46
10.18
12.09
14.05
16.01
17.97
19.85
21.52
22.74
23.20
22.67
21.11
18.66
15.67
12.60
9.83
7.54
5.66
3.91
1.95
-0.42
-3.21
-6.19
-9.04
-11.41
-12.91
-13.14
-11.73
-8.53
-3.76
1.95
7.75
12.91
17.12
20.56
23.60
26.46
28.97
30.66
31.00
29.78
27.23
23.89
20.41
17.30
14.87
13.24
12.48
12.47
12.94
13.45
13.43
12.44
10.19
6.67
2.09
-3.16
-8.63
-13.78
-18.09
-21.18
-22.88
-23.29
-22.76
-21.71
-20.54
-19.52
-18.76
-18.22
-17.80
-17.37
-16.79
-16.00
-15.00
-13.86
-12.64
-11.25
-9.50
-7.11
-3.87
0.18
4.69
9.08
12.75
15.25
16.48
16.65
16.19
15.58
15.23
15.39
16.14
17.37
18.86
20.28
21.33
21.79
21.56
20.65
19.17
17.21
14.82
12.05
8.90
5.52
2.18
-0.82
-3.25
-5.17
-6.89
-8.90
-11.54
-14.81
-18.14
-20.72
-21.76
-21.02
-18.92
-16.48
-14.82
-14.65
-15.94
-17.89
-19.30
-19.10
-16.81
-12.73
-7.91
-3.74
-1.57
-2.15
-5.44
-10.50
-15.60
-18.67
-17.93
-12.48
-2.87
8.84
19.45
25.59
24.87
16.80
2.93
-13.63
-29.47
-41.96
-50.00
-53.87
-54.63
-53.44
-51.17
-48.48
-46.11
-45.08
-46.41
-50.76
-57.87
-66.48
-74.74
-80.94
-84.15
-84.63
-83.66
-82.96
-84.07
-87.52
-92.67
-97.65
-99.95
-97.26
-88.28
-73.26
-54.05
-33.51
-14.57
0.61
11.18
17.58
21.06
23.15
25.22
28.29
32.94
39.35
47.25
56.00
64.74
72.58
78.90
83.30
85.70
86.14
84.80
82.07
78.59
75.18
72.55
71.07
70.62
70.74
70.97
71.12
71.36
71.98
73.12
74.69
76.43
78.16
79.91
81.83
84.01
86.30
88.32
89.58
89.72
88.56
86.04
82.01
76.35
68.94
60.04
50.32
40.86
32.86
27.20
24.24
23.67
24.67
26.27
27.67
28.51
28.88
29.18
29.88
31.25
33.40
36.26
39.75
43.71
47.87
51.76
54.73
56.13
55.57
53.27
49.99
46.65
43.70
40.61
35.87
27.54
14.18
-4.24
-26.07
-48.43
-68.14
-82.81
-91.42
-94.23
-92.22
-86.38
-77.32
-65.43
-51.26
-35.77
-20.33
-6.45
4.76
12.80
17.87
20.61
21.82
22.06
21.61
20.57
18.99
17.05
15.10
13.54
12.71
12.74
13.57
15.08
17.25
20.21
24.19
29.19
34.84
40.26
44.26
45.74
44.12
39.55
32.88
25.36
18.19
12.24
7.90
5.12
3.65
3.11
3.04
2.95
2.40
1.10
-0.99
-3.72
-6.94
-10.62
-14.91
-19.97
-25.75
-31.76
-37.18
-41.14
-43.12
-43.24
-42.09
-40.47
-39.03
-38.03
-37.37
-36.87
-36.41
-36.05
-35.94
-36.18
-36.67
-37.13
-37.19
-36.52
-35.01
-32.77
-30.09
-27.35
-24.86
-22.80
-21.19
-19.93
-18.90
-17.98
-17.03
-15.88
-14.33
-12.18
-9.35
-5.91
-2.13
1.68
5.20
8.28
10.86
12.97
14.70
16.13
17.43
18.80
20.47
22.56
25.00
27.52
29.64
30.87
30.79
29.09
25.66
20.60
14.23
7.02
-0.51
-8.03
-15.44
-22.92
-30.75
-38.98
-47.29
-54.99
-61.21
-65.20
-66.63
-65.63
-62.69
-58.46
-53.56
-48.48
-43.52
-38.92
-34.78
-31.12
-27.79
-24.56
-21.12
-17.22
-12.71
-7.63
-2.16
3.42
8.72
13.37
17.00
19.33
20.18
19.44
17.15
13.48
8.67
3.19
-2.30
-6.93
-9.75
-10.00
-7.41
-2.33
4.32
11.35
17.58
22.16
24.63
24.89
23.01
19.16
13.63
6.85
-0.53
-7.75
-14.07
-19.00
-22.38
-24.37
-25.30
-25.52
-25.23
-24.48
-23.31
-21.74
-19.95
-18.22
-16.78
-15.73
-14.97
-14.28
-13.43
-12.33
-11.08
-9.95
-9.15
-8.75
-8.66
-8.64
-8.46
-7.99
-7.29
-6.54
-5.99
-5.79
-5.95
-6.44
-7.18
-8.11
-9.12
-10.08
-10.71
-10.76
-10.12
-8.86
-7.24
-5.62
-4.22
-3.07
-2.11
-1.13
0.01
1.36
2.95
4.74
6.63
8.44
9.92
10.85
11.14
10.90
10.41
9.97
9.81
10.04
10.53
11.13
11.70
12.23
12.83
13.67
14.90
16.53
18.38
20.16
21.61
22.61
23.29
23.92
24.70
25.64
26.50
26.94
26.69
25.70
24.18
22.43
20.62
18.76
16.63
13.91
10.44
6.26
1.61
-3.07
-7.38
-10.93
-13.43
-14.78
-15.07
-14.60
-13.95
-13.74
-14.54
-16.60
-19.76
-23.44
-26.84
-29.28
-30.33
-29.97
-28.58
-26.72
-24.95
-23.69
-23.06
-22.94
-22.91
-22.39
-20.87
-18.01
-13.91
-9.03
-4.01
0.56
4.37
7.33
9.63
11.40
12.71
13.53
13.82
13.62
12.99
12.08
10.94
9.57
7.99
6.27
4.63
3.36
2.67
2.57
2.79
2.78
1.98
0.00
-3.11
-6.88
-10.51
-13.24
-14.72
-15.12
-15.16
-15.75
-17.54
-20.56
-24.25
-27.65
-29.94
-30.84
-30.82
-30.97
-32.49
-36.21
-42.21
-49.77
-57.43
-63.32
-65.46
-62.16
-52.55
-37.06
-17.63
2.62
20.30
32.99
40.44
44.74
49.52
58.04
71.53
88.36
104.78
116.72
121.56
118.98
110.47
98.06
83.11
66.00
46.63
25.35
3.39
-17.35
-35.20
-49.36
-60.01
-67.88
-73.49
-76.85
-77.55
-75.39
-70.61
-64.17
-57.39
-51.53
-47.37
-45.02
-43.98
-43.43
-42.48
-40.31
-36.42
-30.57
-22.89
-13.86
-4.27
4.93
12.84
18.82
22.58
24.21
24.05
22.60
20.44
18.04
15.86
14.17
13.01
12.22
11.50
10.49
9.00
7.32
6.37
7.61
12.60
22.24
36.13
52.38
68.10
80.43
87.55
89.32
87.27
83.72
80.80
79.38
78.61
76.16
69.04
54.91
33.02
4.79
-26.62
-57.33
-84.12
-105.34
-120.92
-131.91
-139.66
-145.50
-150.70
-156.70
-165.05
-176.70
-191.18
-206.27
-218.44
-224.05
-220.48
-206.71
-183.09
-150.61
-110.43
-64.03
-13.82
36.35
81.48
116.56
138.18
145.89
142.31
132.10
120.28
110.52
104.46
101.77
101.14
101.25
101.40
101.38
101.06
99.88
96.73
90.31
79.70
64.93
47.15
28.42
10.96
-3.42
-13.86
-20.47
-24.02
-25.40
-25.24
-23.64
-20.39
-15.37
-8.93
-2.04
3.94
7.78
8.92
7.73
5.30
2.98
1.92
2.60
4.87
7.99
10.92
12.51
11.58
7.04
-1.99
-16.08
-35.32
-59.48
-88.00
-119.96
-153.67
-186.33
-213.76
-230.84
-232.76
-216.65
-182.98
-135.64
-80.98
-25.71
25.24
69.94
109.69
148.15
189.93
238.76
295.64
357.54
417.24
465.04
491.77
492.15
466.92
422.49
368.10
312.04
258.75
208.12
156.99
101.84
41.47
-21.57
-80.97
-127.90
-153.07
-149.08
-112.94
-47.98
35.90
124.43
202.66
259.22
289.27
294.73
282.15
259.42
232.80
205.64
178.65
151.29
123.00
93.86
64.40
34.82
4.81
-26.25
-58.84
-93.02
-128.42
-164.24
-199.50
-233.11
-264.18
-292.28
-317.51
-340.62
-362.90
-385.62
-409.37
-434.18
-459.78
-485.89
-511.47
-533.58
-546.76
-544.55
-521.79
-477.31
-415.19
-343.46
-270.52
-200.99
-133.64
-62.60
17.77
109.11
207.59
304.45
389.04
452.34
489.85
502.57
495.73
474.89
444.57
408.44
369.30
329.62
292.34
260.57
237.00
222.43
212.90
201.27
181.52
150.08
106.56
53.18
-7.23
-72.61
-129.77
-164.84
-172.22
-157.90
-133.96
-109.14
-85.60
-61.86
-35.76
-6.20
24.83
47.12
62.05
72.40
80.72
89.68
100.95
114.85
129.78
141.69
145.74
138.54
125.50
108.85
90.54
71.90
53.85
34.99
13.64
-10.59
-35.19
-57.29
-75.38
-88.20
-95.29
-96.66
-96.97
-99.80
-105.74
-111.66
-114.20
-112.33
-106.43
-98.06
-89.34
-89.42
-104.80
-136.71
-181.66
-235.89
-298.24
-368.39
-445.36
-525.71
-612.50
-704.12
-792.89
-867.66
-919.78
-946.77
-950.84
-937.16
-856.68
-693.93
-472.28
-241.31
-43.75
102.66
200.37
260.89
296.29
316.78
320.72
307.67
282.08
252.79
228.06
210.41
201.46
200.67
207.56
214.86
218.18
218.41
220.68
230.23
249.65
279.05
311.93
343.13
365.01
373.67
369.86
357.80
342.05
325.59
309.62
294.21
279.78
264.58
247.60
229.19
210.71
193.34
181.25
172.05
163.03
152.58
138.91
120.95
98.71
72.81
44.15
10.02
-26.62
-62.82
-96.31
-125.63
-150.07
-169.23
-183.41
-193.29
-199.47
-202.46
-202.87
-201.11
-197.08
-191.27
-182.41
-169.60
-152.31
-130.29
-103.49
-72.61
-39.06
-4.13
28.90
58.25
82.74
101.88
115.84
125.41
131.39
134.20
134.56
132.99
130.21
126.58
122.49
118.38
114.77
113.86
113.75
113.11
110.89
106.71
100.65
93.42
86.52
81.81
80.73
83.58
90.13
99.47
110.61
122.54
134.61
146.69
159.13
172.61
187.77
205.60
226.25
248.31
267.97
279.74
278.50
261.83
231.25
191.64
149.57
109.99
76.63
51.34
33.20
19.81
8.84
-1.13
-10.84
-20.59
-30.83
-41.92
-54.15
-67.48
-81.44
-95.28
-108.43
-120.84
-132.84
-144.96
-157.56
-170.82
-184.77
-199.20
-213.79
-228.55
-244.11
-261.54
-281.81
-304.68
-328.16
-348.54
-361.28
-362.68
-351.41
-329.21
-300.14
-269.10
-240.08
-215.35
-195.39
-179.57
-166.88
-156.33
-146.94
-137.57
-126.97
-114.07
-98.48
-80.81
-62.51
-45.55
-31.73
-22.17
-16.90
-15.03
-15.13
-15.78
-16.11
-15.96
-15.77
-16.08
-17.22
-19.00
-20.85
-22.07
-22.14
-20.98
-18.83
-16.23
-13.62
-11.31
-9.25
-7.24
-5.05
-2.53
0.24
3.00
5.39
7.11
8.04
8.45
8.87
10.07
12.87
17.84
25.25
35.05
46.93
60.49
75.17
90.03
103.73
114.59
120.92
121.64
116.56
106.40
92.57
76.60
59.85
43.36
27.93
14.06
2.08
-8.07
-16.87
-25.02
-33.28
-41.85
-49.99
-55.77
-56.31
-48.57
-30.57
-2.36
33.60
72.90
110.56
142.53
166.66
182.75
191.88
195.42
194.37
189.38
181.07
170.36
158.45
146.36
134.44
122.26
108.92
93.63
76.30
57.69
39.20
22.31
8.16
-2.78
-10.59
-15.72
-18.76
-20.36
-21.14
-21.69
-22.52
-23.90
-25.83
-28.10
-30.50
-32.97
-35.58
-38.41
-41.40
-44.26
-46.54
-47.80
-47.71
-46.26
-43.61
-40.03
-35.79
-31.01
-25.70
-19.74
-12.91
-4.91
4.53
15.66
28.44
42.33
56.04
67.57
74.55
74.93
67.89
54.44
37.37
20.38
6.84
-1.39
-4.41
-3.84
-1.92
-0.50
-0.55
-2.21
-5.19
-9.14
-13.69
-18.33
-22.20
-24.28
-23.66
-20.02
-13.95
-6.86
-0.58
3.30
3.93
1.54
-2.80
-7.62
-11.66
-14.42
-16.17
-17.71
-19.74
-22.47
-25.38
-27.67
-28.71
-28.49
-27.66
-27.13
-27.55
-28.92
-30.69
-32.01
-32.32
-31.41
-29.47
-26.79
-23.61
-20.07
-16.40
-13.02
-10.44
-9.16
-9.38
-10.96
-13.49
-16.43
-19.28
-21.62
-23.18
-23.78
-23.42
-22.29
-20.74
-19.19
-18.06
-17.55
-17.66
-18.12
-18.51
-18.50
-17.90
-16.82
-15.55
-14.45
-13.67
-13.13
-12.52
-11.53
-10.16
-8.79
-8.06
-8.57
-10.39
-12.88
-14.74
-14.39
-10.55
-2.78
8.20
20.69
32.41
41.27
45.93
46.15
42.67
36.79
29.86
22.88
16.48
10.98
6.71
4.01
3.21
4.37
7.20
11.08
15.25
19.17
22.53
25.40
27.91
30.13
31.81
32.46
31.55
28.74
24.10
18.15
11.69
5.50
0.16
-4.03
-7.10
-9.21
-10.65
-11.73
-12.80
-14.24
-16.39
-19.44
-23.37
-27.98
-32.81
-37.32
-40.93
-43.09
-43.41
-41.59
-37.54
-31.37
-23.43
-14.30
-4.74
4.31
11.90
17.21
19.85
19.96
18.29
15.93
14.07
13.51
14.54
16.95
20.18
23.67
27.00
29.91
32.19
33.61
33.85
32.67
30.06
26.37
22.26
18.45
15.47
13.48
12.33
11.75
11.65
12.26
14.10
17.71
23.46
31.27
40.58
50.44
59.72
67.31
72.36
74.37
73.26
69.42
63.61
56.82
50.03
43.98
38.94
34.67
30.52
25.73
19.70
12.34
4.15
-3.95
-10.88
-15.86
-18.67
-19.72
-19.84
-19.85
-20.29
-21.15
-21.96
-22.12
-21.28
-19.59
-17.71
-16.48
-16.50
-17.74
-19.50
-20.73
-20.40
-17.93
-13.36
-7.30
-0.77
4.94
8.59
9.21
6.55
1.44
-4.02
-6.99
-4.67
4.55
20.38
40.64
61.94
80.91
95.24
104.17
108.36
109.28
108.47
107.00
105.32
103.13
99.61
93.45
83.12
67.30
45.47
18.40
-11.75
-41.69
-67.98
-88.12
-101.22
-108.19
-111.09
-112.17
-112.95
-113.90
-114.52
-113.99
-111.70
-107.62
-102.30
-96.57
-91.27
-86.88
-83.46
-80.73
-78.35
-76.08
-73.86
-71.79
-69.84
-67.78
-65.11
-61.40
-56.56
-51.06
-45.80
-41.74
-39.43
-38.78
-39.22
-40.02
-40.67
-41.11
-41.56
-42.14
-42.74
-42.87
-41.96
-39.65
-36.00
-31.45
-26.62
-22.02
-17.93
-14.41
-11.45
-9.00
-7.06
-5.58
-4.43
-3.44
-2.45
-1.45
-0.54
0.19
0.74
1.29
2.12
3.46
5.39
7.77
10.33
12.72
14.68
16.12
17.12
17.97
19.02
20.50
22.39
24.37
25.94
26.60
26.08
24.43
21.95
18.96
15.75
12.54
9.49
6.84
4.77
3.34
2.45
1.80
1.08
0.16
-0.89
-1.84
-2.43
-2.60
-2.49
-2.35
-2.40
-2.66
-2.98
-3.09
-2.79
-2.02
-0.94
0.19
1.18
1.95
2.58
3.20
3.82
4.29
4.43
4.06
3.18
2.01
0.83
-0.05
-0.49
-0.44
0.04
0.92
2.13
3.48
4.69
5.31
4.96
3.50
1.16
-1.53
-3.93
-5.53
-6.19
-6.06
-5.59
-5.17
-4.96
-4.89
-4.70
-4.21
-3.42
-2.60
-2.10
-2.23
-3.11
-4.58
-6.38
-8.18
-9.70
-10.73
-11.06
-10.60
-9.36
-7.53
-5.43
-3.44
-1.83
-0.71
0.03
0.58
1.10
1.67
2.20
2.57
2.68
2.59
2.54
2.82
3.70
5.22
7.25
9.46
11.54
13.23
14.38
14.90
14.68
13.72
12.13
10.30
8.68
7.69
7.44
7.66
7.85
7.50
6.44
4.91
3.40
2.40
2.13
2.44
2.87
2.97
2.42
1.22
-0.40
-2.09
-3.61
-4.85
-5.87
-6.91
-8.17
-9.85
-12.02
-14.66
-17.69
-20.99
-24.50
-28.39
-33.09
-39.15
-46.97
-56.34
-66.14
-74.42
-78.83
-77.47
-69.55
-55.86
-38.44
-19.94
-2.77
11.50
22.33
30.00
35.12
38.44
40.56
42.03
43.29
44.71
46.45
48.39
50.17
51.19
50.90
48.99
45.58
41.15
36.51
32.51
29.76
28.45
28.30
28.67
28.88
28.46
27.39
26.04
24.94
24.40
24.26
23.88
22.43
19.29
14.38
8.18
1.50
-4.96
-10.88
-16.32
-21.53
-26.53
-31.02
-34.45
-36.22
-36.01
-33.96
-30.60
-26.76
-23.33
-21.02
-20.20
-20.71
-21.86
-22.45
-21.20
-16.93
-8.98
2.70
17.58
34.78
53.22
71.86
89.85
106.63
121.91
135.36
146.38
153.69
155.54
150.19
136.75
115.81
89.46
60.66
32.04
5.17
-19.66
-42.72
-63.96
-82.22
-95.45
-101.59
-99.69
-90.68
-77.25
-63.06
-51.50
-44.70
-43.07
-45.55
-50.28
-55.32
-59.16
-60.99
-60.61
-58.28
-54.57
-50.19
-45.92
-42.48
-40.31
-39.42
-39.43
-39.65
-39.37
-37.97
-35.02
-30.07
-22.77
-12.89
-0.64
13.25
27.61
41.18
53.01
62.56
69.56
73.57
73.83
69.39
59.74
45.45
28.37
11.31
-2.92
-12.39
-16.69
-16.86
-14.76
-12.24
-10.42
-9.55
-9.12
-8.51
-7.38
-6.03
-5.20
-5.88
-8.95
-15.00
-24.24
-36.47
-51.00
-66.56
-81.27
-92.84
-98.97
-97.92
-89.04
-73.04
-51.87
-28.38
-5.77
13.06
25.92
31.71
30.57
23.85
13.89
3.58
-4.25
-7.58
-5.62
0.96
10.42
20.59
29.64
36.57
41.42
44.92
48.09
51.85
56.87
63.52
71.93
81.84
92.58
103.03
111.87
117.93
120.65
120.24
117.60
114.07
110.90
108.93
108.23
108.17
107.51
104.77
98.65
88.41
74.27
57.20
38.75
20.56
3.85
-10.73
-22.99
-33.13
-41.45
-48.29
-54.02
-59.12
-64.15
-69.63
-75.79
-82.50
-89.18
-95.02
-99.27
-101.43
-101.42
-99.50
-96.16
-91.95
-87.36
-82.74
-78.34
-74.19
-70.20
-66.09
-61.50
-56.02
-49.33
-41.34
-32.26
-22.67
-13.39
-5.27
1.09
5.44
7.95
9.02
9.05
8.34
7.09
5.55
4.09
3.18
3.23
4.30
5.95
7.47
8.04
7.18
4.85
1.45
-2.40
-6.09
-9.18
-11.49
-13.05
-13.96
-14.36
-14.32
-13.78
-12.48
-10.00
-5.89
0.01
7.48
15.84
24.14
31.41
36.97
40.59
42.47
43.15
43.26
43.27
43.46
43.84
44.19
44.23
43.64
42.24
40.05
37.36
34.63
32.40
31.06
30.70
30.97
31.25
30.78
29.10
26.17
22.31
18.15
14.21
10.83
8.10
5.97
4.31
3.07
2.16
1.42
0.68
-0.34
-1.92
-4.18
-7.04
-10.25
-13.38
-15.94
-17.53
-17.88
-17.02
-15.25
-13.08
-11.03
-9.58
-8.88
-8.81
-8.96
-8.87
-8.20
-6.87
-5.04
-3.04
-1.15
0.37
1.41
1.90
1.84
1.30
0.49
-0.19
-0.37
0.24
1.68
3.74
5.99
7.97
9.36
10.02
10.02
9.48
8.60
7.52
6.32
5.01
3.65
2.35
1.25
0.44
-0.11
-0.53
-1.02
-1.70
-2.60
-3.54
-4.35
-4.87
-5.14
-5.30
-5.51
-5.89
-6.40
-6.93
-7.28
-7.28
-6.88
-6.15
-5.30
-4.64
-4.44
-4.87
-5.92
-7.41
-9.04
-10.50
-11.58
-12.17
-12.29
-12.00
-11.41
-10.70
-10.09
-9.80
-9.96
-10.44
-10.83
-10.51
-8.85
-5.53
-0.65
5.26
11.42
17.09
21.80
25.41
28.03
29.90
31.21
32.01
32.28
31.89
30.69
28.58
25.50
21.58
17.11
12.55
8.34
4.86
2.30
0.66
-0.19
-0.43
-0.22
0.36
1.27
2.52
4.13
6.08
8.27
10.45
12.35
13.69
14.36
14.41
14.03
13.42
12.65
11.70
10.53
9.19
7.86
6.79
6.18
6.06
6.31
6.73
7.19
7.63
7.99
8.17
7.93
6.95
4.98
1.95
-1.93
-6.21
-10.28
-13.58
-15.68
-16.46
-16.06
-14.83
-13.23
-11.62
-10.27
-9.27
-8.66
-8.43
-8.58
-9.07
-9.90
-11.01
-12.36
-13.91
-15.58
-17.25
-18.71
-19.72
-20.07
-19.67
-18.60
-17.09
-15.42
-13.77
-12.26
-10.87
-9.60
-8.47
-7.57
-6.94
-6.57
-6.32
-6.04
-5.62
-5.10
-4.67
-4.53
-4.82
-5.52
-6.48
-7.51
-8.48
-9.32
-10.01
-10.59
-11.03
-11.39
-11.78
-12.44
-13.62
-15.45
-17.85
-20.42
-22.50
-23.28
-21.93
-17.81
-10.61
-0.49
11.85
25.21
38.16
49.22
57.24
61.52
61.86
58.60
52.42
44.22
35.05
25.87
17.47
10.33
4.60
0.17
-3.22
-5.82
-7.86
-9.47
-10.67
-11.40
-11.54
-11.05
-10.08
-9.08
-8.82
-10.10
-13.42
-18.69
-25.18
-31.77
-37.30
-40.89
-42.08
-40.69
-36.77
-30.50
-22.35
-13.13
-3.97
3.96
9.81
13.29
14.67
14.62
13.94
13.36
13.41
14.44
16.53
19.47
22.78
25.85
28.10
29.16
29.03
27.97
26.35
24.49
22.52
20.43
18.20
15.90
13.76
12.03
10.82
9.96
9.03
7.50
5.07
1.86
-1.58
-4.43
-5.99
-5.95
-4.51
-2.34
-0.24
1.10
1.41
0.78
-0.39
-1.65
-2.65
-3.18
-3.19
-2.67
-1.70
-0.44
0.84
1.86
2.35
2.18
1.30
-0.25
-2.38
-4.96
-7.70
-10.22
-12.15
-13.25
-13.62
-13.58
-13.50
-13.57
-13.67
-13.55
-13.05
-12.33
-11.78
-11.84
-12.66
-14.03
-15.48
-16.48
-16.72
-16.19
-14.99
-13.22
-10.92
-8.08
-4.86
-1.60
1.15
2.96
3.67
3.47
2.82
2.19
1.89
1.89
2.03
2.08
1.89
1.38
0.55
-0.63
-2.15
-3.93
-5.78
-7.38
-8.37
-8.52
-7.77
-6.33
-4.55
-2.87
-1.71
-1.36
-1.96
-3.41
-5.43
-7.58
-9.36
-10.38
-10.48
-9.76
-8.50
-7.01
-5.56
-4.23
-3.03
-1.96
-1.09
-0.52
-0.34
-0.54
-1.04
-1.72
-2.50
-3.42
-4.53
-5.95
-7.64
-9.48
-11.22
-12.54
-13.15
-12.88
-11.73
-9.95
-8.00
-6.33
-5.28
-4.86
-4.78
-4.66
-4.18
-3.37
-2.41
-1.60
-1.10
-0.86
-0.67
-0.36
0.02
0.25
0.03
-0.73
-1.89
-2.96
-3.43
-2.97
-1.64
0.14
1.79
2.85
3.18
2.98
2.64
2.51
2.70
3.13
3.58
3.91
4.05
4.02
3.77
3.11
1.89
0.03
-2.21
-4.37
-5.92
-6.50
-6.08
-4.93
-3.48
-2.03
-0.78
0.30
1.24
2.02
2.55
2.82
2.93
3.21
4.07
5.80
8.45
11.69
14.92
17.45
18.73
18.51
16.92
14.41
11.58
9.08
7.38
6.67
6.93
7.95
9.44
11.14
12.80
14.13
14.78
14.51
13.23
11.23
9.04
7.12
5.46
3.37
-0.43
-7.28
-17.99
-32.38
-49.25
-66.85
-83.49
-98.04
-110.17
-120.26
-129.02
-137.24
-145.32
-153.08
-159.48
-162.49
-159.43
-147.65
-125.62
-93.79
-55.01
-14.00
23.95
54.51
75.50
87.14
91.47
91.21
88.68
85.25
81.47
77.48
73.44
69.72
66.66
64.29
62.28
60.03
57.02
53.18
48.92
44.97
41.91
39.88
38.49
36.99
34.70
31.27
26.93
22.22
17.90
14.56
12.49
11.68
11.84
12.60
13.63
14.70
15.72
16.70
17.65
18.50
19.09
19.14
18.38
16.65
14.00
10.75
7.37
4.32
1.95
0.44
-0.13
0.33
1.95
4.80
8.76
13.43
18.26
22.69
26.38
29.32
31.68
33.61
35.08
35.79
35.39
33.61
30.46
26.28
21.53
16.73
12.28
8.38
5.15
2.68
1.06
0.31
0.22
0.39
0.24
-0.72
-2.68
-5.37
-8.12
-10.20
-11.06
-10.56
-9.04
-7.21
-5.89
-5.85
-7.61
-11.38
-16.92
-23.65
-30.71
-37.20
-42.44
-46.08
-48.19
-49.06
-49.14
-48.83
-48.41
-47.96
-47.37
-46.41
-44.75
-42.24
-38.91
-35.14
-31.55
-28.69
-26.98
-26.46
-26.95
-28.17
-29.96
-32.24
-34.93
-37.92
-40.90
-43.55
-45.62
-47.11
-48.22
-49.30
-50.63
-52.34
-54.39
-56.56
-58.58
-60.25
-61.59
-62.80
-64.26
-66.36
-69.20
-72.52
-75.66
-77.87
-78.65
-78.03
-76.67
-75.61
-75.90
-78.14
-82.31
-87.58
-92.34
-94.27
-90.63
-78.93
-57.72
-27.25
10.46
52.14
94.27
134.01
169.67
200.53
226.26
246.36
259.95
265.94
263.51
252.55
233.85
209.03
180.32
150.27
121.36
95.76
74.94
59.57
49.42
43.68
41.05
40.13
39.67
38.70
36.68
33.54
29.57
25.29
21.31
18.15
16.17
15.47
15.95
17.25
18.92
20.46
21.41
21.46
20.45
18.55
16.11
13.67
11.72
10.60
10.38
10.91
12.00
13.48
15.30
17.34
19.25
20.45
20.34
18.50
14.93
10.00
4.17
-2.30
-9.43
-17.42
-26.32
-35.76
-44.94
-52.80
-58.41
-61.32
-61.69
-60.17
-57.69
-55.07
-52.87
-51.27
-50.20
-49.48
-48.96
-48.54
-48.13
-47.57
-46.56
-44.75
-42.01
-38.49
-34.60
-30.92
-27.87
-25.52
-23.70
-22.05
-20.28
-18.37
-16.63
-15.47
-15.30
-16.13
-17.68
-19.30
-20.29
-20.10
-18.56
-15.86
-12.47
-8.95
-5.83
-3.43
-1.89
-1.11
-0.89
-0.98
-1.15
-1.30
-1.48
-1.83
-2.48
-3.48
-4.72
-6.02
-7.23
-8.22
-8.96
-9.50
-9.91
-10.33
-10.89
-11.80
-13.17
-15.01
-17.07
-18.88
-19.90
-19.60
-17.72
-14.17
-9.05
-2.48
5.44
14.62
24.85
35.76
46.71
56.76
64.84
69.96
71.45
69.11
63.33
54.93
45.06
34.96
25.72
18.14
12.68
9.39
7.96
7.88
8.51
9.34
10.14
10.84
11.60
12.50
13.49
14.38
14.91
14.91
14.30
13.17
11.62
9.79
7.73
5.54
3.36
1.40
-0.09
-0.94
-1.09
-0.66
0.10
0.93
1.58
1.89
1.84
1.43
0.70
-0.28
-1.45
-2.66
-3.78
-4.72
-5.43
-6.02
-6.59
-7.22
-7.90
-8.55
-9.07
-9.47
-9.88
-10.53
-11.60
-13.07
-14.74
-16.21
-17.10
-17.10
-16.17
-14.50
-12.46
-10.47
-8.83
-7.61
-6.69
-5.79
-4.69
-3.23
-1.44
0.57
2.65
4.68
6.55
8.13
9.28
9.84
9.78
9.25
8.54
8.00
7.86
8.17
8.73
9.27
9.49
9.30
8.74
7.91
7.00
6.14
5.39
4.79
4.32
3.90
3.37
2.57
1.39
-0.11
-1.67
-2.97
-3.80
-4.20
-4.52
-5.28
-6.90
-9.51
-12.81
-16.19
-19.03
-20.90
-21.75
-21.81
-21.42
-20.82
-20.10
-19.17
-17.95
-16.45
-14.75
-12.94
-11.18
-9.74
-9.19
-10.59
-15.19
-23.96
-36.71
-51.70
-65.79
-75.21
-76.85
-69.24
-53.11
-30.96
-6.24
17.67
38.14
53.54
63.16
67.07
66.00
61.24
54.57
47.85
42.63
39.72
38.96
39.49
40.08
39.69
37.75
34.35
29.98
25.35
21.01
17.24
14.03
11.16
8.42
5.79
3.48
1.86
1.29
1.86
3.36
5.39
7.46
9.26
10.61
11.49
11.93
11.99
11.76
11.39
11.07
10.90
10.85
10.75
10.40
9.76
8.98
8.36
8.17
8.40
8.80
9.04
8.82
8.13
7.17
6.19
5.36
4.70
4.05
3.22
2.16
0.94
-0.30
-1.40
-2.34
-3.14
-3.91
-4.66
-5.41
-6.11
-6.77
-7.42
-8.08
-8.69
-9.13
-9.23
-8.91
-8.20
-7.36
-6.73
-6.55
-6.88
-7.54
-8.30
-8.98
-9.61
-10.34
-11.37
-12.76
-14.39
-15.96
-17.12
-17.57
-17.21
-16.14
-14.57
-12.77
-11.00
-9.40
-8.04
-6.92
-5.98
-5.11
-4.23
-3.23
-2.07
-0.80
0.51
1.71
2.69
3.43
4.01
4.56
5.18
5.86
6.44
6.73
6.51
5.73
4.49
2.99
1.54
0.38
-0.33
-0.57
-0.49
-0.29
-0.19
-0.32
-0.70
-1.19
-1.62
-1.80
-1.70
-1.39
-0.99
-0.56
-0.03
0.80
2.09
3.75
5.40
6.44
6.33
4.87
2.31
-0.72
-3.57
-5.77
-7.22
-8.16
-8.90
-9.64
-10.43
-11.17
-11.80
-12.32
-12.79
-13.24
-13.55
-13.49
-12.85
-11.53
-9.64
-7.43
-5.23
-3.28
-1.72
-0.54
0.35
1.06
1.69
2.27
2.81
3.25
3.56
3.74
3.81
3.92
4.21
4.73
5.42
6.08
6.41
6.15
5.14
3.38
1.02
-1.64
-4.25
-6.52
-8.21
-9.16
-9.33
-8.75
-7.61
-6.21
-4.92
-4.07
-3.82
-4.08
-4.54
-4.82
-4.66
-4.11
-3.55
-3.44
-4.11
-5.51
-7.24
-8.77
-9.71
-10.05
-10.22
-10.85
-12.53
-15.56
-19.83
-24.97
-30.40
-35.68
-40.46
-44.62
-48.21
-51.51
-54.90
-58.80
-63.36
-68.16
-72.07
-73.35
-70.21
-61.54
-47.48
-29.67
-10.76
6.43
19.72
28.17
32.03
32.31
30.24
26.79
22.51
17.68
12.44
6.88
1.09
-4.79
-10.61
-16.01
-20.35
-22.66
-21.91
-17.32
-8.61
3.65
18.23
33.38
47.19
58.10
65.19
68.39
68.44
66.62
64.30
62.43
61.35
60.74
59.96
58.46
56.05
52.97
49.66
46.55
43.85
41.59
39.76
38.37
37.48
37.09
37.04
37.00
36.58
35.50
33.69
31.25
28.39
25.24
21.69
17.48
12.30
5.96
-1.53
-9.87
-18.56
-27.00
-34.57
-40.79
-45.37
-48.23
-49.51
-49.44
-48.23
-46.05
-42.97
-39.07
-34.53
-29.72
-25.06
-20.97
-17.61
-14.86
-12.40
-9.89
-7.15
-4.30
-1.69
0.29
1.45
1.85
1.77
1.47
1.12
0.67
-0.01
-1.00
-2.23
-3.51
-4.57
-5.13
-5.03
-4.10
-2.40
-0.07
2.46
4.70
6.15
6.54
5.96
4.74
3.30
2.00
1.01
0.35
-0.05
-0.34
-0.67
-1.16
-1.96
-3.11
-4.62
-6.33
-8.10
-9.75
-11.11
-12.04
-12.40
-12.16
-11.38
-10.29
-9.19
-8.32
-7.81
-7.58
-7.46
-7.26
-6.94
-6.50
-6.02
-5.53
-4.96
-4.20
-3.12
-1.69
-0.04
1.63
3.13
4.40
5.66
7.28
9.72
13.20
17.69
22.94
28.58
34.40
40.32
46.24
51.83
56.36
58.94
58.73
55.39
49.10
40.57
30.82
20.97
12.18
5.56
2.10
2.39
6.42
13.36
21.71
29.48
34.73
35.81
31.75
22.37
8.28
-9.11
-27.91
-45.95
-61.33
-72.59
-79.01
-80.64
-78.15
-72.75
-65.95
-59.38
-54.40
-51.90
-51.90
-53.53
-55.21
-55.21
-52.34
-46.47
-38.65
-30.69
-24.50
-21.27
-21.15
-23.28
-26.25
-28.74
-29.85
-29.33
-27.34
-24.34
-20.86
-17.46
-14.70
-13.11
-13.03
-14.48
-17.05
-20.01
-22.52
-23.93
-23.93
-22.59
-20.33
-17.59
-14.79
-12.22
-10.01
-8.19
-6.67
-5.20
-3.43
-1.00
2.21
5.99
9.79
12.95
14.95
15.69
15.51
14.98
14.65
14.78
15.23
15.62
15.56
14.83
13.48
11.71
9.80
7.91
6.06
4.16
2.09
-0.15
-2.47
-4.73
-6.87
-8.89
-10.91
-12.94
-14.96
-16.82
-18.41
-19.75
-20.99
-22.34
-24.01
-26.05
-28.37
-30.89
-33.55
-36.37
-39.42
-42.68
-46.06
-49.52
-53.11
-56.97
-61.22
-65.65
-69.64
-72.22
-72.37
-69.46
-63.64
-55.82
-47.34
-39.46
-32.91
-27.62
-22.98
-18.18
-12.53
-5.67
2.45
11.74
22.08
33.39
45.63
58.69
72.29
85.99
99.11
110.85
120.43
127.22
130.81
131.09
128.22
122.60
114.81
105.58
95.73
86.01
76.95
68.80
61.44
54.58
47.90
41.29
34.85
28.95
23.86
19.69
16.15
12.63
8.39
2.94
-3.71
-10.98
-17.85
-23.32
-26.67
-27.69
-26.61
-23.93
-20.20
-15.94
-11.70
-8.00
-5.36
-4.08
-4.15
-5.18
-6.51
-7.44
-7.47
-6.49
-4.67
-2.44
-0.22
1.69
3.27
4.74
6.45
8.76
11.84
15.60
19.67
23.48
26.40
27.97
28.01
26.63
24.25
21.41
18.71
16.63
15.49
15.35
16.11
17.37
18.67
19.57
19.81
19.43
18.68
17.95
17.52
17.47
17.58
17.49
16.78
15.22
12.87
10.05
7.18
4.59
2.40
0.48
-1.43
-3.59
-6.01
-8.48
-10.62
-12.07
-12.71
-12.68
-12.38
-12.21
-12.45
-13.11
-14.03
-15.07
-16.15
-17.34
-18.72
-20.33
-22.02
-23.58
-24.86
-25.87
-26.77
-27.68
-28.57
-29.14
-28.95
-27.55
-24.70
-20.43
-15.01
-8.83
-2.25
4.47
11.27
18.15
25.23
32.69
40.72
49.48
58.99
68.98
78.82
87.57
94.25
98.15
99.15
97.67
94.52
90.39
85.67
80.26
73.76
65.75
56.02
44.68
32.13
18.97
5.90
-6.31
-16.94
-25.44
-31.51
-35.23
-36.97
-37.33
-36.87
-36.11
-35.28
-34.44
-33.50
-32.29
-30.71
-28.77
-26.62
-24.54
-22.77
-21.45
-20.62
-20.22
-20.20
-20.50
-21.10
-21.92
-22.77
-23.43
-23.69
-23.47
-22.93
-22.29
-21.80
-21.57
-21.58
-21.65
-21.67
-21.44
-20.71
-19.24
-16.76
-13.36
-9.45
-5.85
-3.42
-2.64
-3.46
-5.27
-7.26
-8.72
-9.35
-9.16
-8.30
-6.91
-5.08
-3.06
-1.28
-0.38
-0.90
-3.05
-6.46
-10.33
-13.71
-15.90
-16.70
-16.43
-15.75
-15.38
-15.84
-17.28
-19.57
-22.38
-25.34
-28.08
-30.27
-31.65
-31.95
-30.96
-28.62
-25.03
-20.52
-15.50
-10.44
-5.75
-1.84
0.91
2.10
1.49
-0.75
-3.93
-6.86
-8.27
-7.23
-3.64
1.84
7.90
13.21
16.86
18.57
18.64
17.64
16.15
14.56
13.09
11.85
10.97
10.53
10.52
10.70
10.75
10.32
9.23
7.65
5.91
4.48
3.73
3.82
4.67
6.12
7.96
9.95
11.80
13.16
13.68
13.17
11.69
9.61
7.51
5.94
5.25
5.52
6.55
8.01
9.57
10.96
12.00
12.52
12.39
11.53
10.05
8.17
6.31
4.90
4.20
4.16
4.41
4.38
3.57
1.76
-0.87
-3.85
-6.68
-9.04
-10.82
-12.08
-12.87
-13.11
-12.66
-11.44
-9.53
-7.22
-4.89
-2.81
-1.08
0.37
1.67
2.89
3.94
4.63
4.77
4.26
3.19
1.77
0.36
-0.72
-1.24
-1.19
-0.66
0.12
0.94
1.62
1.93
1.72
0.80
-0.83
-3.04
-5.43
-7.60
-9.21
-10.12
-10.54
-10.75
-10.95
-11.16
-11.21
-10.88
-10.04
-8.69
-6.98
-5.10
-3.24
-1.54
-0.18
0.69
0.91
0.45
-0.48
-1.49
-2.10
-1.92
-0.82
0.95
2.98
4.78
6.01
6.56
6.53
6.11
5.49
4.77
3.93
2.98
1.92
0.86
-0.09
-0.83
-1.36
-1.76
-2.18
-2.68
-3.28
-3.92
-4.48
-4.87
-5.09
-5.17
-5.18
-5.17
-5.21
-5.41
-5.91
-6.76
-7.78
-8.68
-9.04
-8.68
-7.70
-6.56
-5.77
-5.71
-6.40
-7.55
-8.81
-9.86
-10.60
-11.01
-11.16
-11.08
-10.83
-10.61
-10.69
-11.31
-12.60
-14.45
-16.60
-18.84
-21.14
-23.66
-26.66
-30.36
-34.78
-39.85
-45.46
-51.55
-58.12
-65.20
-72.74
-80.55
-88.33
-95.70
-102.19
-107.31
-110.50
-111.23
-109.04
-103.78
-95.57
-84.92
-72.57
-59.38
-46.10
-33.24
-21.01
-9.24
2.36
14.16
26.41
39.23
52.44
65.68
78.34
89.57
98.51
104.44
107.07
106.60
103.76
99.49
94.65
89.80
85.17
80.79
76.61
72.65
69.06
65.91
63.16
60.61
57.93
54.83
51.19
47.13
42.99
39.09
35.59
32.42
29.23
25.64
21.38
16.49
11.17
5.75
0.53
-4.34
-8.80
-12.81
-16.27
-19.01
-20.92
-21.97
-22.29
-22.10
-21.58
-20.75
-19.52
-17.71
-15.20
-12.14
-8.89
-5.93
-3.66
-2.16
-1.15
-0.16
1.25
3.22
5.55
7.84
9.70
11.04
11.99
12.83
13.74
14.65
15.29
15.32
14.57
13.09
11.15
9.12
7.28
5.82
4.75
4.01
3.55
3.31
3.20
3.09
2.78
2.08
0.81
-1.00
-3.22
-5.56
-7.70
-9.41
-10.60
-11.44
-12.19
-13.23
-14.83
-17.07
-19.79
-22.62
-25.11
-26.90
-27.88
-28.19
-28.16
-28.10
-28.13
-28.19
-28.02
-27.38
-26.12
-24.32
-22.27
-20.38
-18.97
-18.21
-18.01
-18.06
-17.88
-17.10
-15.46
-13.01
-10.03
-6.99
-4.40
-2.64
-1.79
-1.50
-1.03
0.55
3.99
9.47
16.45
23.75
30.05
34.33
36.23
36.03
34.42
32.12
29.66
27.25
24.95
22.76
20.73
18.90
17.33
16.03
15.03
14.39
14.21
14.50
15.19
16.08
16.87
17.30
17.25
16.77
16.06
15.39
14.84
14.35
13.69
12.66
11.29
9.85
8.77
8.41
8.87
9.85
10.90
11.52
11.42
10.53
8.94
6.75
3.97
0.57
-3.46
-7.94
-12.55
-16.86
-20.47
-23.15
-24.85
-25.73
-26.00
-25.91
-25.62
-25.25
-24.93
-24.78
-24.94
-25.58
-26.70
-28.07
-29.33
-29.99
-29.59
-27.98
-25.27
-21.91
-18.48
-15.52
-13.33
-11.92
-11.04
-10.28
-9.31
-7.95
-6.21
-4.26
-2.29
-0.45
1.20
2.62
3.76
4.55
4.91
4.84
4.47
4.01
3.65
3.48
3.46
3.45
3.35
3.24
3.30
3.71
4.51
5.53
6.38
6.67
6.13
4.72
2.63
0.16
-2.37
-4.70
-6.66
-8.24
-9.50
-10.56
-11.51
-12.39
-13.11
-13.48
-13.28
-12.36
-10.69
-8.46
-5.87
-3.16
-0.49
1.99
4.12
5.66
6.34
6.01
4.75
2.96
1.19
0.01
-0.31
0.20
1.18
2.17
2.82
2.98
2.74
2.36
2.12
2.24
2.82
3.79
4.97
6.14
7.11
7.77
8.11
8.17
7.92
7.31
6.30
4.91
3.25
1.51
-0.11
-1.54
-2.78
-3.92
-5.05
-6.24
-7.46
-8.62
-9.51
-9.93
-9.70
-8.77
-7.27
-5.48
-3.79
-2.48
-1.61
-1.06
-0.49
0.38
1.70
3.36
5.10
6.60
7.65
8.21
8.49
8.80
9.41
10.43
11.76
13.12
14.25
14.96
15.18
14.93
14.22
13.01
11.28
9.14
6.83
4.72
3.15
2.25
1.93
1.92
1.95
1.85
1.65
1.49
1.52
1.81
2.31
2.84
3.19
3.20
2.83
2.17
1.44
0.97
1.13
2.30
4.82
8.90
14.50
21.30
28.67
35.85
42.16
47.15
50.70
52.91
53.97
53.98
52.97
50.98
48.20
44.94
41.57
38.34
35.24
32.02
28.37
24.04
19.02
13.50
7.77
2.08
-3.44
-8.72
-13.71
-18.27
-22.27
-25.52
-27.95
-29.59
-30.59
-31.15
-31.48
-31.74
-31.95
-32.14
-32.29
-32.42
-32.50
-32.58
-32.61
-32.63
-32.64
-32.67
-32.80
-32.97
-33.08
-32.90
-32.19
-30.76
-28.59
-25.81
-22.66
-19.36
-16.08
-12.93
-9.97
-7.22
-4.70
-2.38
-0.24
1.73
3.35
4.42
4.66
3.95
2.43
0.44
-1.51
-2.99
-3.71
-3.69
-3.09
-2.18
-1.27
-0.67
-0.64
-1.31
-2.70
-4.49
-6.24
-7.41
-7.67
-7.02
-5.92
-5.16
-5.58
-7.82
-12.04
-17.96
-24.84
-31.96
-38.75
-45.01
-50.87
-56.58
-62.32
-67.93
-73.04
-77.12
-79.75
-80.87
-80.68
-79.61
-78.17
-76.76
-75.40
-73.44
-69.47
-61.56
-48.04
-28.33
-3.69
22.87
47.34
65.97
76.42
78.34
73.20
63.64
52.80
43.67
38.67
39.23
45.45
55.95
68.23
79.51
87.71
92.17
93.56
93.30
92.74
92.43
92.02
90.53
86.94
80.64
71.63
60.48
48.10
35.58
23.94
13.95
6.04
0.11
-4.40
-8.38
-12.71
-17.91
-24.02
-30.63
-36.95
-42.12
-45.35
-46.02
-43.89
-39.09
-32.22
-24.25
-16.41
-9.87
-5.55
-3.90
-4.85
-7.76
-11.49
-14.59
-15.67
-13.94
-9.56
-3.73
1.83
5.58
6.85
6.08
4.39
2.99
2.61
3.34
4.83
6.65
8.55
10.44
12.35
14.23
16.01
17.59
18.83
19.48
19.31
18.31
16.97
16.22
17.04
19.99
24.81
30.42
35.51
39.10
40.94
41.37
40.88
39.69
37.66
34.59
30.52
25.96
21.70
18.50
16.79
16.57
17.50
19.05
20.61
21.58
21.51
20.23
17.94
15.09
12.31
10.08
8.57
7.70
7.20
6.91
6.78
6.94
7.50
8.40
9.43
10.16
10.11
8.92
6.42
2.67
-1.99
-7.07
-11.94
-16.02
-18.92
-20.49
-20.92
-20.60
-20.05
-19.73
-19.94
-20.76
-22.07
-23.71
-25.54
-27.44
-29.36
-31.17
-32.63
-33.42
-33.17
-31.57
-28.57
-24.33
-19.21
-13.69
-8.21
-3.18
1.09
4.43
6.74
8.17
9.00
9.67
10.62
12.12
14.14
16.36
18.27
19.40
19.47
18.53
16.94
15.25
14.06
13.79
14.59
16.30
18.47
20.51
21.83
22.09
21.24
19.60
17.52
15.33
13.16
10.88
8.29
5.17
1.45
-2.61
-6.45
-9.28
-10.28
-8.86
-4.95
1.06
8.38
16.04
23.25
29.43
34.18
37.11
37.76
35.64
30.62
23.06
13.94
4.49
-4.15
-11.28
-16.68
-20.35
-22.51
-23.37
-23.37
-23.23
-23.89
-26.35
-31.14
-38.23
-46.80
-55.33
-61.84
-64.26
-60.98
-51.61
-37.49
-21.60
-7.89
0.07
0.39
-6.58
-18.56
-32.39
-45.21
-55.19
-61.43
-63.60
-61.44
-54.79
-43.96
-30.08
-15.30
-2.23
6.89
11.03
10.75
7.78
4.12
1.10
-1.02
-2.87
-5.30
-8.60
-12.36
-15.67
-17.71
-18.21
-17.50
-16.24
-15.06
-14.24
-13.80
-13.59
-13.54
-13.70
-14.12
-14.85
-15.78
-16.73
-17.57
-18.22
-18.79
-19.47
-20.32
-21.25
-21.98
-22.17
-21.68
-20.77
-20.04
-20.30
-22.14
-25.57
-29.78
-33.00
-32.94
-27.28
-14.54
5.32
30.66
58.48
85.26
107.87
124.29
133.81
136.91
134.66
128.29
118.89
107.36
94.43
80.73
66.86
53.39
40.80
29.43
19.47
10.90
3.49
-2.96
-8.64
-13.56
-17.65
-20.81
-23.02
-24.37
-24.98
-25.07
-24.93
-25.09
-26.13
-28.52
-32.30
-36.91
-41.27
-44.21
-45.00
-43.65
-40.97
-38.05
-35.81
-34.57
-34.05
-33.69
-33.02
-31.89
-30.40
-28.68
-26.65
-24.00
-20.45
-15.90
-10.68
-5.40
-0.81
2.63
4.82
6.01
6.60
6.93
7.16
7.31
7.32
7.12
6.62
5.73
4.39
2.75
1.18
0.22
0.31
1.53
3.48
5.43
6.64
6.67
5.62
3.95
2.20
0.74
-0.39
-1.34
-2.27
-3.23
-4.16
-4.85
-5.16
-4.96
-4.25
-3.02
-1.32
0.82
3.29
5.91
8.50
10.79
12.58
13.75
14.31
14.41
14.30
14.20
14.26
14.50
14.80
15.01
14.98
14.58
13.76
12.56
11.11
9.65
8.48
7.86
7.93
8.58
9.45
9.98
9.60
7.98
5.17
1.69
-1.66
-4.06
-4.96
-4.31
-2.43
0.05
2.51
4.47
5.70
6.18
6.02
5.43
4.73
4.22
4.17
4.74
5.86
7.30
8.78
9.97
10.69
10.84
10.50
9.83
9.07
8.43
8.03
7.81
7.62
7.24
6.52
5.40
3.98
2.48
1.16
0.30
0.07
0.48
1.35
2.34
3.06
3.23
2.80
1.96
1.01
0.22
-0.30
-0.60
-0.76
-0.82
-0.68
-0.18
0.86
2.44
4.35
6.22
7.69
8.47
8.54
8.10
7.46
6.95
6.75
6.93
7.42
8.10
8.86
9.48
9.64
9.00
7.23
4.28
0.40
-3.92
-8.14
-11.89
-15.08
-17.83
-20.23
-22.23
-23.53
-23.77
-22.78
-20.78
-18.35
-16.19
-14.81
-14.33
-14.37
-14.37
-13.75
-12.18
-9.62
-6.29
-2.51
1.37
5.10
8.45
11.30
13.65
15.67
17.68
19.96
22.65
25.61
28.48
30.78
32.11
32.23
31.19
29.13
26.32
22.99
19.43
15.85
12.40
9.03
5.41
1.08
-4.44
-11.35
-19.42
-28.00
-36.14
-42.82
-47.17
-48.63
-47.00
-42.52
-35.85
-28.06
-20.38
-14.02
-9.92
-8.54
-9.85
-13.24
-17.76
-22.23
-25.56
-26.97
-26.22
-23.62
-19.78
-15.45
-11.17
-7.18
-3.57
-0.38
2.28
4.26
5.50
6.13
6.40
6.59
6.86
7.23
7.53
7.55
7.13
6.19
4.72
2.84
0.76
-1.24
-2.88
-3.93
-4.28
-3.96
-3.06
-1.64
0.23
2.51
5.09
7.77
10.23
12.19
13.49
14.16
14.46
14.66
15.01
15.56
16.24
16.89
17.36
17.57
17.46
17.07
16.40
15.51
14.52
13.60
12.92
12.61
12.66
12.86
12.93
12.56
11.50
9.63
7.03
4.00
0.98
-1.57
-3.36
-4.54
-5.71
-7.82
-11.68
-17.65
-25.32
-33.63
-41.15
-46.52
-48.80
-47.64
-43.31
-36.69
-29.10
-22.01
-16.77
-14.19
-14.35
-16.71
-20.43
-24.67
-28.85
-32.66
-35.85
-38.21
-39.73
-40.82
-42.36
-45.41
-50.64
-57.85
-65.93
-73.19
-78.00
-79.48
-77.59
-72.94
-66.37
-58.47
-49.61
-40.16
-30.63
-21.77
-14.19
-7.98
-2.49
3.44
10.98
20.64
31.92
43.49
53.56
60.64
63.95
63.56
60.24
55.14
49.38
43.89
39.24
35.62
32.96
31.03
29.61
28.52
27.69
27.04
26.52
26.08
25.68
25.41
25.40
25.71
26.25
26.74
26.87
26.39
25.28
23.73
22.05
20.52
19.29
18.33
17.46
16.46
15.20
13.70
12.12
10.72
9.71
9.11
8.77
8.41
7.77
6.74
5.46
4.27
3.65
4.02
5.64
8.56
12.55
17.17
21.85
26.00
29.11
30.83
31.08
30.00
27.88
25.10
21.97
18.76
15.60
12.49
9.25
5.58
1.21
-4.01
-9.76
-15.37
-19.97
-23.01
-24.62
-25.79
-27.99
-32.46
-39.56
-48.30
-56.71
-62.50
-63.94
-60.43
-52.59
-41.86
-29.93
-18.27
-7.88
0.70
7.31
12.06
15.30
17.57
19.44
21.35
23.47
25.68
27.71
29.33
30.55
31.55
32.54
33.56
34.44
34.81
34.38
33.10
31.21
29.02
26.73
24.22
21.13
17.03
11.66
5.09
-2.43
-10.52
-18.74
-26.46
-32.68
-36.09
-35.63
-31.14
-23.87
-16.27
-11.10
-10.15
-13.46
-19.40
-25.61
-30.33
-33.26
-35.41
-38.08
-41.76
-45.45
-47.03
-44.30
-36.08
-22.78
-6.17
11.34
27.55
40.96
50.74
56.43
57.77
54.65
47.45
37.32
26.20
16.34
9.57
6.75
7.42
10.19
13.40
15.66
16.36
15.63
14.09
12.48
11.35
10.90
10.89
10.70
9.58
6.88
2.36
-3.65
-10.34
-16.65
-21.76
-25.25
-27.14
-27.70
-27.12
-25.54
-23.10
-20.12
-17.19
-14.94
-13.79
-13.71
-14.31
-15.07
-15.66
-16.11
-16.67
-17.46
-18.31
-18.72
-18.16
-16.38
-13.56
-10.27
-7.24
-5.04
-3.89
-3.66
-3.94
-4.29
-4.36
-4.04
-3.40
-2.66
-2.06
-1.67
-1.44
-1.19
-0.67
0.27
1.64
3.28
4.88
6.18
7.11
8.10
10.11
14.52
22.67
35.31
52.14
71.53
90.80
106.78
116.78
119.24
114.17
103.06
88.38
72.97
59.34
49.44
44.36
44.41
49.03
56.84
65.73
73.11
76.44
73.77
64.29
48.63
28.74
7.56
-11.63
-25.98
-33.70
-34.55
-29.83
-21.95
-13.93
-8.63
-8.20
-13.45
-23.54
-35.90
-46.76
-52.36
-50.44
-41.31
-28.28
-16.70
-12.01
-17.59
-33.24
-55.14
-77.28
-93.72
-100.63
-97.44
-86.52
-71.94
-57.82
-47.17
-41.41
-40.40
-43.08
-47.74
-52.30
-54.46
-51.64
-41.06
-20.04
13.17
58.10
110.85
163.84
207.14
231.37
231.14
207.17
166.00
117.22
69.38
26.96
-10.30
-45.63
-82.32
-121.36
-160.96
-197.74
-228.54
-251.66
-266.91
-274.69
-275.16
-267.85
-252.17
-228.24
-197.40
-161.99
-124.40
-85.87
-46.08
-3.85
40.86
85.41
124.14
150.12
158.33
148.42
125.57
98.69
76.83
65.41
64.34
68.70
71.68
67.99
56.28
39.62
24.17
16.72
22.19
41.74
72.00
105.75
133.85
148.13
143.81
120.90
83.96
40.48
-1.40
-35.01
-56.25
-63.97
-59.69
-46.97
-30.69
-16.12
-7.76
-8.38
-18.37
-35.91
-57.56
-79.54
-98.56
-112.49
-120.50
-122.92
-121.05
-116.86
-112.49
-109.71
-109.37
-111.07
-113.38
-114.50
-112.79
-107.28
-97.44
-82.97
-63.94
-41.50
-18.58
0.08
9.35
6.18
-8.31
-28.19
-44.57
-49.17
-37.70
-11.46
23.87
61.21
95.16
123.13
144.72
159.76
167.09
164.92
152.40
131.16
105.73
82.29
66.27
60.20
62.80
69.80
76.01
77.43
72.56
62.57
50.40
39.28
31.47
27.49
26.18
25.49
23.43
18.91
11.99
3.56
-5.07
-12.52
-17.61
-19.19
-16.25
-8.01
5.76
24.29
45.64
66.72
83.88
93.58
93.28
82.14
61.38
34.10
4.23
-24.57
-49.81
-70.56
-86.71
-97.97
-103.04
-100.06
-87.93
-68.10
-45.18
-25.85
-16.23
-19.00
-32.16
-49.93
-65.08
-71.62
-66.46
-49.59
-23.45
7.97
39.84
66.92
84.28
88.40
78.07
54.83
22.52
-13.84
-49.18
-79.01
-99.87
-109.73
-108.13
-96.55
-78.24
-57.36
-37.92
-22.76
-13.01
-8.06
-6.17
-5.12
-2.73
2.95
13.55
30.12
52.72
79.68
107.25
129.88
141.64
138.09
118.08
84.30
42.57
0.08
-36.54
-62.57
-75.83
-76.59
-67.12
-51.04
-32.60
-15.89
-3.91
2.11
2.81
0.28
-2.80
-4.23
-2.94
0.92
6.27
11.67
15.86
18.14
18.54
17.73
16.57
15.67
15.07
14.30
12.80
10.50
7.97
6.10
5.37
5.20
3.96
-0.13
-7.84
-18.21
-28.72
-36.63
-40.25
-39.79
-36.85
-33.35
-30.27
-27.39
-23.76
-18.76
-12.78
-7.00
-2.59
0.28
2.74
6.48
12.50
20.09
26.80
29.55
26.36
17.43
5.18
-6.92
-16.03
-21.06
-22.64
-22.06
-20.11
-16.35
-9.72
0.51
13.70
27.72
39.63
46.75
47.67
42.58
33.16
21.96
11.66
4.48
1.81
4.07
10.71
20.40
31.29
41.44
49.10
53.10
52.98
49.05
42.27
33.99
25.63
18.42
13.13
10.03
8.86
9.06
9.82
10.33
9.93
8.26
5.37
1.59
-2.52
-6.41
-9.69
-12.27
-14.35
-16.24
-18.22
-20.37
-22.53
-24.46
-26.00
-27.12
-27.94
-28.60
-29.05
-29.04
-28.14
-25.92
-22.08
-16.63
-9.88
-2.35
5.26
12.18
17.71
21.37
23.10
23.36
22.99
22.99
24.15
26.80
30.65
35.02
39.09
42.21
43.97
44.23
42.97
40.24
36.18
31.11
25.51
19.97
14.97
10.74
7.21
4.15
1.31
-1.44
-4.11
-6.65
-9.09
-11.53
-14.11
-16.83
-19.55
-22.00
-24.01
-25.58
-26.89
-28.25
-29.87
-31.70
-33.42
-34.57
-34.83
-34.19
-32.89
-31.36
-29.90
-28.64
-27.52
-26.39
-25.17
-23.90
-22.67
-21.52
-20.41
-19.23
-17.86
-16.33
-14.78
-13.40
-12.30
-11.46
-10.69
-9.77
-8.60
-7.21
-5.85
-4.80
-4.25
-4.20
-4.54
-5.12
-5.81
-6.56
-7.35
-8.11
-8.76
-9.25
-9.60
-9.90
-10.28
-10.82
-11.52
-12.31
-13.05
-13.62
-13.85
-13.62
-12.82
-11.48
-9.70
-7.69
-5.66
-3.81
-2.27
-1.10
-0.42
-0.18
-0.34
-0.70
-1.02
-1.04
-0.62
0.27
1.63
3.39
5.48
7.80
10.23
12.60
14.76
16.63
18.22
19.47
20.26
20.35
19.48
17.51
14.56
11.05
7.58
4.73
2.86
2.03
2.02
2.44
2.87
2.97
2.59
1.79
0.78
-0.06
-0.35
0.16
1.55
3.62
6.03
8.36
10.27
11.56
12.14
12.08
11.49
10.49
9.22
7.75
6.15
4.39
2.40
0.02
-2.90
-6.46
-10.62
-15.14
-19.61
-23.48
-26.30
-27.76
-27.83
-26.74
-24.86
-22.52
-19.99
-17.38
-14.80
-12.35
-10.11
-8.18
-6.58
-5.28
-4.17
-3.08
-1.94
-0.75
0.33
1.07
1.28
0.86
-0.02
-0.98
-1.54
-1.34
-0.24
1.61
3.89
6.24
8.41
10.32
11.95
13.29
14.28
14.91
15.20
15.33
15.47
15.76
16.21
16.62
16.77
16.48
15.72
14.63
13.41
12.22
11.11
10.03
8.81
7.35
5.62
3.71
1.80
0.09
-1.27
-2.23
-2.81
-3.18
-3.48
-3.86
-4.43
-5.22
-6.19
-7.30
-8.45
-9.59
-10.65
-11.60
-12.45
-13.26
-14.07
-14.93
-15.74
-16.38
-16.73
-16.72
-16.40
-15.89
-15.24
-14.43
-13.35
-11.91
-10.17
-8.33
-6.69
-5.45
-4.69
-4.28
-4.02
-3.75
-3.38
-2.86
-2.16
-1.26
-0.18
0.99
2.13
3.15
4.01
4.76
5.46
6.12
6.68
7.05
7.19
7.15
7.05
7.01
7.03
6.99
6.67
5.97
4.90
3.67
2.56
1.72
1.18
0.83
0.42
-0.22
-1.17
-2.39
-3.78
-5.18
-6.43
-7.32
-7.66
-7.32
-6.32
-4.83
-3.12
-1.46
-0.03
1.11
1.96
2.49
2.62
2.36
1.82
1.29
1.08
1.38
2.11
3.01
3.78
4.23
4.45
4.64
4.99
5.52
6.03
6.26
5.98
5.19
4.07
2.89
1.91
1.28
0.93
0.73
0.46
-0.02
-0.74
-1.61
-2.45
-3.12
-3.53
-3.78
-3.95
-4.16
-4.44
-4.81
-5.26
-5.82
-6.52
-7.30
-7.93
-8.11
-7.55
-6.13
-4.04
-1.64
0.61
2.47
3.89
4.95
5.75
6.24
6.24
5.65
4.57
3.34
2.37
1.97
2.19
2.77
3.32
3.54
3.36
2.94
2.59
2.59
3.02
3.78
4.58
5.13
5.23
4.80
3.92
2.76
1.48
0.13
-1.31
-2.91
-4.67
-6.54
-8.38
-10.07
-11.59
-13.04
-14.60
-16.48
-18.75
-21.29
-23.78
-25.84
-27.17
-27.68
-27.51
-26.92
-26.19
-25.48
-24.78
-24.05
-23.26
-22.52
-22.02
-21.86
-21.91
-21.75
-20.73
-18.28
-14.01
-7.95
-0.43
7.95
16.49
24.43
30.99
35.42
37.22
36.34
33.26
28.95
24.43
20.41
16.96
13.63
9.71
4.69
-1.39
-7.97
-14.17
-19.19
-22.55
-24.28
-24.77
-24.62
-24.34
-24.20
-24.10
-23.58
-21.81
-17.85
-10.85
-0.34
13.43
29.33
45.41
59.36
69.07
73.37
72.32
67.19
59.88
52.26
45.49
39.79
34.67
29.34
23.25
16.36
9.16
2.46
-2.94
-6.50
-8.03
-7.66
-5.70
-2.52
1.48
5.96
10.46
14.55
17.81
20.00
21.10
21.36
21.21
21.04
21.12
21.44
21.82
22.05
22.00
21.72
21.26
20.56
19.34
17.26
14.08
9.90
5.06
0.08
-4.64
-8.90
-12.64
-15.85
-18.45
-20.28
-21.24
-21.45
-21.21
-20.88
-20.74
-20.90
-21.28
-21.73
-22.13
-22.46
-22.78
-23.16
-23.65
-24.26
-24.96
-25.67
-26.27
-26.64
-26.68
-26.31
-25.59
-24.67
-23.75
-22.94
-22.14
-21.04
-19.14
-15.96
-11.24
-5.08
1.99
9.18
15.58
20.33
22.83
22.95
21.21
18.81
17.45
18.87
24.23
33.61
45.81
58.69
69.89
77.60
80.96
79.89
74.72
65.73
53.21
37.77
20.65
3.76
-10.76
-21.14
-26.50
-26.90
-23.14
-16.38
-7.87
1.19
9.57
16.13
20.01
20.84
18.72
14.19
8.01
1.01
-5.94
-12.01
-16.59
-19.45
-20.84
-21.46
-22.15
-23.59
-25.99
-29.12
-32.40
-35.27
-37.37
-38.64
-39.30
-39.56
-39.56
-39.25
-38.52
-37.22
-35.29
-32.76
-29.70
-26.22
-22.50
-18.80
-15.44
-12.67
-10.55
-8.83
-7.08
-4.98
-2.52
-0.08
1.74
2.41
1.91
0.86
0.38
1.75
6.12
14.13
25.81
40.31
56.00
70.59
81.69
87.43
87.01
80.97
70.85
58.57
45.81
33.56
22.26
12.07
3.15
-4.31
-10.25
-14.97
-19.06
-23.12
-27.39
-31.55
-34.90
-36.71
-36.70
-35.27
-33.26
-31.48
-30.17
-28.79
-26.30
-21.81
-15.23
-7.48
-0.09
5.43
8.37
8.96
8.08
6.65
5.18
3.70
2.07
0.27
-1.38
-2.36
-2.34
-1.47
-0.40
0.00
-1.02
-3.81
-8.22
-13.72
-19.45
-24.33
-27.07
-26.41
-21.39
-11.79
1.53
16.51
30.13
39.16
41.01
34.60
20.76
2.10
-17.69
-34.85
-46.45
-51.04
-48.76
-41.02
-29.80
-17.14
-4.81
5.71
13.14
16.34
14.63
8.15
-2.01
-13.92
-25.35
-34.37
-39.88
-41.60
-39.91
-35.43
-28.88
-21.05
-12.66
-4.24
4.14
12.98
23.05
34.70
47.32
59.27
68.46
73.35
73.75
70.94
66.92
63.44
61.16
59.56
57.58
54.47
50.26
45.73
41.83
39.11
37.54
36.62
35.76
34.59
32.94
30.69
27.64
23.46
17.89
10.88
2.74
-5.94
-14.43
-21.99
-27.98
-31.91
-33.61
-33.26
-31.47
-29.07
-26.80
-24.99
-23.49
-21.73
-19.10
-15.25
-10.23
-4.48
1.40
6.77
11.04
13.79
14.71
13.76
11.19
7.53
3.46
-0.50
-4.05
-7.25
-10.32
-13.36
-16.24
-18.60
-20.09
-20.61
-20.54
-20.48
-21.08
-22.61
-24.83
-27.17
-28.99
-29.96
-30.24
-30.34
-30.76
-31.69
-32.82
-33.51
-33.10
-31.22
-28.01
-24.06
-20.11
-16.85
-14.68
-13.73
-13.90
-15.08
-17.10
-19.76
-22.67
-25.36
-27.25
-27.94
-27.35
-25.75
-23.65
-21.57
-19.80
-18.32
-16.86
-15.13
-13.06
-10.82
-8.77
-7.27
-6.47
-6.32
-6.59
-6.93
-7.06
-6.77
-5.99
-4.77
-3.28
-1.81
-0.69
-0.25
-0.61
-1.71
-3.24
-4.73
-5.68
-5.77
-4.92
-3.31
-1.33
0.62
2.13
3.01
3.25
3.06
2.70
2.48
2.62
3.20
4.17
5.30
6.33
6.92
6.80
5.84
4.09
1.80
-0.66
-2.90
-4.71
-6.02
-6.96
-7.71
-8.35
-8.78
-8.78
-8.17
-6.87
-5.06
-3.10
-1.38
-0.17
0.46
0.60
0.51
0.38
0.36
0.50
0.79
1.32
2.19
3.53
5.31
7.34
9.21
10.46
10.75
10.05
8.66
7.06
5.73
4.93
4.63
4.59
4.54
4.31
3.90
3.37
2.77
2.04
1.06
-0.23
-1.82
-3.54
-5.08
-6.13
-6.43
-5.81
-4.25
-1.92
0.82
3.50
5.61
6.76
6.83
6.07
4.97
4.06
3.69
3.89
4.40
4.89
5.16
5.21
5.22
5.48
6.14
7.17
8.33
9.29
9.80
9.73
9.14
8.24
7.24
6.28
5.37
4.41
3.31
2.06
0.81
-0.22
-0.85
-1.09
-1.11
-1.16
-1.45
-1.99
-2.66
-3.29
-3.71
-3.93
-3.98
-3.92
-3.72
-3.30
-2.59
-1.64
-0.62
0.32
1.03
1.49
1.80
2.09
2.50
3.13
4.01
5.15
6.53
8.09
9.80
11.48
12.96
13.97
14.31
13.89
12.81
11.29
9.59
7.91
6.30
4.66
2.86
0.80
-1.52
-4.03
-6.61
-9.18
-11.69
-14.05
-16.05
-17.42
-17.89
-17.26
-15.59
-13.14
-10.39
-7.84
-5.88
-4.61
-3.92
-3.51
-3.09
-2.49
-1.72
-0.90
-0.19
0.35
0.82
1.39
2.18
3.26
4.55
5.81
6.80
7.29
7.26
6.84
6.29
5.92
5.93
6.23
6.59
6.69
6.27
5.33
4.04
2.69
1.55
0.76
0.31
0.07
-0.07
-0.22
-0.37
-0.57
-0.89
-1.44
-2.27
-3.26
-4.16
-4.60
-4.29
-3.19
-1.55
0.13
1.38
1.93
1.82
1.40
1.05
0.98
1.20
1.46
1.53
1.29
0.76
0.11
-0.50
-0.94
-1.19
-1.23
-1.13
-0.92
-0.58
-0.16
0.36
0.99
1.71
2.40
2.84
2.73
1.79
-0.11
-2.80
-5.92
-8.97
-11.61
-13.71
-15.47
-17.18
-19.00
-20.78
-22.00
-22.00
-20.17
-16.26
-10.42
-3.07
5.21
13.88
22.42
30.30
37.00
42.03
45.11
46.27
45.78
44.03
41.29
37.63
32.96
27.23
20.65
13.73
7.17
1.65
-2.38
-4.83
-5.91
-6.01
-5.50
-4.68
-3.73
-2.72
-1.65
-0.51
0.75
2.11
3.49
4.72
5.60
5.92
5.57
4.50
2.79
0.48
-2.34
-5.64
-9.35
-13.31
-17.22
-20.56
-22.83
-23.55
-22.42
-19.42
-14.85
-9.30
-3.52
1.65
5.49
7.55
7.92
7.25
6.63
7.28
10.07
15.18
21.89
28.82
34.41
37.34
37.08
33.87
28.66
22.58
16.66
11.52
7.39
4.29
2.13
0.98
0.87
1.86
3.82
6.43
9.18
11.52
12.98
13.21
12.05
9.52
5.80
1.19
-3.97
-9.37
-14.75
-19.92
-24.69
-28.83
-32.10
-34.27
-35.18
-34.81
-33.22
-30.56
-27.02
-22.85
-18.32
-13.75
-9.50
-5.87
-3.19
-1.62
-1.17
-1.64
-2.70
-3.97
-5.16
-6.23
-7.41
-8.97
-11.11
-13.66
-16.12
-17.82
-18.19
-17.01
-14.52
-11.23
-7.73
-4.38
-1.21
2.08
5.91
10.54
15.89
21.50
26.71
30.88
33.64
35.03
35.35
35.08
34.50
33.64
32.21
29.77
25.90
20.47
13.78
6.49
-0.50
-6.32
-10.34
-12.28
-12.17
-10.27
-7.01
-2.91
1.44
5.45
8.57
10.43
10.95
10.37
9.16
7.86
6.95
6.67
7.08
8.11
9.62
11.54
13.80
16.27
18.57
20.07
20.04
17.95
13.71
7.93
1.69
-3.81
-7.69
-9.69
-10.17
-9.73
-8.87
-7.73
-6.06
-3.53
-0.03
4.11
8.23
11.46
13.14
13.09
11.63
9.57
7.84
7.35
8.54
11.38
15.16
18.74
20.68
19.60
14.57
5.34
-7.38
-22.03
-36.41
-48.28
-55.88
-58.46
-56.47
-51.26
-44.59
-37.98
-32.34
-27.85
-24.41
-21.85
-20.23
-19.69
-20.23
-21.48
-22.70
-23.13
-22.20
-19.80
-16.27
-12.12
-7.88
-3.94
-0.63
1.77
3.09
3.32
2.81
2.17
2.12
3.10
5.02
7.38
9.45
10.71
11.10
10.96
10.75
10.82
11.12
11.34
11.02
9.73
7.19
3.20
-2.02
-7.46
-10.89
-8.88
2.62
26.77
64.22
111.93
163.37
210.30
245.41
264.56
267.51
256.95
236.44
208.51
174.21
133.80
88.22
39.98
-7.13
-49.44
-84.68
-112.70
-134.81
-152.35
-165.59
-173.39
-174.08
-166.40
-150.43
-127.52
-99.87
-70.09
-40.73
-14.77
4.57
14.38
13.21
1.98
-15.74
-34.66
-49.44
-56.27
-54.12
-44.66
-31.42
-18.64
-9.99
-7.65
-11.74
-20.12
-29.15
-35.15
-35.98
-31.96
-25.59
-20.15
-18.23
-20.89
-28.00
-39.04
-54.04
-73.45
-97.45
-125.00
-153.04
-177.15
-192.86
-197.26
-189.80
-171.96
-145.85
-112.73
-72.67
-25.43
27.58
81.79
129.74
163.09
175.69
165.53
134.76
88.00
30.32
-33.44
-98.10
-156.91
-201.88
-225.46
-223.40
-196.65
-151.21
-95.83
-38.88
13.68
58.71
95.00
122.21
140.19
149.19
150.23
145.15
136.26
125.69
114.96
104.98
96.22
89.02
83.71
80.45
78.95
78.40
77.51
74.87
69.50
61.11
50.17
37.83
25.72
15.63
9.29
8.00
12.21
21.07
32.33
42.63
48.36
46.72
36.71
19.61
-1.35
-21.90
-38.00
-47.06
-48.50
-43.75
-35.41
-26.32
-18.52
-12.94
-9.50
-7.57
-6.50
-5.67
-4.48
-2.33
1.31
6.58
12.96
19.29
24.19
26.57
26.07
23.22
19.11
14.94
11.60
9.36
7.97
6.90
5.65
4.00
2.02
0.05
-1.58
-2.65
-3.21
-3.49
-3.88
-4.66
-5.95
-7.59
-9.17
-10.14
-10.03
-8.64
-6.21
-3.29
-0.49
1.85
3.95
6.48
10.27
15.83
23.00
30.87
38.02
43.08
45.13
44.06
40.70
36.66
34.08
35.28
42.43
57.15
80.08
110.34
145.25
180.43
210.52
230.48
236.99
229.53
210.49
184.25
155.72
128.81
105.52
86.01
69.23
53.83
38.71
23.21
6.88
-10.69
-29.98
-51.29
-74.56
-99.11
-123.74
-147.00
-167.51
-183.95
-194.98
-199.21
-195.69
-184.66
-168.29
-150.58
-136.37
-129.46
-130.95
-138.70
-147.89
-152.61
-147.37
-128.51
-95.17
-50.05
0.53
47.65
82.27
98.17
94.08
73.86
44.21
11.08
-22.90
-58.60
-98.03
-141.08
-183.71
-218.68
-238.45
-238.46
-218.95
-184.49
-141.86
-97.39
-55.20
-16.71
18.26
49.87
76.98
96.79
105.92
101.99
85.02
58.27
27.67
0.26
-17.94
-23.57
-16.51
0.90
25.20
52.89
80.61
104.74
121.03
125.34
115.35
92.33
61.84
32.32
11.99
5.71
13.22
29.81
48.94
65.13
75.47
79.57
78.20
72.26
62.47
49.82
36.01
23.49
14.53
10.38
10.72
13.83
17.35
19.22
18.18
13.88
6.73
-2.48
-12.86
-23.52
-33.66
-42.57
-49.52
-53.81
-54.85
-52.38
-46.75
-38.97
-30.61
-23.37
-18.56
-16.76
-17.77
-20.86
-25.13
-29.78
-34.23
-37.97
-40.55
-41.61
-41.01
-38.98
-36.14
-33.28
-31.12
-29.99
-29.73
-29.79
-29.52
-28.39
-26.28
-23.46
-20.53
-18.14
-16.74
-16.36
-16.60
-16.74
-16.06
-14.11
-10.86
-6.76
-2.45
1.48
4.69
7.17
9.17
10.96
12.75
14.54
16.21
17.61
18.63
19.27
19.55
19.44
18.82
17.50
15.45
12.87
10.15
7.72
5.82
4.40
3.11
1.51
-0.72
-3.59
-6.94
-10.39
-13.63
-16.32
-18.27
-19.35
-19.61
-19.25
-18.65
-18.25
-18.38
-19.06
-19.98
-20.56
-20.24
-18.67
-15.92
-12.39
-8.70
-5.34
-2.55
-0.24
1.87
4.02
6.26
8.34
9.91
10.71
10.73
10.22
9.58
9.21
9.34
10.08
11.39
13.15
15.13
16.97
18.26
18.66
17.99
16.30
13.65
9.95
4.85
-2.08
-11.10
-21.88
-33.56
-44.95
-55.05
-63.45
-70.49
-76.98
-83.68
-90.90
-98.31
-105.24
-110.98
-115.22
-118.18
-120.48
-122.95
-126.38
-131.40
-138.26
-146.59
-155.05
-161.31
-162.51
-156.13
-140.94
-117.62
-88.54
-56.97
-25.98
2.43
27.67
50.24
71.15
91.12
110.18
127.55
142.09
152.70
158.84
160.71
158.96
154.23
146.73
136.24
122.72
106.91
90.70
76.74
67.35
63.51
64.49
68.28
72.73
76.37
78.77
80.23
81.09
81.29
80.39
77.88
73.61
67.92
61.45
54.83
48.46
42.55
37.23
32.65
28.97
26.26
24.36
23.01
21.92
20.88
19.79
18.67
17.58
16.60
15.86
15.42
15.35
15.55
15.74
15.46
14.22
11.71
7.92
3.31
-1.40
-5.38
-8.03
-9.09
-8.70
-7.30
-5.50
-3.82
-2.59
-1.80
-1.14
-0.13
1.56
3.92
6.53
8.75
10.04
10.25
9.60
8.57
7.57
6.76
6.04
5.23
4.25
3.21
2.27
1.52
0.87
0.01
-1.29
-3.09
-5.14
-6.94
-8.00
-8.06
-7.26
-6.03
-4.97
-4.47
-4.71
-5.59
-6.87
-8.33
-9.85
-11.34
-12.73
-13.98
-15.02
-15.83
-16.42
-16.83
-17.08
-17.10
-16.76
-15.88
-14.38
-12.31
-9.97
-7.81
-6.34
-5.99
-6.94
-9.06
-11.83
-14.55
-16.46
-17.01
-16.09
-13.98
-11.27
-8.66
-6.67
-5.56
-5.33
-5.72
-6.48
-7.31
-7.97
-8.24
-7.97
-7.19
-6.05
-4.90
-4.06
-3.73
-3.91
-4.44
-5.09
-5.67
-6.05
-6.18
-6.07
-5.78
-5.44
-5.20
-5.14
-5.17
-5.08
-4.51
-3.23
-1.28
0.99
3.04
4.41
4.89
4.56
3.72
2.66
1.47
0.13
-1.43
-3.11
-4.56
-5.37
-5.17
-3.97
-2.11
-0.13
1.47
2.43
2.79
2.80
2.69
2.59
2.50
2.40
2.26
2.09
1.90
1.68
1.36
0.87
0.23
-0.47
-1.15
-1.75
-2.38
-3.19
-4.35
-5.86
-7.53
-8.90
-9.51
-9.05
-7.45
-4.98
-2.10
0.67
2.95
4.63
5.84
6.83
7.74
8.50
8.85
8.50
7.35
5.61
3.77
2.38
1.83
2.19
3.19
4.41
5.48
6.21
6.60
6.77
6.81
6.79
6.72
6.60
6.41
6.13
5.77
5.42
5.22
5.34
5.76
6.22
6.21
5.20
2.87
-0.61
-4.65
-8.45
-11.30
-12.86
-13.17
-12.52
-11.23
-9.51
-7.50
-5.33
-3.20
-1.39
-0.06
0.76
1.26
1.73
2.39
3.22
3.97
4.30
3.95
2.98
1.75
0.70
0.22
0.44
1.20
2.21
3.27
4.34
5.50
6.83
8.24
9.45
10.09
9.91
8.93
7.35
5.59
4.02
2.84
2.08
1.61
1.23
0.77
0.14
-0.67
-1.62
-2.66
-3.81
-5.07
-6.42
-7.79
-9.00
-9.77
-9.85
-9.03
-7.28
-4.77
-1.83
1.13
3.72
5.68
6.86
7.26
7.02
6.37
5.61
5.01
4.79
5.05
5.73
6.69
7.73
8.70
9.57
10.34
11.04
11.59
11.83
11.47
10.31
8.32
5.84
3.55
2.25
2.68
5.13
9.19
13.71
17.02
17.24
12.91
3.56
-10.05
-25.85
-40.97
-52.46
-58.07
-56.84
-49.29
-37.12
-22.69
-8.44
3.65
12.36
17.27
18.76
17.76
15.34
12.45
9.61
6.93
4.33
1.78
-0.50
-2.06
-2.40
-1.24
1.51
5.66
10.86
16.75
22.83
28.41
32.70
34.84
34.20
30.65
24.61
17.02
9.09
2.08
-3.03
-5.66
-5.80
-3.91
-0.87
2.38
4.97
6.38
6.51
5.57
3.99
2.26
0.67
-0.73
-2.16
-3.95
-6.33
-9.23
-12.19
-14.54
-15.63
-15.12
-13.17
-10.35
-7.47
-5.32
-4.44
-5.04
-6.80
-8.77
-9.41
-6.94
-0.14
10.88
24.22
36.61
44.46
45.22
38.37
25.50
9.50
-6.69
-21.04
-32.80
-42.06
-49.12
-54.03
-56.48
-56.13
-52.93
-47.21
-39.57
-30.73
-21.37
-12.21
-4.08
2.18
5.95
7.22
6.56
4.88
2.94
0.93
-1.52
-4.97
-9.65
-15.11
-20.33
-24.20
-26.08
-26.11
-25.08
-23.85
-22.92
-22.07
-20.51
-17.23
-11.43
-2.77
8.52
21.91
36.79
52.70
69.19
85.60
100.88
113.62
122.38
126.17
124.87
119.29
110.84
101.07
91.19
81.82
73.05
64.61
56.15
47.43
38.37
29.03
19.72
10.87
3.00
-3.43
-8.23
-11.56
-13.91
-15.93
-18.23
-21.05
-24.08
-26.55
-27.46
-26.12
-22.61
-17.97
-13.96
-12.22
-13.54
-17.33
-21.63
-23.93
-22.31
-16.35
-7.47
1.59
7.70
8.52
3.28
-6.99
-19.79
-31.97
-40.71
-44.27
-42.41
-36.35
-28.29
-20.69
-15.57
-13.79
-14.74
-16.57
-16.91
-13.87
-7.06
1.98
10.04
13.25
8.64
-4.58
-24.59
-47.71
-69.73
-87.29
-98.77
-104.23
-104.80
-101.89
-96.55
-89.13
-79.15
-65.68
-47.87
-26.01
-2.18
19.83
35.78
42.76
40.64
32.28
21.96
13.28
7.69
4.44
1.94
-0.74
-3.26
-4.68
-4.59
-3.72
-3.29
-3.95
-4.98
-4.96
-3.25
-1.29
-2.59
-10.98
-28.25
-52.57
-78.51
-98.82
-106.98
-99.30
-75.85
-40.19
1.92
43.97
80.16
106.31
120.39
122.54
114.70
99.92
81.73
63.38
47.51
35.75
28.69
25.88
26.10
27.85
29.90
31.61
33.04
34.58
36.68
39.52
42.88
46.27
49.05
50.73
51.08
50.29
48.78
47.03
45.29
43.49
41.29
38.32
34.32
29.25
23.20
16.24
8.45
-0.09
-9.06
-17.95
-26.04
-32.67
-37.45
-40.42
-42.06
-43.08
-44.31
-46.45
-50.00
-55.13
-61.58
-68.47
-74.28
-77.11
-75.26
-68.17
-56.94
-44.39
-34.24
-29.80
-32.80
-42.75
-57.13
-72.31
-84.56
-91.09
-90.61
-83.48
-71.38
-56.75
-42.02
-28.98
-18.39
-9.85
-2.28
5.54
14.44
24.48
34.90
44.43
51.63
55.45
55.60
52.75
48.37
44.20
41.72
41.74
44.33
48.99
54.89
61.00
66.16
69.13
68.89
64.97
57.76
48.50
38.93
30.66
24.66
21.06
19.37
18.94
19.28
20.24
21.73
23.53
25.04
25.48
24.15
20.79
15.68
9.50
3.13
-2.78
-7.83
-11.97
-15.45
-18.60
-21.72
-25.08
-28.79
-32.88
-37.24
-41.47
-44.84
-46.42
-45.47
-41.84
-36.27
-30.17
-25.10
-22.15
-21.52
-22.67
-24.75
-27.16
-29.73
-32.50
-35.28
-37.42
-37.88
-35.57
-29.86
-20.76
-8.99
4.05
16.50
26.34
31.84
32.17
27.78
20.27
11.91
4.84
0.30
-1.51
-1.21
0.33
2.45
4.85
7.40
9.98
12.32
14.09
15.16
15.59
15.70
15.83
16.21
16.85
17.55
18.05
18.07
17.48
16.32
14.80
13.23
11.94
11.20
11.13
11.68
12.66
13.77
14.75
15.39
15.64
15.60
15.42
15.28
15.31
15.52
15.85
16.19
16.49
16.70
16.84
16.95
17.07
17.29
17.66
18.20
18.82
19.35
19.63
19.68
19.90
20.94
23.41
27.45
32.34
36.60
38.42
36.51
30.70
22.05
12.31
3.06
-5.08
-12.61
-20.74
-30.57
-42.35
-55.38
-68.20
-79.03
-85.91
-86.95
-80.51
-65.82
-43.91
-18.10
6.24
23.13
28.06
19.79
0.96
-22.89
-45.26
-60.90
-67.26
-64.77
-56.06
-44.60
-33.39
-24.05
-16.81
-11.01
-6.06
-2.06
0.09
-0.55
-4.13
-9.51
-14.53
-17.02
-15.87
-11.56
-5.68
-0.05
4.24
7.06
9.01
10.80
12.77
14.81
16.50
17.40
17.20
15.68
12.74
8.47
3.23
-2.36
-7.59
-11.89
-15.00
-16.98
-18.05
-18.41
-18.23
-17.58
-16.66
-15.71
-15.08
-14.99
-15.49
-16.41
-17.46
-18.41
-19.16
-19.76
-20.33
-20.96
-21.70
-22.47
-23.17
-23.63
-23.62
-22.91
-21.30
-18.68
-15.17
-11.04
-6.69
-2.54
1.13
4.19
6.69
8.73
10.39
11.64
12.38
12.52
12.09
11.28
10.47
10.11
10.54
11.81
13.76
15.99
18.09
19.87
21.33
22.68
24.20
26.10
28.51
31.42
34.73
38.26
41.84
45.29
48.46
51.25
53.58
55.44
56.79
57.58
57.75
57.24
56.03
54.14
51.63
48.60
45.19
41.61
38.10
34.91
32.23
30.08
28.40
27.03
25.74
24.32
22.68
20.73
18.45
15.84
12.94
9.84
6.75
3.94
1.67
0.14
-0.59
-0.66
-0.36
-0.05
-0.05
-0.52
-1.46
-2.70
-4.02
-5.23
-6.21
-6.98
-7.61
-8.26
-9.03
-9.99
-11.08
-12.19
-13.20
-14.01
-14.62
-15.17
-15.80
-16.61
-17.61
-18.64
-19.53
-20.12
-20.36
-20.25
-19.82
-19.06
-17.96
-16.54
-14.99
-13.56
-12.56
-12.13
-12.25
-12.71
-13.28
-13.77
-14.17
-14.57
-15.05
-15.61
-16.14
-16.52
-16.64
-16.49
-16.15
-15.75
-15.41
-15.19
-15.13
-15.20
-15.36
-15.59
-15.91
-16.37
-17.02
-17.90
-18.95
-20.04
-21.07
-21.93
-22.57
-22.98
-23.15
-22.98
-22.37
-21.27
-19.70
-17.84
-15.88
-13.98
-12.16
-10.31
-8.28
-6.06
-3.81
-1.78
-0.22
0.80
1.42
1.91
2.52
3.28
4.04
4.54
4.63
4.38
4.06
4.07
4.74
6.17
8.18
10.46
12.61
14.35
15.49
16.02
16.03
15.64
14.99
14.22
13.44
12.72
12.09
11.47
10.77
9.84
8.60
7.04
5.22
3.28
1.35
-0.43
-2.02
-3.48
-4.86
-6.28
-7.76
-9.24
-10.56
-11.52
-11.90
-11.59
-10.65
-9.33
-8.06
-7.23
-7.15
-7.85
-9.19
-10.87
-12.64
-14.31
-15.73
-16.78
-17.26
-17.01
-15.94
-14.24
-12.24
-10.44
-9.23
-8.67
-8.48
-8.13
-7.10
-5.12
-2.38
0.57
3.03
4.47
4.77
4.16
3.10
2.06
1.25
0.74
0.43
0.25
0.22
0.40
0.83
1.47
2.20
2.81
3.19
3.31
3.26
3.12
2.89
2.33
1.17
-0.66
-2.73
-4.10
-3.73
-1.18
2.85
6.59
7.84
5.15
-1.47
-10.45
-19.35
-26.02
-29.29
-29.22
-26.57
-22.20
-16.65
-10.19
-3.17
3.84
10.03
14.62
17.24
18.09
17.89
17.61
18.08
19.66
22.16
24.86
26.83
27.32
26.07
23.26
19.42
15.09
10.59
5.96
1.11
-4.06
-9.50
-15.12
-20.95
-27.15
-33.88
-41.05
-48.04
-53.83
-57.35
-58.02
-56.12
-52.85
-49.69
-47.85
-47.63
-48.37
-48.86
-47.89
-44.89
-40.02
-34.05
-27.85
-22.10
-17.09
-12.73
-8.74
-4.83
-0.81
3.42
7.83
12.39
16.96
21.34
25.21
28.24
30.13
30.75
30.16
28.72
26.98
25.57
24.96
25.22
26.09
26.95
27.15
26.26
24.30
21.67
19.00
16.83
15.40
14.67
14.46
14.66
15.33
16.49
17.84
18.59
17.56
13.66
6.56
-2.89
-12.64
-20.10
-23.09
-20.68
-13.47
-3.27
7.65
17.37
24.71
29.19
30.82
29.75
26.30
20.98
14.64
8.40
3.38
0.35
-0.49
0.48
2.51
4.84
6.87
8.31
9.11
9.43
9.50
9.54
9.68
9.90
9.98
9.64
8.67
7.08
5.18
3.43
2.27
1.88
2.08
2.46
2.60
2.28
1.66
1.08
0.90
1.26
1.97
2.62
2.82
2.43
1.65
0.95
0.79
1.36
2.47
3.61
4.24
4.08
3.22
2.03
0.93
0.12
-0.51
-1.33
-2.77
-5.05
-8.25
-12.18
-16.61
-21.26
-25.75
-29.50
-31.64
-31.21
-27.64
-21.26
-13.51
-6.68
-3.07
-4.17
-10.08
-19.49
-30.26
-40.18
-47.50
-51.15
-50.64
-45.89
-37.13
-25.06
-10.93
3.44
16.09
25.50
31.10
33.45
34.02
34.48
35.89
38.25
40.54
41.25
39.21
34.08
26.37
17.02
7.03
-2.85
-11.97
-19.54
-24.46
-25.64
-22.40
-15.04
-4.99
5.60
14.64
20.83
24.09
25.41
26.13
27.18
28.68
29.98
30.24
28.99
26.52
23.67
21.43
20.40
20.60
21.53
22.50
22.96
22.57
21.29
19.25
16.66
13.63
10.29
6.67
2.80
-1.15
-4.93
-8.20
-10.58
-11.83
-11.92
-11.02
-9.45
-7.53
-5.55
-3.76
-2.46
-1.89
-2.30
-3.74
-5.97
-8.32
-9.83
-9.37
-6.12
0.18
9.05
19.43
29.93
39.31
46.78
52.05
55.20
56.49
56.11
54.18
50.75
45.95
40.11
33.81
27.75
22.61
18.81
16.38
14.95
13.91
12.65
10.86
8.58
6.10
3.77
1.75
-0.09
-1.96
-4.03
-6.24
-8.35
-10.15
-11.69
-13.30
-15.56
-18.86
-23.10
-27.55
-31.04
-32.45
-31.24
-27.71
-22.92
-18.17
-14.52
-12.39
-11.59
-11.56
-11.73
-11.72
-11.36
-10.59
-9.37
-7.70
-5.64
-3.41
-1.17
0.93
2.94
4.99
7.22
9.72
12.40
15.16
17.87
20.48
22.83
24.69
25.67
25.26
23.02
18.66
12.18
3.91
-5.50
-15.13
-23.97
-30.99
-35.44
-36.91
-35.53
-31.98
-27.39
-22.99
-19.84
-18.42
-18.55
-19.45
-20.06
-19.51
-17.36
-13.81
-9.45
-5.00
-1.13
1.77
3.48
3.94
3.17
1.27
-1.58
-5.08
-8.81
-12.32
-15.14
-16.87
-17.24
-16.24
-14.05
-11.12
-7.95
-4.95
-2.33
-0.09
1.89
3.67
5.18
6.31
7.02
7.41
7.74
8.26
9.10
10.12
11.10
11.80
12.25
12.67
13.48
14.92
16.92
19.02
20.49
20.66
19.18
16.13
12.00
7.52
3.38
0.07
-2.23
-3.69
-4.71
-5.88
-7.65
-10.18
-13.27
-16.40
-19.00
-20.83
-21.97
-22.83
-23.73
-24.70
-25.46
-25.63
-24.94
-23.37
-20.97
-17.66
-13.10
-6.87
1.17
10.65
20.59
29.85
37.48
43.11
46.82
48.83
49.24
47.91
44.63
39.46
32.92
25.82
19.04
13.04
7.75
2.65
-2.82
-8.96
-15.56
-22.00
-27.56
-31.78
-34.75
-37.13
-39.92
-44.09
-50.12
-57.67
-65.55
-72.10
-75.75
-75.55
-71.49
-64.31
-55.15
-44.99
-34.48
-23.83
-13.17
-2.75
6.93
15.24
21.64
25.86
28.03
28.56
28.00
26.83
25.39
23.81
22.04
19.96
17.50
14.80
12.24
10.32
9.46
9.85
11.31
13.42
15.62
17.51
18.83
19.54
19.69
19.33
18.53
17.39
16.05
14.65
13.32
12.06
10.83
9.51
8.00
6.28
4.39
2.46
0.67
-0.76
-1.66
-1.92
-1.60
-0.89
-0.07
0.59
0.96
1.07
1.05
1.06
1.16
1.30
1.33
1.12
0.61
-0.12
-0.91
-1.52
-1.84
-1.85
-1.76
-1.87
-2.52
-3.94
-6.17
-9.09
-12.48
-16.07
-19.56
-22.60
-24.80
-25.82
-25.59
-24.38
-22.82
-21.73
-21.74
-23.04
-25.36
-28.11
-30.62
-32.38
-33.09
-32.65
-31.01
-28.21
-24.37
-19.74
-14.71
-9.67
-4.97
-0.75
3.04
6.58
10.07
13.64
17.34
21.19
25.24
29.66
34.62
40.17
46.17
52.25
58.00
63.11
67.53
71.35
74.63
77.26
78.92
79.23
77.91
74.91
70.34
64.33
56.95
48.20
38.18
27.27
16.08
5.41
-3.99
-11.60
-17.23
-20.95
-22.97
-23.52
-22.74
-20.68
-17.32
-12.78
-7.39
-1.68
3.67
8.10
11.36
13.54
14.89
15.69
15.98
15.66
14.56
12.67
10.14
7.28
4.35
1.46
-1.41
-4.32
-7.30
-10.26
-13.16
-16.10
-19.26
-22.78
-26.64
-30.55
-34.08
-36.83
-38.54
-39.11
-38.53
-36.78
-33.87
-29.81
-24.71
-18.85
-12.64
-6.66
-1.70
1.23
1.12
-2.75
-10.34
-20.69
-32.03
-42.33
-49.83
-53.57
-53.48
-50.14
-44.48
-37.44
-29.81
-22.19
-15.05
-8.63
-2.95
2.19
7.11
11.92
16.41
20.13
22.65
23.96
24.55
25.22
26.56
28.44
29.91
29.55
26.17
19.40
9.97
-0.61
-10.63
-18.76
-24.30
-27.19
-27.81
-26.76
-24.77
-22.56
-20.80
-19.92
-20.10
-21.08
-22.26
-22.82
-22.06
-19.71
-16.03
-11.76
-7.85
-5.04
-3.68
-3.70
-4.81
-6.73
-9.27
-12.29
-15.55
-18.70
-21.32
-23.13
-24.10
-24.39
-24.20
-23.63
-22.70
-21.42
-19.96
-18.74
-18.39
-19.44
-22.06
-25.83
-29.87
-33.21
-35.09
-35.23
-33.85
-31.38
-28.24
-24.69
-20.84
-16.81
-12.74
-8.78
-4.94
-1.01
3.35
8.43
14.26
20.52
26.78
32.62
37.85
42.44
46.45
49.89
52.72
54.94
56.67
58.20
59.81
61.56
63.22
64.28
64.22
62.78
60.02
56.30
52.06
47.55
42.87
37.96
32.73
27.10
20.95
14.06
6.23
-2.50
-11.65
-20.20
-26.77
-30.06
-29.39
-24.93
-17.69
-9.13
-0.69
6.60
12.24
16.09
18.14
18.34
16.63
13.07
8.02
2.21
-3.44
-8.14
-11.49
-13.64
-15.11
-16.47
-18.10
-20.10
-22.45
-25.29
-28.93
-33.63
-39.29
-45.15
-49.95
-52.46
-52.05
-49.01
-44.43
-39.58
-35.28
-31.63
-28.24
-24.64
-20.79
-17.10
-14.17
-12.46
-11.92
-12.07
-12.18
-11.64
-10.26
-8.28
-6.24
-4.72
-4.03
-4.07
-4.49
-4.84
-4.93
-4.86
-4.89
-5.19
-5.56
-5.49
-4.44
-2.15
1.11
4.66
7.70
9.77
10.89
11.56
12.34
13.59
15.22
16.79
17.82
18.02
17.49
16.60
15.86
15.66
16.12
17.09
18.26
19.27
19.90
20.13
20.11
20.14
20.51
21.44
23.00
25.07
27.40
29.69
31.60
32.88
33.39
33.20
32.54
31.79
31.39
31.66
32.71
34.41
36.44
38.29
39.37
39.11
37.11
33.32
28.12
22.24
16.49
11.44
7.14
3.12
-1.32
-6.71
-13.09
-19.97
-26.58
-32.30
-36.77
-40.01
-42.16
-43.24
-43.21
-42.00
-39.81
-37.13
-34.55
-32.55
-31.20
-30.21
-29.14
-27.68
-25.86
-24.03
-22.66
-22.02
-21.97
-22.09
-21.88
-21.13
-20.08
-19.27
-19.21
-20.00
-21.07
-21.50
-20.41
-17.58
-13.70
-10.06
-7.95
-7.93
-9.51
-11.43
-12.29
-11.20
-8.13
-3.70
1.33
6.59
12.17
18.43
25.31
32.05
37.24
39.40
37.84
33.02
26.52
20.22
15.45
12.40
10.30
8.04
4.96
1.30
-2.06
-4.16
-4.59
-3.62
-2.03
-0.48
0.78
2.06
3.96
7.06
11.59
17.41
24.03
30.71
36.64
41.13
43.75
44.63
44.51
44.60
46.22
50.31
57.03
65.59
74.48
81.84
86.11
86.49
83.27
77.85
72.38
69.04
69.13
72.67
78.19
83.34
85.64
83.06
74.15
57.65
32.25
-3.13
-48.30
-100.74
-155.11
-204.33
-241.54
-262.40
-266.26
-255.72
-234.86
-207.50
-176.45
-143.88
-112.11
-83.65
-60.19
-41.27
-24.06
-5.02
17.59
41.89
62.92
75.36
76.69
68.90
57.40
47.95
43.61
43.68
44.93
44.19
40.39
34.83
30.05
28.19
29.97
34.57
40.35
45.67
49.35
50.94
50.67
49.14
46.96
44.38
41.43
38.06
34.48
31.21
28.85
27.45
26.25
23.88
18.95
10.89
0.42
-10.64
-19.82
-24.77
-23.89
-16.89
-5.07
8.64
20.29
26.14
24.16
15.01
1.94
-10.68
-19.48
-23.70
-25.34
-27.66
-33.05
-41.45
-50.33
-55.93
-55.00
-46.04
-29.51
-7.25
18.12
43.57
65.86
82.05
89.99
88.61
77.85
58.13
30.24
-4.03
-40.89
-73.88
-94.71
-95.89
-74.16
-32.86
18.19
65.73
97.52
106.31
91.73
59.62
19.33
-19.24
-48.31
-63.41
-63.64
-51.12
-29.98
-5.37
17.57
34.56
43.03
42.44
34.36
21.69
7.76
-4.70
-13.86
-18.96
-19.99
-17.47
-12.44
-6.45
-1.35
1.45
1.73
0.75
0.73
3.66
10.25
19.35
28.64
35.79
39.80
41.39
42.47
44.92
49.44
55.15
60.07
62.23
60.64
55.75
49.10
42.47
37.11
33.36
30.96
29.57
29.25
30.54
33.91
39.29
45.64
51.20
54.08
53.22
48.87
42.64
36.67
32.72
31.27
31.30
30.89
28.19
22.59
15.03
7.66
2.80
1.83
4.67
9.98
15.93
20.84
23.42
22.55
17.17
6.65
-8.59
-26.56
-43.94
-57.18
-63.94
-64.00
-59.27
-52.67
-46.67
-42.46
-39.71
-37.50
-35.15
-32.90
-31.72
-32.81
-36.78
-43.26
-51.02
-58.29
-63.59
-66.28
-66.67
-65.80
-64.78
-64.16
-63.65
-62.51
-60.03
-56.18
-51.69
-47.72
-45.20
-44.38
-44.66
-45.00
-44.51
-42.81
-40.24
-37.60
-35.78
-35.39
-36.62
-39.22
-42.63
-46.11
-48.98
-50.85
-51.75
-52.11
-52.51
-53.41
-54.88
-56.67
-58.36
-59.67
-60.58
-61.32
-62.15
-63.23
-64.54
-66.01
-67.56
-69.25
-71.15
-73.29
-75.67
-78.28
-81.23
-84.75
-89.16
-94.70
-101.37
-108.79
-116.19
-122.64
-127.31
-129.84
-130.58
-130.56
-131.18
-133.74
-138.95
-146.57
-155.38
-163.53
-169.06
-170.46
-166.94
-158.39
-144.93
-126.74
-103.93
-76.80
-45.91
-12.06
24.02
61.75
100.14
137.02
168.51
189.77
197.01
189.60
171.13
148.18
127.53
113.29
105.78
102.55
100.94
99.97
100.50
103.70
109.12
114.13
115.11
109.75
98.60
85.00
73.38
66.97
66.46
69.98
74.41
76.89
76.02
72.00
66.15
59.98
54.48
49.84
45.60
41.05
35.69
29.48
22.92
16.81
11.91
8.60
6.75
5.83
5.18
4.47
3.82
3.81
5.09
7.98
12.23
17.12
21.75
25.47
28.04
29.64
30.60
31.18
31.50
31.57
31.40
31.05
30.60
29.97
28.91
27.04
24.07
19.87
14.67
8.94
3.26
-1.84
-6.03
-9.27
-11.73
-13.74
-15.63
-17.64
-19.88
-22.29
-24.66
-26.83
-28.76
-30.71
-33.20
-36.66
-40.82
-44.32
-44.68
-38.97
-24.93
-2.11
27.46
59.61
88.91
109.99
118.51
111.89
89.57
53.14
6.16
-46.37
-98.80
-145.97
-184.10
-211.15
-226.51
-230.30
-222.85
-204.72
-177.09
-142.10
-102.69
-61.94
-22.28
14.83
48.48
77.60
100.54
115.33
120.67
116.94
106.62
93.54
81.54
73.33
69.85
70.86
75.76
84.02
94.75
105.85
113.70
113.87
102.89
80.24
49.24
16.29
-11.38
-28.38
-32.89
-26.48
-12.61
5.39
25.30
45.71
64.94
80.31
88.51
87.07
75.93
57.85
37.39
18.95
5.03
-4.52
-11.66
-18.53
-26.19
-34.18
-41.17
-46.05
-48.54
-49.33
-49.63
-50.45
-52.27
-54.92
-57.85
-60.47
-62.38
-63.47
-63.83
-63.55
-62.61
-60.78
-57.74
-53.17
-46.90
-38.91
-29.40
-18.79
-7.77
2.78
11.94
18.94
23.41
25.41
25.39
23.95
21.68
18.95
15.94
12.70
9.19
5.42
1.42
-2.77
-7.11
-11.57
-16.08
-20.52
-24.78
-28.72
-32.27
-35.44
-38.29
-40.93
-43.47
-45.94
-48.31
-50.44
-52.09
-52.99
-52.85
-51.48
-48.76
-44.72
-39.43
-32.99
-25.53
-17.18
-8.16
1.30
10.95
20.62
30.24
39.81
49.32
58.62
67.44
75.42
82.25
87.75
91.93
94.89
96.79
97.74
97.83
97.18
95.95
94.34
92.50
90.49
88.18
85.37
81.87
77.61
72.76
67.63
62.65
58.13
54.27
51.08
48.44
46.17
44.09
42.10
40.11
38.14
36.23
34.46
32.91
31.63
30.58
29.67
28.81
27.93
27.08
26.37
26.00
26.16
26.92
28.17
29.64
30.93
31.63
31.56
30.76
29.57
28.46
27.79
27.72
28.15
28.81
29.43
29.89
30.25
30.77
31.80
33.77
37.06
41.97
48.63
56.96
66.61
77.02
87.71
98.47
109.65
122.16
137.14
155.40
176.86
200.30
223.52
243.89
259.07
267.52
268.66
262.69
250.34
232.70
211.06
186.90
161.75
136.92
112.94
89.96
68.19
48.23
30.91
17.09
7.30
1.50
-0.99
-1.62
-1.75
-1.94
-1.77
-0.30
3.16
8.49
14.67
19.90
21.35
17.17
7.68
-4.69
-16.53
-25.23
-29.97
-32.05
-34.29
-42.46
-60.38
-87.46
-118.77
-148.09
-170.94
-186.24
-196.19
-204.87
-222.07
-254.99
-304.56
-365.58
-430.28
-490.92
-539.50
-567.58
-568.22
-548.51
-521.31
-499.49
-491.15
-498.96
-520.24
-547.33
-570.45
-583.18
-597.33
-628.01
-682.21
-753.89
-829.32
-895.31
-943.74
-972.87
-914.86
-738.13
-465.46
-163.08
107.66
320.74
478.33
593.04
676.45
733.77
759.60
747.31
699.75
629.95
552.77
477.67
408.07
348.97
308.08
283.64
270.01
262.43
258.68
257.06
255.17
251.72
247.48
243.91
236.21
218.95
191.91
160.80
133.60
116.15
110.06
112.09
114.73
106.69
79.46
33.18
-22.43
-73.74
-109.04
-122.05
-113.04
-87.62
-51.38
-14.31
18.43
46.36
70.74
91.86
109.02
121.07
127.24
127.79
123.44
116.59
109.71
104.98
102.15
100.47
99.00
96.49
92.03
84.76
75.32
64.80
54.70
45.24
36.76
29.11
21.48
12.74
1.78
-10.94
-24.05
-35.50
-44.56
-50.66
-54.44
-58.26
-65.54
-80.75
-107.42
-148.32
-193.38
-234.64
-263.11
-270.90
-253.94
-213.25
-156.41
-95.27
-43.94
-14.45
-14.55
-43.21
-90.60
-141.03
-176.55
-188.61
-172.35
-130.94
-73.08
-10.18
49.34
101.63
146.34
185.73
220.17
248.81
269.71
282.31
287.46
287.61
285.39
271.43
243.05
201.17
150.26
95.93
43.89
-1.42
-37.04
-62.19
-78.33
-87.02
-91.37
-94.10
-97.56
-102.74
-109.41
-116.53
-123.05
-128.58
-132.10
-133.93
-134.77
-135.99
-138.77
-143.37
-149.27
-155.16
-159.32
-159.29
-154.59
-144.06
-128.01
-107.60
-84.05
-58.09
-29.69
1.65
36.68
73.64
110.22
143.10
168.77
184.99
191.31
189.49
182.73
174.44
167.16
162.50
160.79
161.47
162.79
161.20
151.55
129.08
92.65
47.01
2.83
-27.56
-35.69
-20.92
9.69
45.27
76.36
98.26
110.28
113.08
106.04
87.15
55.34
13.28
-32.04
-70.86
-94.03
-96.15
-77.23
-42.05
1.68
44.87
79.08
97.64
97.12
78.01
44.55
3.80
-36.35
-69.14
-90.14
-97.56
-92.68
-78.38
-58.03
-34.95
-12.02
8.12
23.00
30.91
31.79
26.94
18.90
10.37
2.66
-4.47
-12.60
-23.92
-40.17
-61.41
-86.38
-111.32
-130.57
-138.28
-130.66
-107.99
-75.22
-40.35
-11.44
6.69
13.78
13.62
11.21
10.08
11.05
13.07
14.73
15.10
13.79
10.57
5.18
-2.33
-10.85
-18.13
-21.69
-20.07
-13.77
-5.12
3.10
8.99
12.21
13.62
14.21
14.33
13.61
11.65
8.64
5.58
3.77
3.94
5.80
8.51
10.65
11.28
10.21
7.97
5.59
4.03
3.82
4.84
6.51
7.97
8.63
8.26
7.13
5.80
4.84
4.59
5.07
5.99
6.94
7.55
7.67
7.37
6.87
6.42
6.19
6.19
6.33
6.44
6.43
6.28
6.08
5.92
5.87
5.92
5.99
6.00
5.89
5.67
5.41
5.18
5.03
4.92
4.77
4.44
3.85
2.97
1.86
0.67
-0.47
-1.49
-2.50
-3.73
-5.45
-7.89
-11.07
-14.78
-18.61
-22.17
-25.30
-28.20
-31.40
-35.58
-41.26
-48.47
-56.76
-65.18
-72.89
-79.47
-85.31
-91.40
-99.07
-109.28
-122.14
-136.77
-151.44
-164.45
-174.61
-181.93
-187.22
-191.46
-194.99
-197.00
-195.82
-188.75
-173.08
-146.64
-108.21
-57.82
2.45
67.73
130.53
181.79
214.04
224.53
216.56
198.14
178.48
164.27
157.42
155.69
155.39
153.59
149.61
144.40
139.08
133.61
126.94
117.69
105.62
91.74
78.08
66.74
58.83
54.07
51.01
47.81
43.05
36.35
28.42
20.64
14.40
10.44
8.57
7.88
7.19
5.59
2.85
-0.66
-4.15
-6.85
-8.33
-8.66
-8.29
-7.82
-7.69
-8.05
-8.71
-9.36
-9.65
-9.38
-8.60
-7.44
-6.13
-4.85
-3.65
-2.51
-1.36
-0.14
1.21
2.67
4.22
5.83
7.50
9.21
10.98
12.79
14.65
16.55
18.44
20.31
22.18
24.08
26.06
28.18
30.49
33.04
35.82
38.64
41.25
43.25
44.12
43.23
40.03
33.72
23.70
9.67
-8.45
-30.23
-54.87
-81.14
-107.46
-132.04
-152.98
-168.62
-177.58
-179.28
-173.75
-161.77
-144.74
-124.37
-102.53
-80.86
-60.63
-42.65
-27.01
-14.09
-3.69
4.71
11.81
18.15
24.23
30.31
36.39
42.16
47.13
50.84
52.89
53.21
51.91
49.62
47.02
44.74
42.99
41.55
40.07
37.94
35.10
31.52
27.85
24.90
23.33
23.21
23.97
24.69
24.35
22.45
19.26
15.81
13.41
12.92
14.53
17.42
20.45
22.32
21.94
18.58
11.93
2.57
-7.52
-14.95
-15.60
-6.20
13.47
39.96
67.05
88.00
98.29
97.01
86.58
70.38
52.60
35.11
18.17
1.74
-13.64
-26.63
-35.76
-40.43
-41.32
-39.92
