1680169236.00
64.000000
-0.00
-0.00
-0.00
-0.00
-0.00
-0.00
-0.00
-0.00
-0.00
-0.00
0.00
0.01
0.01
-0.00
-0.03
-0.05
-0.05
0.00
0.13
0.36
0.66
1.01
1.37
1.72
2.06
2.40
2.79
3.24
3.80
4.42
5.06
5.66
6.20
6.68
7.15
7.68
8.31
9.14
10.09
11.04
11.88
12.56
13.14
13.76
14.65
15.96
17.91
20.32
22.90
25.38
27.58
29.57
31.68
34.32
37.81
42.54
48.15
54.10
59.83
64.97
69.58
74.14
79.34
85.71
93.76
103.00
112.62
121.73
129.77
136.75
143.30
150.75
157.77
166.64
177.95
191.79
206.97
220.57
228.25
225.36
208.53
176.87
132.76
80.05
23.07
-34.94
-92.44
-149.16
-205.23
-260.37
-313.74
-363.87
-409.83
-450.91
-486.50
-515.74
-537.23
-549.22
-549.96
-538.37
-514.21
-478.67
-433.88
-382.45
-327.02
-269.84
-212.63
-156.66
-102.95
-52.37
-5.90
35.58
71.43
101.35
125.50
144.38
158.69
169.15
176.37
180.75
182.57
182.07
179.51
175.23
169.65
163.18
156.15
148.81
141.30
133.69
126.02
118.33
110.69
103.16
95.80
88.68
81.83
75.25
68.95
62.95
57.25
51.86
46.78
42.03
37.59
33.45
29.61
26.07
22.81
19.83
17.11
14.67
12.48
10.54
8.83
7.35
6.07
4.97
4.05
3.27
2.62
2.09
1.65
1.30
1.01
0.79
0.61
0.48
0.37
0.29
0.22
0.18
0.14
0.11
0.09
0.08
0.07
0.06
0.05
0.05
0.05
0.06
0.08
0.10
0.13
0.17
0.22
0.28
0.35
0.42
0.50
0.59
0.68
0.78
0.87
0.97
1.07
1.17
1.28
1.40
1.52
1.66
1.81
1.97
2.14
2.34
2.56
2.81
3.08
3.39
3.74
4.13
4.55
5.02
5.55
6.12
6.76
7.46
8.23
9.07
9.98
10.95
12.00
13.13
14.35
15.66
17.06
18.54
20.15
21.81
23.56
25.39
27.30
29.33
31.48
33.77
36.20
38.79
41.38
43.91
46.22
48.12
49.38
49.79
49.16
47.35
44.26
39.68
33.62
26.18
17.57
8.11
-1.76
-11.58
-20.88
-28.68
-35.11
-40.17
-43.91
-46.46
-47.97
-48.51
-48.16
-47.34
-45.89
-44.12
-42.35
-40.94
-40.14
-40.00
-40.28
-40.60
-40.60
-40.04
-39.17
-38.46
-38.51
-39.76
-42.23
-45.43
-48.63
-51.09
-52.42
-52.98
-53.57
-55.23
-58.65
-63.90
-70.11
-76.03
-80.53
-82.87
-83.20
-82.25
-80.92
-79.98
-80.46
-82.51
-86.13
-90.39
-92.86
-89.89
-77.83
-54.88
-22.57
14.25
49.14
76.38
93.16
100.09
100.03
96.21
90.80
84.56
77.64
70.42
63.87
59.11
56.74
56.40
56.93
57.08
55.91
53.39
50.38
48.13
47.84
50.15
54.54
59.22
61.64
59.43
51.73
39.91
27.23
17.54
13.50
15.49
21.55
28.54
33.59
35.22
33.44
29.07
22.99
15.81
8.24
1.49
-2.75
-2.98
1.09
8.07
15.34
20.16
20.88
17.47
11.24
3.87
-3.56
-10.86
-18.83
-28.02
-38.59
-50.24
-62.24
-73.76
-83.78
-91.19
-94.90
-94.15
-88.92
-80.07
-68.92
-56.74
-44.28
-31.84
-19.70
-8.59
0.19
5.07
4.69
-1.63
-13.55
-29.63
-47.33
-63.31
-73.92
-76.05
-67.91
-49.67
-23.48
7.08
37.84
64.92
85.35
97.37
100.44
95.13
82.77
64.94
43.05
18.10
-9.09
-37.30
-64.51
-87.85
-104.22
-111.36
-108.63
-97.14
-79.31
-57.91
-35.27
-12.97
8.06
27.16
43.59
56.55
65.34
69.52
69.10
64.35
55.73
43.85
29.69
14.91
1.98
-6.27
-7.61
-1.33
11.27
27.32
43.62
58.02
70.03
80.51
90.48
99.91
107.25
109.91
105.41
92.49
71.60
44.76
14.82
-15.04
-41.74
-62.31
-74.32
-76.38
-68.71
-53.39
-33.96
-14.42
1.95
13.38
19.79
22.29
22.39
21.40
20.11
18.84
17.66
16.45
14.96
12.94
10.36
7.72
6.12
7.11
11.97
21.15
33.82
48.11
61.71
72.68
80.16
84.43
86.53
87.68
88.72
89.87
90.99
91.85
92.49
93.27
94.72
97.24
100.90
105.19
109.03
110.90
109.18
102.61
90.81
74.46
55.09
34.58
14.65
-3.56
-19.47
-32.83
-43.44
-51.19
-56.17
-59.03
-60.99
-63.64
-68.48
-76.30
-86.88
-98.92
-110.66
-120.82
-129.18
-136.75
-144.85
-153.98
-163.18
-170.14
-172.04
-166.55
-152.20
-128.23
-94.33
-50.53
1.67
57.87
110.45
150.17
169.67
166.64
144.77
111.25
73.75
37.07
2.18
-32.42
-67.75
-102.21
-131.38
-150.12
-155.80
-148.60
-131.18
-107.22
-80.26
-53.29
-29.57
-13.20
-9.64
-24.85
-61.22
-115.34
-177.98
-237.09
-282.01
-307.29
-313.79
-301.76
-276.37
-244.48
-211.94
-181.97
-155.59
-133.09
-116.95
-106.38
-99.75
-95.69
-92.32
-87.84
-81.10
-72.37
-62.93
-54.09
-45.96
-37.97
-29.63
-20.08
-8.67
4.55
18.71
32.63
45.58
58.03
71.14
86.03
103.65
124.25
147.13
170.81
193.83
215.70
237.56
261.49
289.45
322.26
358.84
395.94
428.95
453.16
465.06
463.11
447.66
420.64
385.49
346.77
309.33
277.11
251.82
232.34
214.99
195.01
168.65
134.90
95.53
53.71
11.83
-29.76
-72.30
-116.88
-162.14
-203.45
-233.83
-247.04
-240.68
-217.53
-184.29
-148.11
-114.02
-83.44
-55.34
-27.66
0.60
28.63
54.27
75.28
90.73
100.63
105.58
106.08
103.20
98.36
93.03
88.13
81.16
70.78
56.69
42.73
30.43
20.49
11.88
3.32
-7.11
-21.70
-42.33
-70.78
-108.31
-154.92
-207.41
-259.16
-301.09
-324.20
-322.29
-293.72
-242.68
-178.23
-112.43
-57.10
-21.74
-11.92
-28.81
-69.18
-125.74
-188.75
-247.74
-293.47
-319.09
-321.22
-300.20
-259.90
-207.08
-149.65
-95.23
-49.38
-14.83
8.78
24.05
34.54
43.43
52.55
62.29
71.93
80.29
86.38
89.82
90.80
89.58
86.16
80.09
70.81
58.01
42.11
24.43
6.96
-8.03
-18.62
-23.75
-23.35
-18.14
-9.26
2.17
15.23
29.12
42.95
55.56
65.63
71.95
73.81
71.29
65.29
57.29
48.89
41.40
35.47
31.02
27.45
24.10
20.80
18.13
17.31
19.66
26.06
36.40
49.51
63.33
75.44
83.43
85.48
80.69
69.38
53.06
33.99
14.66
-2.82
-16.98
-27.01
-32.43
-33.03
-28.88
-20.57
-9.39
2.90
14.44
23.73
29.94
32.81
32.57
29.67
24.72
18.44
11.69
5.35
0.18
-3.37
-5.29
-5.87
-5.67
-5.31
-5.30
-5.94
-7.22
-8.85
-10.28
-10.95
-10.46
-8.69
-5.82
-2.33
1.18
4.12
6.06
6.82
6.45
5.16
3.19
0.70
-2.18
-5.29
-8.37
-11.04
-12.92
-13.76
-13.60
-12.65
-11.24
-9.54
-7.62
-5.54
-3.42
-1.57
-0.30
0.17
-0.09
-0.75
-1.43
-1.85
-1.94
-1.90
-2.05
-2.68
-3.90
-5.67
-7.72
-9.57
-10.69
-10.59
-9.07
-6.30
-2.81
0.66
3.40
4.92
5.03
3.91
2.02
-0.01
-1.55
-2.19
-1.88
-0.94
-0.00
0.41
0.03
-0.95
-2.07
-2.86
-3.07
-2.79
-2.26
-1.74
-1.32
-1.06
-0.98
-1.29
-2.24
-3.99
-6.39
-8.96
-11.03
-12.01
-11.63
-10.06
-7.79
-5.49
-3.71
-2.74
-2.53
-2.76
-3.02
-2.96
-2.42
-1.45
-0.26
0.96
2.03
2.92
3.67
4.40
5.16
6.02
6.90
7.69
8.15
8.02
7.13
5.47
3.25
0.79
-1.49
-3.25
-4.32
-4.62
-4.29
-3.58
-2.76
-2.15
-1.94
-2.07
-2.26
-2.08
-1.23
0.28
2.10
3.59
4.18
3.60
1.97
-0.27
-2.64
-4.75
-6.39
-7.49
-8.08
-8.18
-7.92
-7.50
-7.12
-6.96
-7.05
-7.21
-7.19
-6.72
-5.65
-3.95
-1.79
0.50
2.52
3.92
4.55
4.53
4.17
3.89
4.00
4.56
5.44
6.40
7.25
7.79
7.93
7.56
6.70
5.50
4.30
3.45
3.13
3.26
3.47
3.35
2.73
1.76
0.85
0.40
0.60
1.34
2.29
3.15
3.71
3.88
3.60
2.77
1.35
-0.62
-2.87
-4.94
-6.34
-6.75
-6.19
-4.97
-3.56
-2.37
-1.61
-1.28
-1.21
-1.24
-1.23
-1.08
-0.78
-0.26
0.53
1.62
2.91
4.20
5.14
5.42
4.87
3.58
1.94
0.52
-0.21
-0.06
0.75
1.70
2.26
2.15
1.36
0.17
-1.08
-2.20
-3.05
-3.49
-3.35
-2.48
-0.88
1.13
3.01
4.15
4.22
3.31
1.96
0.87
0.65
1.47
3.06
4.80
5.91
5.80
4.27
1.56
-1.69
-4.65
-6.57
-7.03
-5.97
-3.67
-0.63
2.64
5.69
8.20
9.98
10.95
11.17
10.87
10.38
10.01
9.94
10.09
10.19
9.92
9.07
7.65
5.94
4.34
3.18
2.58
2.44
2.46
2.28
1.52
-0.07
-2.58
-5.85
-9.47
-12.82
-15.25
-16.24
-15.58
-13.40
-10.14
-6.37
-2.71
0.32
2.28
2.98
2.52
1.33
0.10
-0.48
-0.02
1.29
2.87
3.89
3.64
1.85
-1.32
-5.39
-9.86
-14.27
-18.35
-21.86
-24.61
-26.43
-27.24
-27.11
-26.23
-24.78
-22.88
-20.59
-17.95
-15.08
-12.21
-9.65
-7.61
-6.21
-5.44
-5.19
-5.36
-5.80
-6.32
-6.63
-6.45
-5.69
-4.54
-3.45
-2.88
-3.11
-4.03
-5.18
-5.95
-5.95
-5.16
-4.00
-3.04
-2.77
-3.35
-4.54
-5.89
-6.94
-7.43
-7.42
-7.13
-6.92
-6.99
-7.37
-7.90
-8.36
-8.57
-8.47
-8.13
-7.63
-7.02
-6.21
-5.05
-3.35
-1.00
1.97
5.32
8.66
11.45
13.05
12.95
10.90
7.22
2.87
-0.76
-2.30
-0.94
3.21
9.01
14.74
18.56
19.28
16.77
12.01
7.04
4.40
6.65
15.50
31.32
52.74
76.92
100.19
119.24
132.29
139.83
144.60
149.86
157.89
168.12
177.33
180.72
174.06
155.60
126.74
91.42
53.72
16.62
-18.77
-52.05
-82.64
-109.10
-129.31
-141.79
-146.47
-145.78
-140.34
-130.61
-116.14
-96.46
-71.88
-43.35
-15.11
11.10
32.69
46.03
47.24
33.73
5.57
-34.87
-82.10
-128.28
-164.47
-183.64
-182.79
-163.51
-130.75
-91.41
-51.49
-13.71
22.86
61.53
106.28
156.05
203.47
241.23
262.72
263.68
244.19
208.46
163.26
115.11
68.16
24.51
-14.91
-49.90
-80.16
-105.16
-125.42
-143.31
-163.02
-189.09
-223.13
-261.31
-294.57
-310.84
-299.87
-258.28
-192.05
-115.07
-44.33
6.43
30.62
28.56
4.54
-36.47
-90.32
-152.65
-216.85
-273.57
-312.51
-326.33
-314.08
-281.84
-240.15
-199.65
-167.12
-144.06
-127.82
-113.96
-99.06
-81.92
-63.20
-44.26
-26.08
-8.66
8.75
27.18
47.45
69.96
95.00
122.93
154.11
188.21
223.52
256.65
283.08
298.61
300.89
290.43
270.33
245.00
218.61
193.93
172.20
153.63
138.13
125.63
115.96
108.51
102.18
95.62
87.91
78.85
69.02
59.42
50.87
43.66
37.46
31.64
25.62
19.23
12.73
6.67
1.55
-2.36
-5.06
-6.81
-8.00
-9.10
-10.52
-12.52
-15.13
-17.98
-20.42
-21.80
-21.68
-20.02
-17.14
-13.48
-9.31
-4.66
0.59
6.38
12.36
17.88
22.26
25.14
26.56
26.93
26.75
26.44
26.18
25.94
25.48
24.53
22.75
19.98
16.32
12.19
8.20
4.97
2.82
1.72
1.24
0.91
0.35
-0.59
-1.85
-3.30
-4.80
-6.16
-7.20
-7.68
-7.42
-6.38
-4.66
-2.46
-0.03
2.35
4.40
5.87
6.54
6.35
5.47
4.27
3.25
2.85
3.34
4.69
6.63
8.73
10.52
11.58
11.58
10.37
7.84
4.05
-0.86
-6.61
-12.82
-19.01
-24.63
-29.16
-32.21
-33.58
-33.28
-31.54
-28.71
-25.22
-21.45
-17.70
-14.11
-10.68
-7.37
-4.14
-1.05
1.74
4.06
5.81
6.99
7.73
8.14
8.26
8.10
7.66
7.04
6.45
6.08
6.01
6.18
6.42
6.53
6.45
6.21
5.92
5.61
5.22
4.60
3.57
1.99
-0.16
-2.77
-5.63
-8.43
-10.91
-12.88
-14.31
-15.41
-16.45
-17.63
-18.97
-20.26
-21.22
-21.57
-21.20
-20.17
-18.68
-17.04
-15.54
-14.39
-13.66
-13.27
-12.98
-12.46
-11.38
-9.56
-7.03
-4.04
-0.93
1.99
4.57
6.77
8.72
10.52
12.21
13.71
14.83
15.38
15.27
14.64
13.80
13.15
12.99
13.41
14.26
15.28
16.14
16.56
16.35
15.48
14.03
12.22
10.32
8.53
6.94
5.45
3.95
2.35
0.75
-0.64
-1.61
-2.13
-2.31
-2.38
-2.53
-2.81
-3.16
-3.50
-3.85
-4.31
-5.03
-6.08
-7.33
-8.50
-9.23
-9.25
-8.51
-7.20
-5.69
-4.34
-3.36
-2.78
-2.51
-2.38
-2.28
-2.20
-2.16
-2.22
-2.44
-2.86
-3.44
-4.11
-4.63
-4.77
-4.35
-3.32
-1.85
-0.24
1.18
2.10
2.34
1.84
0.73
-0.79
-2.37
-3.64
-4.29
-4.17
-3.31
-1.93
-0.38
1.03
2.02
2.53
2.65
2.63
2.74
3.26
4.25
5.65
7.19
8.49
9.23
9.26
8.69
7.87
7.22
7.01
7.25
7.67
7.93
7.74
7.02
5.86
4.41
2.78
1.02
-0.73
-2.20
-3.05
-3.02
-2.05
-0.45
1.33
2.79
3.65
3.85
3.49
2.75
1.80
0.76
-0.26
-1.16
-1.94
-2.61
-3.23
-3.89
-4.60
-5.36
-6.04
-6.50
-6.52
-5.95
-4.72
-2.87
-0.70
1.45
3.16
4.19
4.53
4.47
4.46
4.89
5.94
7.45
9.07
10.38
11.11
11.25
11.01
10.71
10.59
10.72
10.99
11.21
11.19
10.84
10.08
8.87
7.16
4.92
2.17
-0.95
-4.22
-7.45
-10.44
-13.06
-15.22
-16.83
-17.80
-18.15
-17.95
-17.43
-16.87
-16.52
-16.51
-16.77
-17.09
-17.21
-16.93
-16.21
-15.14
-13.99
-12.99
-12.30
-11.87
-11.52
-10.99
-10.10
-8.91
-7.62
-6.51
-5.74
-5.29
-4.94
-4.42
-3.63
-2.63
-1.67
-1.02
-0.81
-0.91
-1.08
-1.06
-0.78
-0.36
-0.02
0.06
-0.09
-0.29
-0.28
0.07
0.68
1.32
1.66
1.53
0.91
-0.05
-1.15
-2.21
-3.16
-4.05
-4.88
-5.62
-6.10
-6.12
-5.53
-4.34
-2.80
-1.27
-0.10
0.53
0.66
0.53
0.38
0.32
0.29
0.15
-0.21
-0.75
-1.28
-1.60
-1.58
-1.27
-0.88
-0.60
-0.61
-0.90
-1.35
-1.74
-1.82
-1.44
-0.58
0.63
1.90
2.92
3.54
3.81
4.00
4.42
5.31
6.61
8.05
9.19
9.67
9.32
8.19
6.49
4.45
2.33
0.33
-1.37
-2.71
-3.66
-4.24
-4.49
-4.54
-4.51
-4.61
-5.04
-5.90
-7.03
-8.08
-8.59
-8.18
-6.83
-4.87
-2.83
-1.17
-0.07
0.63
1.21
1.88
2.68
3.47
4.15
4.68
5.06
5.28
5.24
4.89
4.27
3.57
3.05
2.88
2.99
3.14
3.06
2.60
1.81
0.92
0.13
-0.41
-0.65
-0.59
-0.27
0.23
0.79
1.23
1.44
1.42
1.26
1.12
1.06
1.08
1.09
0.98
0.69
0.20
-0.48
-1.29
-2.14
-2.88
-3.29
-3.21
-2.62
-1.65
-0.57
0.30
0.72
0.59
-0.06
-1.06
-2.24
-3.40
-4.34
-4.89
-4.95
-4.50
-3.71
-2.86
-2.27
-2.10
-2.36
-2.87
-3.35
-3.62
-3.60
-3.34
-2.94
-2.48
-2.01
-1.55
-1.17
-0.89
-0.70
-0.53
-0.28
0.13
0.67
1.26
1.74
2.02
2.05
1.93
1.74
1.59
1.52
1.52
1.57
1.63
1.66
1.65
1.60
1.60
1.79
2.26
2.99
3.83
4.54
4.88
4.71
4.04
3.01
1.88
0.86
0.15
-0.20
-0.27
-0.20
-0.22
-0.48
-1.09
-1.97
-2.98
-3.92
-4.62
-4.94
-4.85
-4.28
-3.23
-1.78
-0.14
1.36
2.42
2.90
2.90
2.75
2.80
3.25
4.09
5.11
6.05
6.81
7.41
7.93
8.37
8.55
8.22
7.17
5.43
3.28
1.16
-0.57
-1.75
-2.51
-3.14
-3.95
-5.09
-6.49
-7.93
-9.08
-9.75
-9.87
-9.56
-8.99
-8.31
-7.53
-6.62
-5.53
-4.34
-3.25
-2.50
-2.22
-2.34
-2.60
-2.76
-2.66
-2.35
-2.01
-1.77
-1.63
-1.39
-0.88
-0.01
1.09
2.16
2.88
3.08
2.80
2.21
1.58
1.18
1.17
1.58
2.29
3.07
3.68
3.89
3.62
2.87
1.73
0.31
-1.24
-2.71
-3.84
-4.37
-4.18
-3.37
-2.31
-1.41
-0.95
-0.96
-1.26
-1.59
-1.83
-2.03
-2.33
-2.81
-3.44
-4.01
-4.26
-4.02
-3.29
-2.27
-1.28
-0.65
-0.61
-1.18
-2.16
-3.18
-3.88
-4.11
-3.97
-3.77
-3.79
-4.13
-4.62
-4.99
-4.93
-4.31
-3.22
-1.86
-0.49
0.69
1.50
1.90
1.94
1.72
1.50
1.51
1.89
2.61
3.46
4.11
4.33
4.07
3.48
2.80
2.22
1.79
1.47
1.18
0.90
0.70
0.64
0.76
1.00
1.23
1.35
1.31
1.20
1.13
1.19
1.42
1.74
2.06
2.33
2.56
2.77
2.99
3.19
3.31
3.22
2.86
2.17
1.24
0.16
-0.96
-2.01
-2.91
-3.68
-4.40
-5.19
-6.11
-7.13
-8.07
-8.60
-8.45
-7.52
-5.98
-4.20
-2.60
-1.44
-0.79
-0.46
-0.24
0.06
0.50
0.99
1.49
1.95
2.41
2.85
3.21
3.34
3.10
2.48
1.63
0.85
0.39
0.37
0.71
1.19
1.57
1.72
1.65
1.47
1.26
1.02
0.68
0.21
-0.35
-0.79
-0.83
-0.33
0.68
1.89
2.87
3.28
3.02
2.28
1.47
0.95
0.87
1.12
1.47
1.67
1.65
1.45
1.16
0.79
0.27
-0.48
-1.45
-2.48
-3.32
-3.78
-3.84
-3.62
-3.31
-3.04
-2.79
-2.44
-1.90
-1.18
-0.42
0.13
0.32
0.08
-0.52
-1.31
-2.12
-2.78
-3.15
-3.10
-2.56
-1.57
-0.32
0.90
1.86
2.40
2.50
2.21
1.64
0.89
0.11
-0.46
-0.61
-0.28
0.39
1.04
1.29
0.98
0.22
-0.60
-1.08
-1.03
-0.52
0.10
0.50
0.48
0.04
-0.64
-1.29
-1.68
-1.70
-1.40
-1.03
-0.97
-1.52
-2.75
-4.40
-5.97
-7.00
-7.24
-6.87
-6.29
-5.91
-5.93
-6.23
-6.51
-6.49
-6.06
-5.28
-4.29
-3.20
-2.09
-0.99
0.07
1.00
1.68
2.05
2.15
2.09
2.02
2.05
2.18
2.30
2.25
1.86
1.14
0.24
-0.54
-0.89
-0.70
-0.09
0.67
1.34
1.81
2.16
2.50
2.85
3.07
2.93
2.29
1.21
-0.08
-1.28
-2.17
-2.74
-3.11
-3.38
-3.58
-3.62
-3.44
-2.98
-2.27
-1.36
-0.24
1.13
2.77
4.64
6.55
8.23
9.44
10.04
10.01
9.44
8.42
7.05
5.49
3.90
2.52
1.61
1.28
1.50
2.05
2.62
2.91
2.78
2.28
1.66
1.19
1.06
1.31
1.81
2.44
3.07
3.67
4.18
4.48
4.40
3.77
2.65
1.30
0.18
-0.27
0.17
1.35
2.85
4.14
4.74
4.46
3.32
1.61
-0.22
-1.72
-2.55
-2.59
-2.02
-1.22
-0.58
-0.31
-0.39
-0.68
-1.10
-1.71
-2.68
-4.12
-5.89
-7.61
-8.80
-9.12
-8.56
-7.44
-6.19
-5.21
-4.61
-4.27
-3.96
-3.54
-3.02
-2.54
-2.22
-2.07
-1.91
-1.53
-0.77
0.34
1.56
2.55
3.09
3.13
2.90
2.68
2.70
2.99
3.37
3.59
3.51
3.11
2.57
2.13
2.02
2.28
2.83
3.43
3.83
3.86
3.48
2.79
2.03
1.41
1.06
0.97
0.97
0.92
0.76
0.54
0.36
0.27
0.18
-0.07
-0.62
-1.45
-2.33
-3.01
-3.37
-3.51
-3.75
-4.35
-5.39
-6.61
-7.59
-7.91
-7.42
-6.24
-4.76
-3.41
-2.51
-2.10
-2.03
-2.07
-1.94
-1.57
-0.97
-0.29
0.30
0.70
0.87
0.88
0.81
0.70
0.56
0.39
0.26
0.29
0.64
1.38
2.46
3.71
4.87
5.72
6.23
6.45
6.57
6.77
7.07
7.42
7.67
7.70
7.51
7.16
6.79
6.46
6.15
5.73
5.09
4.18
3.05
1.86
0.82
0.06
-0.35
-0.43
-0.27
0.02
0.33
0.48
0.29
-0.41
-1.68
-3.39
-5.28
-7.01
-8.22
-8.73
-8.52
-7.77
-6.75
-5.72
-4.82
-4.08
-3.39
-2.65
-1.81
-0.92
-0.17
0.21
0.11
-0.40
-1.08
-1.62
-1.83
-1.76
-1.59
-1.58
-1.81
-2.19
-2.53
-2.64
-2.53
-2.34
-2.21
-2.18
-2.07
-1.70
-0.95
0.07
1.07
1.73
1.89
1.67
1.33
1.20
1.41
1.94
2.60
3.25
3.81
4.30
4.71
5.02
5.22
5.32
5.42
5.61
5.89
6.12
6.10
5.67
4.85
3.85
2.92
2.29
1.93
1.70
1.41
0.93
0.36
-0.18
-0.54
-0.69
-0.68
-0.65
-0.65
-0.65
-0.53
-0.21
0.31
0.89
1.25
1.14
0.46
-0.66
-1.84
-2.65
-2.76
-2.16
-1.08
0.07
0.94
1.37
1.43
1.33
1.22
1.13
0.90
0.34
-0.63
-1.85
-3.01
-3.80
-4.12
-4.11
-3.98
-3.89
-3.82
-3.61
-3.12
-2.38
-1.54
-0.84
-0.44
-0.48
-0.95
-1.85
-3.09
-4.53
-5.89
-6.82
-7.07
-6.57
-5.57
-4.44
-3.55
-3.07
-2.96
-3.01
-2.99
-2.74
-2.22
-1.49
-0.65
0.21
1.04
1.85
2.61
3.31
3.88
4.26
4.40
4.31
4.04
3.66
3.24
2.81
2.44
2.19
2.18
2.43
2.88
3.42
3.92
4.32
4.60
4.83
5.02
5.14
5.11
4.87
4.41
3.77
3.04
2.31
1.70
1.18
0.77
0.39
0.01
-0.40
-0.78
-1.08
-1.31
-1.55
-2.05
-2.97
-4.36
-6.04
-7.62
-8.76
-9.23
-9.11
-8.59
-7.91
-7.17
-6.35
-5.40
-4.37
-3.44
-2.77
-2.45
-2.39
-2.35
-2.07
-1.47
-0.65
0.19
0.84
1.22
1.42
1.57
1.76
2.00
2.26
2.55
2.99
3.69
4.71
5.93
7.03
7.75
7.92
7.63
7.08
6.49
6.02
5.66
5.35
5.00
4.59
4.13
3.68
3.26
2.85
2.43
1.97
1.42
0.80
0.15
-0.44
-0.84
-1.01
-1.03
-1.09
-1.44
-2.16
-3.15
-4.08
-4.58
-4.46
-3.68
-2.45
-1.06
0.28
1.44
2.36
2.96
3.13
2.80
2.03
1.01
0.09
-0.47
-0.55
-0.26
0.17
0.59
1.00
1.60
2.57
4.02
5.79
7.57
9.00
9.89
10.28
10.49
10.98
12.06
13.78
15.90
17.92
19.35
19.85
19.39
18.19
16.58
14.82
12.98
11.00
8.83
6.52
4.30
2.50
1.37
1.00
1.28
2.03
3.07
4.29
5.56
6.68
7.29
7.02
5.66
3.45
0.99
-0.96
-1.82
-1.46
-0.23
1.23
2.32
2.76
2.55
2.05
1.76
2.20
3.85
6.94
11.36
16.58
21.83
26.31
29.56
31.63
33.08
34.68
37.00
40.16
43.79
47.23
49.91
51.52
52.08
51.79
50.75
48.94
46.28
42.70
38.24
32.96
26.87
20.00
12.60
5.37
-0.52
-3.84
-3.84
-0.65
4.74
11.05
17.25
22.88
28.03
32.97
37.90
42.99
48.54
54.94
62.40
70.58
78.28
83.73
85.51
83.43
78.92
74.51
72.52
73.80
77.13
79.79
78.79
72.31
60.41
44.99
28.74
14.12
2.54
-5.83
-11.67
-15.97
-19.69
-23.67
-28.96
-37.21
-50.69
-71.44
-99.83
-133.13
-165.31
-188.76
-197.38
-189.44
-168.52
-141.75
-116.19
-95.69
-79.90
-65.99
-51.70
-37.52
-26.45
-21.59
-23.62
-29.81
-35.71
-37.93
-36.43
-34.50
-36.54
-45.27
-59.96
-76.82
-91.28
-100.55
-104.92
-107.06
-109.89
-114.53
-119.40
-121.41
-117.96
-108.99
-97.44
-87.89
-84.44
-88.61
-98.91
-111.73
-123.42
-132.05
-137.84
-142.59
-148.21
-155.79
-165.28
-175.98
-187.02
-197.44
-205.70
-209.46
-205.95
-193.17
-171.52
-144.53
-118.09
-98.45
-89.63
-91.70
-100.61
-109.78
-112.65
-105.47
-88.80
-67.46
-48.60
-38.73
-40.85
-53.10
-69.57
-82.85
-87.19
-80.62
-65.13
-44.97
-24.16
-4.73
13.57
32.13
52.00
72.91
93.42
111.73
126.98
139.60
151.21
163.81
178.86
196.88
217.73
241.58
269.29
301.87
338.92
377.09
409.65
428.19
425.71
399.74
353.64
295.24
233.46
174.48
119.92
67.69
15.12
-37.71
-86.56
-124.27
-143.97
-142.07
-119.55
-80.88
-31.75
22.83
79.18
133.85
182.51
219.81
240.83
242.92
226.92
196.82
158.30
117.05
77.81
44.51
20.41
8.20
9.30
22.89
45.62
71.83
94.53
106.81
103.38
82.51
47.66
7.94
-23.68
-34.59
-17.82
24.55
81.42
137.10
177.52
195.34
191.50
172.65
146.71
119.24
92.48
66.98
43.90
26.04
16.79
17.94
27.96
42.13
54.26
59.46
56.01
45.48
31.61
17.99
6.08
-5.41
-20.14
-42.82
-77.70
-127.05
-190.03
-261.82
-333.97
-395.91
-437.72
-453.12
-441.34
-406.93
-357.75
-301.98
-245.87
-193.08
-145.39
-104.09
-70.75
-46.97
-33.49
-29.52
-32.93
-41.08
-51.95
-64.62
-78.81
-94.28
-110.03
-124.21
-134.56
-139.06
-136.45
-126.52
-110.07
-88.79
-65.14
-41.91
-21.54
-5.36
7.00
17.40
28.26
41.21
56.10
71.05
83.39
91.06
93.53
91.94
88.27
84.47
81.65
79.91
78.65
77.11
74.96
72.56
70.74
70.40
71.80
74.29
76.50
77.03
75.27
71.77
68.01
65.60
65.42
67.12
69.32
70.37
69.17
65.67
60.82
56.02
52.40
50.29
49.10
47.62
44.51
38.90
30.75
21.01
11.18
2.90
-2.74
-5.53
-6.08
-5.49
-4.77
-4.55
-5.00
-6.08
-7.87
-10.64
-14.62
-19.67
-25.06
-29.70
-32.63
-33.54
-32.93
-31.77
-30.95
-30.78
-30.91
-30.74
-29.83
-28.19
-26.29
-24.64
-23.48
-22.63
-21.70
-20.33
-18.55
-16.59
-14.80
-13.31
-12.00
-10.56
-8.81
-6.80
-4.81
-3.06
-1.50
0.22
2.63
6.04
10.38
15.14
19.67
23.35
25.88
27.25
27.67
27.54
27.34
27.59
28.75
31.01
34.24
37.98
41.68
44.92
47.64
50.10
52.77
56.02
59.99
64.47
68.88
72.45
74.40
74.12
71.38
66.37
59.60
51.67
42.94
33.37
22.58
10.23
-3.59
-18.09
-31.87
-43.38
-51.52
-56.18
-58.25
-59.33
-61.04
-64.44
-69.65
-75.97
-82.21
-87.15
-89.97
-90.34
-88.42
-84.67
-79.71
-74.26
-69.06
-64.72
-61.52
-59.26
-57.25
-54.44
-49.83
-42.88
-33.88
-23.82
-14.12
-6.05
-0.27
3.36
5.50
6.91
8.05
8.94
9.35
9.10
8.34
7.50
6.95
6.82
6.88
6.77
6.38
6.06
6.49
8.36
11.89
16.64
21.71
26.17
29.45
31.43
32.34
32.49
32.14
31.47
30.55
29.60
28.91
28.79
29.42
30.74
32.54
34.59
36.77
38.68
39.96
40.26
39.44
37.73
35.73
34.32
34.31
36.01
38.14
38.75
35.88
28.51
17.00
2.83
-12.15
-26.52
-39.50
-52.13
-65.66
-81.02
-98.29
-116.81
-135.81
-154.77
-173.32
-190.83
-207.79
-224.37
-240.58
-256.22
-271.16
-285.53
-299.52
-312.82
-314.38
-295.04
-250.02
-182.44
-102.39
-22.16
48.71
105.41
147.37
176.50
194.24
202.12
201.68
195.07
184.67
172.71
160.66
149.27
139.00
129.21
119.45
109.32
99.12
89.40
80.54
72.67
65.52
58.50
50.06
38.94
25.17
11.59
3.25
5.54
21.25
48.64
81.51
111.23
131.78
139.49
135.52
124.14
110.07
96.32
83.71
71.83
60.49
50.23
42.00
36.75
34.37
33.67
33.02
30.94
27.05
22.17
17.60
14.35
12.97
13.09
13.61
13.19
10.79
5.14
-2.65
-11.17
-19.27
-26.22
-31.86
-36.51
-40.66
-44.66
-48.53
-51.81
-54.17
-55.39
-55.49
-54.69
-53.45
-52.21
-51.32
-50.90
-50.77
-50.84
-51.01
-51.24
-51.51
-51.96
-52.60
-53.48
-54.63
-55.95
-57.43
-59.04
-60.72
-62.34
-63.85
-64.88
-65.19
-64.51
-62.55
-59.06
-53.81
-46.79
-37.71
-26.78
-13.92
0.61
16.44
33.11
50.13
66.99
83.21
98.46
111.09
121.19
128.84
134.05
136.84
137.20
135.18
130.80
125.39
118.10
108.82
97.54
84.40
69.66
53.69
36.98
19.34
2.02
-14.42
-29.25
-42.10
-52.79
-61.28
-67.66
-72.09
-74.86
-76.20
-76.73
-76.70
-76.31
-75.67
-74.72
-73.30
-71.23
-68.32
-64.40
-59.65
-54.11
-47.87
-41.07
-33.82
-26.23
-18.46
-10.72
-3.32
3.22
8.54
12.42
14.91
16.36
17.25
18.14
19.30
20.63
21.68
21.95
21.18
19.53
17.66
16.45
16.83
19.09
22.73
26.65
29.64
30.91
30.50
29.32
28.77
30.33
34.45
40.41
46.60
51.42
53.90
54.19
53.49
53.45
55.94
62.20
72.88
87.91
105.99
123.86
136.34
137.54
120.96
86.34
39.17
-11.24
-55.18
-86.14
-102.62
-107.40
-105.12
-99.81
-93.40
-86.57
-79.82
-74.05
-70.25
-68.92
-69.64
-71.11
-71.91
-70.94
-68.23
-65.18
-64.43
-68.53
-79.32
-96.46
-116.40
-132.62
-137.81
-126.71
-99.05
-59.86
-17.46
20.16
48.59
68.02
81.60
91.97
99.33
101.29
95.49
82.36
66.02
52.70
47.56
52.25
62.64
73.15
78.39
76.00
67.10
55.06
43.55
35.09
31.74
33.68
41.40
55.39
75.22
98.34
119.17
130.45
123.99
97.70
56.04
8.94
-32.62
-60.74
-73.20
-73.24
-66.63
-58.49
-51.32
-45.90
-42.08
-39.84
-39.38
-39.29
-37.19
-30.34
-17.29
1.43
22.58
41.94
56.16
64.17
67.35
67.91
67.83
67.81
67.42
65.35
60.55
52.64
42.10
30.13
17.70
5.87
-4.59
-13.28
-20.62
-27.83
-36.96
-50.81
-69.82
-94.90
-125.55
-159.05
-190.34
-213.17
-222.18
-215.08
-193.85
-163.99
-132.72
-105.71
-85.16
-69.85
-56.79
-43.41
-29.09
-15.10
-3.40
4.60
9.14
11.81
14.38
17.77
21.62
24.72
26.08
25.66
24.34
23.50
24.15
26.19
28.66
30.28
30.39
29.34
28.31
28.47
30.25
33.02
35.35
35.72
33.39
28.71
23.00
17.93
14.66
13.37
13.28
12.99
11.31
7.70
2.53
-3.24
-8.57
-12.83
-15.94
-18.05
-19.16
-18.89
-16.63
-12.03
-5.41
2.08
8.93
13.91
16.64
17.57
17.66
17.76
18.27
19.12
20.07
20.96
21.85
22.76
23.52
23.68
22.65
20.02
15.84
10.64
5.37
1.06
-1.43
-1.63
0.41
4.10
8.49
12.56
15.53
17.14
17.60
17.37
16.87
16.23
15.33
13.91
11.91
9.50
7.00
4.75
2.89
1.33
-0.13
-1.68
-3.35
-5.06
-6.66
-8.08
-9.32
-10.49
-11.72
-13.10
-14.61
-16.14
-17.54
-18.69
-19.52
-19.99
-20.11
-19.83
-19.08
-17.75
-15.75
-13.13
-10.07
-6.86
-3.81
-1.14
1.00
2.63
3.84
4.71
5.33
5.76
6.03
6.17
6.16
5.96
5.59
5.18
4.95
5.16
5.95
7.19
8.51
9.41
9.52
8.82
7.69
6.70
6.38
6.97
8.24
9.76
11.01
11.66
11.65
11.11
10.25
9.24
8.16
7.03
5.86
4.75
3.80
3.11
2.71
2.50
2.40
2.30
2.11
1.83
1.48
1.09
0.72
0.37
0.03
-0.38
-0.95
-1.75
-2.77
-3.82
-4.64
-4.92
-4.52
-3.55
-2.36
-1.45
-1.23
-1.88
-3.21
-4.75
-5.89
-6.19
-5.54
-4.22
-2.73
-1.58
-1.03
-0.97
-1.09
-0.98
-0.36
0.76
2.14
3.35
4.01
3.86
2.86
1.21
-0.76
-2.62
-3.97
-4.53
-4.23
-3.20
-1.75
-0.28
0.87
1.45
1.40
0.83
0.01
-0.78
-1.28
-1.34
-0.96
-0.27
0.50
1.12
1.47
1.51
1.34
1.11
0.96
0.97
1.13
1.41
1.77
2.22
2.69
3.11
3.30
3.10
2.45
1.47
0.38
-0.56
-1.13
-1.32
-1.26
-1.13
-1.04
-1.01
-0.94
-0.72
-0.34
0.13
0.50
0.63
0.41
-0.14
-0.88
-1.65
-2.34
-2.92
-3.42
-3.90
-4.36
-4.75
-4.98
-5.02
-4.96
-4.96
-5.18
-5.66
-6.24
-6.66
-6.66
-6.12
-5.18
-4.06
-3.03
-2.25
-1.73
-1.40
-1.20
-1.10
-1.16
-1.43
-1.88
-2.30
-2.42
-1.96
-0.86
0.69
2.25
3.37
3.81
3.68
3.40
3.45
4.09
5.22
6.50
7.50
7.95
7.82
7.26
6.47
5.60
4.74
3.95
3.34
3.04
3.14
3.57
4.12
4.46
4.27
3.35
1.74
-0.33
-2.47
-4.24
-5.29
-5.49
-4.96
-3.95
-2.76
-1.61
-0.61
0.20
0.81
1.19
1.28
1.06
0.55
-0.14
-0.91
-1.67
-2.41
-3.08
-3.64
-3.97
-3.94
-3.43
-2.45
-1.19
0.10
1.15
1.79
2.03
1.98
1.84
1.78
1.92
2.29
2.87
3.55
4.15
4.46
4.28
3.51
2.26
0.75
-0.70
-1.84
-2.56
-2.85
-2.80
-2.50
-1.99
-1.38
-0.78
-0.32
-0.06
-0.01
-0.03
-0.00
0.19
0.55
0.94
1.19
1.13
0.66
-0.21
-1.34
-2.53
-3.53
-4.10
-4.11
-3.53
-2.41
-0.84
1.10
3.29
5.55
7.61
9.17
10.03
10.21
9.95
9.64
9.58
9.83
10.18
10.28
9.85
8.81
7.27
5.47
3.62
1.86
0.27
-1.09
-2.16
-2.92
-3.40
-3.71
-3.94
-4.22
-4.59
-5.07
-5.65
-6.29
-6.91
-7.40
-7.68
-7.72
-7.63
-7.56
-7.66
-7.98
-8.47
-9.05
-9.60
-10.11
-10.50
-10.77
-10.90
-10.98
-11.23
-11.96
-13.49
-15.97
-19.19
-22.52
-25.01
-25.47
-22.90
-16.78
-7.39
4.11
15.91
26.07
33.08
36.20
35.57
31.99
26.53
20.21
13.86
8.07
3.24
-0.47
-3.04
-4.62
-5.50
-5.93
-6.11
-6.18
-6.15
-5.99
-5.64
-4.99
-3.97
-2.53
-0.74
1.31
3.50
5.76
8.04
10.21
12.00
13.09
13.14
12.03
9.91
7.20
4.40
1.91
-0.10
-1.67
-2.92
-4.00
-4.98
-5.84
-6.51
-6.90
-6.96
-6.62
-5.89
-4.89
-3.84
-2.98
-2.51
-2.46
-2.72
-3.07
-3.30
-3.26
-2.88
-2.17
-1.15
0.05
1.27
2.29
2.90
2.99
2.57
1.87
1.12
0.59
0.41
0.57
0.94
1.35
1.59
1.52
1.12
0.49
-0.15
-0.55
-0.54
-0.15
0.48
1.12
1.57
1.78
1.79
1.68
1.51
1.29
1.01
0.71
0.54
0.64
1.13
1.98
3.04
4.10
4.93
5.44
5.61
5.48
5.14
4.64
4.03
3.42
2.92
2.61
2.54
2.69
2.97
3.36
3.82
4.38
5.04
5.78
6.54
7.22
7.75
8.09
8.29
8.41
8.52
8.71
9.13
9.84
10.91
12.30
13.91
15.63
17.35
18.91
20.14
20.83
20.74
19.71
17.70
14.85
11.44
7.81
4.26
1.05
-1.68
-3.82
-5.32
-6.18
-6.51
-6.46
-6.29
-6.24
-6.52
-7.27
-8.54
-10.34
-12.67
-15.56
-18.98
-22.87
-27.10
-31.43
-35.57
-39.21
-42.13
-44.25
-45.64
-46.45
-46.80
-46.68
-45.91
-44.13
-40.90
-35.93
-29.20
-21.11
-12.39
-4.04
3.07
8.46
12.27
15.26
18.40
22.26
26.42
29.54
29.82
26.22
19.35
11.65
6.56
6.86
13.20
23.41
33.16
37.59
33.01
18.21
-5.36
-34.00
-62.78
-86.39
-100.02
-100.23
-85.99
-59.75
-27.61
1.63
19.10
18.91
0.49
-31.25
-67.94
-101.45
-127.12
-145.14
-159.13
-173.40
-190.35
-209.74
-229.89
-249.85
-270.60
-294.53
-323.16
-354.92
-384.48
-404.35
-407.92
-392.22
-359.09
-313.96
-263.50
-213.17
-165.98
-122.65
-82.62
-45.20
-9.92
23.26
54.32
83.28
110.27
135.36
158.78
181.21
203.81
227.45
251.65
274.00
290.69
297.93
293.65
278.12
253.19
220.32
179.09
127.53
64.62
-6.63
-77.73
-136.27
-170.44
-173.88
-148.44
-103.22
-50.38
-0.26
41.80
75.82
105.41
134.75
166.54
200.76
235.13
266.17
290.44
305.39
309.75
303.59
288.07
265.30
238.44
211.56
188.93
173.82
167.30
167.40
169.68
168.84
161.01
145.32
124.04
101.20
80.58
64.16
51.91
42.62
35.21
29.59
26.58
27.26
32.11
40.38
50.22
59.07
64.36
64.15
57.42
44.29
25.99
4.96
-15.52
-31.94
-41.37
-42.20
-34.28
-19.15
0.46
21.29
40.33
55.39
65.36
69.98
69.44
64.65
56.32
45.03
31.47
16.91
3.19
-7.58
-13.82
-15.17
-11.32
-3.21
7.47
18.85
29.81
40.47
52.14
66.39
84.10
107.00
135.01
166.51
198.68
228.45
253.50
272.89
287.26
298.29
310.66
327.55
349.29
372.75
392.77
404.56
405.59
396.20
361.05
292.82
192.43
70.75
-55.15
-168.87
-259.81
-324.62
-365.48
-387.64
-394.35
-388.51
-372.66
-349.73
-323.09
-295.60
-269.74
-247.03
-228.18
-211.09
-194.36
-176.34
-156.59
-136.14
-116.23
-98.76
-85.13
-76.04
-70.03
-65.22
-59.83
-52.85
-44.55
-35.50
-27.97
-24.19
-25.86
-33.14
-45.48
-62.37
-80.00
-96.64
-111.53
-126.88
-145.54
-170.03
-201.40
-239.12
-281.46
-326.11
-371.49
-403.57
-413.20
-397.73
-362.23
-316.38
-269.71
-228.70
-196.21
-172.29
-153.80
-137.01
-116.73
-88.13
-48.95
-1.16
49.25
94.75
129.28
150.94
160.40
160.64
154.93
145.61
133.98
120.98
107.95
96.62
88.65
83.75
80.35
76.31
69.81
60.23
48.33
35.79
24.58
16.16
10.59
6.96
3.88
0.23
-4.37
-9.38
-13.60
-15.70
-14.71
-10.54
-3.85
4.25
12.60
20.38
27.33
33.59
39.54
45.56
51.80
58.10
64.06
69.17
73.05
75.61
76.94
77.33
77.14
76.67
75.98
74.92
73.17
70.46
66.82
62.56
58.35
54.92
52.82
51.99
51.84
51.43
49.89
46.78
41.78
34.59
24.62
11.12
-6.46
-27.93
-51.92
-76.50
-98.00
-112.62
-117.59
-112.04
-97.16
-75.78
-51.63
-28.55
-9.88
2.14
6.47
3.74
-3.41
-10.38
-11.67
-2.65
18.39
49.02
83.28
113.67
134.17
142.46
140.32
131.97
121.53
110.87
99.07
83.75
63.01
37.21
9.26
-16.76
-37.53
-52.00
-61.57
-68.91
-76.15
-83.77
-90.46
-94.21
-93.78
-89.54
-83.30
-77.31
-72.98
-70.32
-68.28
-65.61
-61.73
-57.11
-52.90
-50.25
-49.76
-51.18
-53.54
-55.73
-56.99
-57.26
-57.10
-57.09
-57.20
-56.24
-51.96
-41.77
-24.01
0.94
30.34
59.79
84.73
102.13
111.41
114.37
113.97
112.98
112.92
113.88
115.11
115.84
115.86
115.50
115.17
114.86
113.89
111.16
105.65
96.84
85.02
71.12
56.28
41.40
26.67
11.64
-4.55
-22.50
-42.00
-61.65
-79.05
-91.55
-97.21
-95.61
-88.16
-77.50
-66.60
-57.83
-52.48
-50.62
-51.51
-53.89
-56.33
-57.36
-55.57
-49.93
-40.21
-27.28
-13.00
0.31
10.55
16.51
17.99
15.69
10.61
3.54
-4.72
-12.76
-17.97
-16.81
-5.94
16.05
47.49
83.53
117.19
141.45
151.19
144.34
121.82
86.66
42.78
-5.82
-53.95
-95.96
-126.98
-144.31
-148.14
-140.97
-126.39
-108.01
-88.72
-70.48
-54.56
-41.38
-30.94
-22.74
-16.11
-10.43
-5.29
-0.53
4.00
8.20
11.95
15.07
17.43
19.02
20.06
20.91
22.02
23.88
26.56
29.87
33.21
35.85
37.15
36.95
35.67
34.03
32.80
31.85
30.84
28.65
23.93
15.71
3.97
-10.12
-24.61
-37.53
-47.84
-55.34
-60.95
-66.11
-72.31
-80.81
-92.60
-108.09
-124.58
-139.55
-148.31
-145.52
-127.73
-95.67
-54.75
-13.30
20.65
42.55
52.20
53.14
49.93
45.77
41.70
37.33
32.32
27.12
22.95
20.71
20.68
22.09
23.78
24.62
24.26
23.08
21.72
20.61
19.55
18.12
15.85
12.63
8.88
5.39
2.89
1.58
1.07
0.59
-0.11
-0.70
0.05
3.75
11.49
23.03
36.56
49.31
58.42
62.38
61.52
58.03
55.02
55.39
61.11
72.28
86.73
99.92
105.78
98.16
73.17
31.41
-20.85
-72.34
-109.96
-123.23
-108.36
-70.05
-19.94
27.76
61.31
75.16
70.59
53.54
31.01
8.16
-12.64
-30.90
-45.97
-55.78
-57.33
-48.49
-29.92
-5.55
18.80
37.67
48.39
51.96
52.11
52.91
56.59
62.37
67.36
68.64
65.45
60.10
57.13
60.90
72.98
90.60
107.16
114.58
106.76
82.50
46.10
5.27
-32.47
-63.04
-86.57
-105.86
-123.63
-140.45
-154.57
-163.79
-167.87
-169.21
-171.67
-177.58
-185.47
-190.06
-184.74
-165.09
-131.33
-88.68
-45.09
-8.30
16.48
27.60
26.19
15.17
-1.82
-20.84
-37.90
-49.41
-52.99
-47.96
-35.07
-16.17
6.56
30.94
54.96
76.68
94.48
107.32
115.43
120.82
126.19
133.71
143.32
152.10
155.00
147.19
126.04
91.62
48.64
4.88
-31.68
-56.18
-68.55
-72.69
-73.12
-72.48
-70.80
-66.52
-58.37
-46.94
-34.63
-24.59
-20.52
-23.83
-34.73
-52.50
-75.30
-99.94
-121.75
-135.22
-133.26
-113.44
-78.85
-37.34
1.68
31.07
48.12
54.42
53.94
50.61
46.46
42.24
38.27
35.05
33.48
34.26
37.47
42.93
50.04
57.60
64.82
71.40
77.55
84.09
92.19
102.38
113.72
123.71
128.25
123.86
109.66
87.62
61.73
35.69
10.68
-14.68
-42.29
-73.48
-107.34
-139.84
-166.16
-183.23
-191.71
-195.38
-199.91
-204.86
-205.16
-193.86
-165.73
-120.73
-63.73
-2.24
54.45
98.01
125.64
139.77
146.11
152.71
161.35
168.79
169.40
158.59
133.73
97.82
56.83
17.16
-16.42
-41.93
-58.21
-63.85
-56.81
-35.66
-1.04
42.13
85.29
119.17
136.98
137.18
123.11
100.64
75.52
52.15
32.83
18.66
10.28
7.62
9.92
15.23
20.69
23.35
21.38
14.32
3.01
-10.80
-25.08
-37.75
-47.43
-54.06
-58.99
-64.34
-71.93
-82.13
-93.19
-102.04
-105.44
-101.60
-90.98
-75.99
-59.83
-45.42
-34.76
-28.79
-27.23
-28.42
-29.41
-26.68
-17.50
-1.39
19.31
40.37
57.80
69.72
76.89
81.31
83.92
83.09
74.82
54.98
21.89
-22.19
-70.64
-114.31
-144.72
-157.14
-151.90
-133.49
-107.67
-78.96
-49.81
-21.30
5.63
29.84
50.23
66.02
77.49
84.83
87.57
84.51
74.27
57.01
35.43
13.92
-3.47
-14.84
-20.87
-23.59
-24.80
-24.82
-23.01
-18.73
-12.25
-5.01
1.21
5.39
7.67
9.19
11.44
15.48
21.41
28.54
35.47
40.85
44.04
45.27
45.42
45.48
46.14
47.33
48.61
48.78
46.81
42.13
34.72
24.98
13.40
0.36
-14.13
-29.75
-45.38
-60.69
-74.99
-87.31
-96.83
-103.18
-106.52
-108.98
-110.31
-110.16
-107.88
-102.39
-92.71
-78.44
-60.30
-38.82
-17.25
1.89
17.14
28.42
36.95
44.17
51.11
57.70
62.79
64.45
61.17
51.86
36.11
14.69
-10.13
-34.27
-52.53
-60.00
-53.51
-34.88
-9.95
13.85
30.61
38.23
38.62
35.72
32.88
30.83
28.25
23.31
15.61
6.89
0.06
-2.21
1.40
10.74
24.33
39.57
53.14
61.22
60.34
48.93
28.59
3.89
-18.30
-32.40
-36.45
-32.27
-23.96
-15.40
-8.43
-2.74
2.81
8.70
13.97
16.86
16.20
12.38
7.16
2.82
1.21
2.76
6.47
10.48
13.01
13.12
11.07
8.02
5.50
4.64
5.75
8.27
11.14
13.28
14.08
13.63
12.55
11.66
11.65
12.73
14.69
17.00
19.09
20.64
21.63
22.33
23.12
24.33
26.04
28.04
29.93
31.18
31.35
30.17
27.59
23.73
18.92
13.52
7.90
2.30
-3.08
-8.01
-12.18
-15.09
-16.21
-15.09
-11.70
-6.54
-0.77
4.09
6.52
5.54
0.98
-6.43
-15.43
-24.72
-33.47
-41.54
-49.42
-57.66
-66.36
-74.81
-81.56
-85.16
-84.63
-80.03
-72.49
-63.87
-56.09
-50.76
-49.00
-51.16
-56.58
-62.83
-65.62
-59.68
-40.81
-8.08
34.79
80.14
118.84
143.30
150.32
141.39
121.21
95.03
66.92
39.31
13.84
-7.75
-23.81
-33.17
-36.05
-34.47
-31.60
-30.40
-32.34
-36.80
-39.22
-35.74
-23.74
-2.99
23.71
50.99
72.34
82.03
76.99
57.84
28.32
-5.78
-38.75
-66.65
-88.00
-103.37
-114.42
-123.10
-131.10
-139.96
-150.27
-161.32
-170.60
-174.13
-167.40
-147.34
-113.73
-69.76
-21.33
24.97
63.59
91.10
106.36
110.25
105.39
95.86
86.46
81.20
81.62
85.85
89.33
87.32
77.70
62.40
46.33
34.54
29.35
29.31
30.79
30.64
28.25
25.39
24.47
26.50
30.44
34.18
36.44
37.78
40.18
45.66
54.72
66.01
76.93
84.93
88.33
86.26
78.27
63.93
42.93
15.80
-15.53
-47.45
-75.27
-94.32
-101.40
-95.78
-79.55
-56.92
-32.88
-11.73
3.95
13.46
17.61
17.79
15.33
11.17
5.93
0.23
-5.18
-9.36
-11.49
-11.10
-8.18
-3.06
3.73
11.64
20.25
29.20
38.05
46.24
53.05
57.87
60.46
61.09
60.48
59.51
58.93
59.16
60.14
61.40
62.16
61.35
57.93
51.25
41.46
29.67
17.81
8.09
2.33
1.56
5.56
13.10
22.26
30.95
37.47
40.84
40.85
37.74
31.65
22.13
8.32
-10.54
-34.20
-60.70
-86.49
-107.29
-119.41
-120.84
-111.67
-93.75
-69.93
-43.31
-16.66
7.82
28.49
44.28
54.86
60.38
61.34
58.09
50.22
36.65
15.99
-12.41
-47.57
-86.68
-125.58
-160.10
-187.37
-206.44
-217.87
-222.60
-220.67
-210.72
-190.57
-158.71
-115.62
-64.32
-9.89
41.87
85.80
118.34
137.82
144.16
138.48
122.91
100.40
74.51
49.05
27.21
10.91
0.42
-5.52
-9.13
-12.76
-18.08
-25.52
-33.97
-40.98
-43.50
-39.19
-27.63
-10.88
6.97
21.23
28.46
27.75
20.79
10.69
0.45
-8.24
-15.30
-21.61
-28.01
-34.54
-40.26
-43.50
-42.63
-36.69
-25.73
-10.57
7.76
28.86
53.25
82.08
116.20
155.05
196.16
235.30
267.41
287.90
293.93
285.21
264.17
235.26
203.61
173.35
146.42
122.25
98.61
73.22
45.33
16.16
-11.66
-35.56
-54.37
-68.89
-81.68
-96.25
-116.47
-145.87
-186.28
-236.49
-291.20
-341.12
-375.18
-384.04
-363.75
-317.95
-257.30
-196.21
-148.47
-123.34
-123.46
-145.06
-179.69
-216.84
-246.38
-260.76
-256.39
-234.26
-199.27
-158.46
-118.59
-84.40
-57.61
-37.24
-20.81
-5.53
10.84
29.81
52.10
77.50
104.71
131.38
154.54
171.34
179.94
180.05
172.78
160.27
145.15
129.91
116.59
106.15
97.98
89.93
78.77
61.27
35.29
0.47
-41.54
-87.37
-132.57
-172.16
-201.30
-216.25
-215.08
-198.25
-168.47
-129.90
-86.78
-42.52
0.74
41.78
79.47
112.30
138.46
156.34
165.19
165.40
158.12
144.56
125.47
100.87
70.73
35.86
-1.37
-36.80
-65.29
-82.19
-84.97
-74.29
-53.99
-29.67
-6.66
12.00
26.61
40.41
58.07
83.44
117.80
158.99
202.20
241.55
272.01
290.84
297.95
295.42
286.53
274.58
262.26
251.34
242.77
236.69
232.37
228.14
221.39
209.34
190.28
165.08
137.78
114.71
102.15
103.43
117.20
137.75
157.48
170.28
173.95
170.53
164.52
160.26
159.79
162.48
166.02
168.04
167.12
163.05
156.30
147.29
136.06
122.38
106.27
88.35
70.08
53.37
40.38
32.98
32.27
38.15
49.15
62.66
75.40
84.04
85.56
78.17
61.51
36.19
3.16
-36.82
-83.34
-136.10
-194.70
-259.42
-330.18
-406.26
-485.97
-566.05
-641.17
-704.11
-747.41
-765.95
-760.61
-736.17
-699.21
-655.95
-611.10
-567.53
-526.72
-489.65
-457.43
-433.48
-418.54
-409.52
-400.82
-387.73
-368.68
-345.21
-320.20
-296.41
-277.94
-264.39
-250.72
-229.65
-195.46
-145.43
-79.53
0.62
110.26
244.28
378.93
483.79
541.07
552.54
533.46
501.99
472.06
449.91
431.71
412.51
390.27
366.94
345.06
326.11
307.71
286.07
257.64
218.68
170.75
121.18
83.69
68.16
76.63
102.76
135.97
166.34
186.60
198.41
207.23
218.35
232.21
244.22
247.20
236.53
212.35
178.41
140.68
104.09
70.54
37.95
5.13
-29.96
-68.02
-109.04
-154.08
-205.47
-266.04
-336.67
-414.38
-490.99
-555.01
-594.23
-601.25
-577.09
-530.44
-473.71
-417.56
-367.40
-322.17
-277.29
-227.18
-168.55
-101.77
-29.72
43.73
114.32
177.21
226.06
249.80
242.83
211.14
168.28
125.72
87.40
51.20
14.77
-19.55
-45.06
-53.64
-40.45
-6.59
41.82
97.54
153.15
203.60
250.21
296.31
344.23
392.68
436.86
470.81
490.14
493.67
463.63
395.74
299.97
195.72
99.78
19.53
-45.21
-97.50
-139.89
-173.64
-196.23
-206.57
-206.03
-198.65
-189.07
-180.44
-173.74
-168.29
-161.74
-149.64
-129.71
-101.92
-68.51
-32.43
4.21
37.67
66.67
90.87
111.52
128.85
142.80
152.94
159.04
161.84
162.66
163.04
163.58
167.51
172.53
176.90
179.68
180.51
180.00
179.50
181.06
186.66
197.57
212.86
229.84
243.68
248.60
240.61
219.59
189.80
158.05
130.85
111.54
99.91
95.55
96.09
98.87
102.07
104.81
106.51
106.32
103.00
96.00
85.78
73.36
60.34
48.41
38.53
30.65
23.88
16.97
9.26
0.82
-7.89
-16.03
-22.85
-28.04
-31.93
-35.29
-38.99
-43.53
-48.89
-54.87
-61.15
-67.52
-74.05
-81.06
-88.92
-97.85
-107.74
-118.26
-129.12
-140.23
-151.75
-164.00
-177.33
-191.83
-207.27
-223.22
-239.33
-255.58
-272.32
-290.07
-309.19
-329.67
-351.23
-373.72
-397.46
-423.01
-450.41
-478.48
-504.45
-524.68
-535.89
-536.22
-525.55
-504.83
-475.02
-436.45
-389.02
-333.10
-270.36
-203.78
-136.73
-71.54
-8.60
53.43
116.14
179.46
240.60
294.38
334.90
357.88
362.49
351.47
329.92
303.13
274.95
247.31
221.08
197.25
177.59
164.19
158.42
160.04
167.02
176.33
185.13
191.55
194.89
195.28
193.03
188.33
181.27
172.22
162.12
152.56
145.47
142.51
144.38
150.30
157.99
164.25
165.94
161.02
149.02
130.90
108.34
83.00
56.05
28.25
0.15
-27.69
-54.85
-81.30
-107.73
-135.44
-165.92
-200.42
-239.66
-283.97
-333.34
-387.18
-443.59
-498.85
-547.36
-582.84
-600.08
-596.74
-574.28
-537.46
-492.73
-446.32
-402.74
-364.08
-330.34
-300.08
-271.26
-241.79
-209.90
-174.34
-134.58
-90.91
-44.42
3.20
49.84
93.58
133.22
168.76
201.59
234.46
270.95
314.28
365.69
422.86
479.41
525.91
552.58
552.55
524.34
472.37
405.29
333.17
264.90
206.70
162.22
133.23
120.20
122.18
136.53
158.84
183.68
205.82
221.50
229.11
228.90
222.41
211.36
197.11
180.35
161.38
140.28
117.35
93.11
68.16
43.09
18.25
-6.35
-30.98
-56.17
-82.68
-111.13
-141.66
-173.60
-205.39
-234.97
-260.44
-280.92
-297.00
-310.67
-324.80
-342.07
-363.87
-389.54
-416.02
-438.43
-451.26
-450.01
-432.49
-399.50
-354.41
-302.01
-247.04
-193.05
-142.07
-94.75
-50.92
-9.95
29.22
68.18
109.27
155.16
207.69
266.48
327.75
384.50
428.14
451.26
450.23
426.37
385.20
334.01
279.36
225.53
174.58
127.55
85.77
51.08
25.06
7.92
-2.20
-8.60
-14.69
-22.48
-32.04
-41.71
-49.42
-53.96
-55.54
-55.63
-56.00
-57.57
-59.78
-60.65
-57.51
-48.13
-31.66
-8.91
17.99
46.60
75.21
103.31
131.28
159.51
187.25
212.05
230.34
238.49
234.42
218.48
193.56
164.28
135.81
112.57
97.24
90.26
89.75
92.27
94.00
92.05
85.40
75.05
63.28
52.44
44.06
38.15
33.09
26.00
13.41
-7.20
-35.51
-66.98
-93.06
-103.77
-91.85
-56.53
-4.74
51.12
97.95
126.83
135.35
126.73
106.62
79.89
49.20
15.77
-18.95
-52.08
-79.71
-98.48
-107.35
-108.33
-105.92
-105.32
-110.71
-124.25
-145.98
-174.44
-207.08
-240.61
-271.13
-294.83
-309.38
-315.23
-316.02
-317.42
-324.47
-339.09
-358.98
-378.51
-391.36
-393.00
-381.84
-358.54
-324.73
-282.15
-233.15
-181.81
-134.48
-98.75
-81.08
-84.16
-105.48
-137.83
-171.57
-197.48
-209.07
-203.77
-182.79
-150.07
-110.81
-70.06
-31.51
3.12
34.10
63.25
93.03
125.53
161.74
200.92
240.52
276.38
303.78
318.68
319.36
307.48
287.97
267.76
253.40
248.87
254.44
267.05
282.06
295.22
304.21
308.75
309.59
307.12
300.44
287.53
266.36
236.21
198.38
156.08
113.62
75.47
45.58
27.06
22.07
31.44
54.24
87.41
125.87
163.32
193.59
211.84
215.35
203.67
178.11
141.21
96.15
46.28
-5.20
-55.77
-103.95
-149.57
-193.79
-238.89
-287.66
-342.29
-403.06
-467.02
-527.75
-576.57
-605.22
-608.79
-587.78
-547.95
-498.08
-446.65
-399.12
-356.95
-318.73
-282.11
-245.62
-209.31
-174.16
-140.96
-109.61
-79.08
-47.96
-15.18
19.59
56.17
94.31
134.09
175.54
217.69
257.86
291.80
315.07
325.24
323.61
315.18
306.75
303.78
307.82
315.87
321.96
320.08
306.91
282.99
252.21
219.97
191.22
168.97
153.76
143.76
135.26
123.77
104.98
76.00
36.44
-11.17
-61.59
-108.01
-143.90
-164.99
-170.65
-164.37
-152.51
-142.13
-138.28
-142.22
-151.04
-159.15
-160.60
-151.27
-130.02
-98.21
-58.54
-13.71
33.98
82.45
129.28
171.72
207.23
234.52
254.05
267.68
277.36
283.59
284.64
277.21
258.23
226.81
185.37
139.18
94.70
57.44
30.49
14.10
6.46
4.89
6.97
10.97
15.78
20.48
24.10
25.57
24.01
19.17
11.73
3.37
-3.62
-6.99
-5.16
2.24
14.28
28.98
43.84
56.30
64.24
66.52
63.26
56.04
47.78
41.99
41.72
48.21
60.19
74.04
84.95
88.78
83.51
70.19
52.46
35.20
22.91
18.31
21.87
31.91
45.19
57.63
65.02
63.93
52.38
30.54
0.65
-33.63
-68.47
-101.13
-130.82
-158.80
-187.59
-219.37
-254.39
-289.91
-320.33
-338.58
-338.40
-316.86
-276.06
-223.38
-169.75
-126.42
-101.62
-98.17
-113.37
-140.75
-172.69
-202.51
-225.21
-237.14
-235.45
-218.27
-185.58
-140.24
-88.02
-36.16
9.14
44.84
71.68
93.08
112.77
132.99
153.65
173.01
188.70
198.98
203.15
201.67
195.75
187.02
177.19
167.79
159.94
154.11
150.33
148.45
148.67
151.87
159.35
172.13
190.07
211.41
233.09
251.89
265.62
273.71
276.87
276.02
271.39
262.27
247.74
227.61
203.13
176.60
150.32
125.54
102.05
78.75
54.61
29.43
3.98
-20.64
-43.84
-66.14
-89.16
-115.26
-146.78
-185.07
-229.59
-277.22
-322.49
-358.86
-380.80
-385.93
-376.17
-357.06
-335.72
-318.04
-306.74
-300.98
-297.53
-292.85
-284.72
-272.83
-258.15
-241.85
-224.29
-204.91
-182.76
-157.36
-129.32
-100.52
-73.53
-50.72
-33.51
-22.08
-15.57
-12.64
-11.89
-12.05
-11.96
-10.54
-6.78
-0.09
9.69
22.09
36.18
50.68
64.21
75.36
82.78
85.30
81.92
72.02
55.54
33.39
7.65
-18.31
-40.43
-55.09
-60.45
-57.31
-48.93
-39.69
-33.19
-30.86
-31.82
-33.86
-35.14
-35.18
-34.91
-35.73
-38.29
-41.87
-44.79
-45.38
-42.91
-37.96
-31.85
-25.96
-20.89
-16.27
-11.00
-3.92
5.67
17.67
31.18
44.90
57.62
68.82
78.95
89.43
102.09
118.41
138.82
162.43
187.49
212.01
234.20
252.59
265.69
271.82
269.56
258.38
239.22
214.40
186.51
157.21
126.80
94.70
60.90
26.79
-5.07
-32.35
-54.57
-73.97
-94.53
-119.80
-150.69
-184.36
-214.88
-235.47
-241.03
-229.95
-204.83
-171.41
-136.82
-107.50
-87.46
-77.64
-76.10
-79.00
-81.90
-80.99
-73.97
-60.50
-42.28
-22.41
-4.44
8.77
15.86
17.26
14.59
9.91
4.85
0.43
-2.84
-4.52
-4.15
-1.31
4.08
11.49
19.93
28.12
35.07
40.35
44.17
47.11
49.71
52.09
53.81
53.99
51.85
47.18
40.62
33.64
27.98
24.97
24.93
27.02
29.62
30.97
29.94
26.41
21.23
15.78
11.23
8.10
6.15
4.56
2.39
-0.97
-5.71
-11.66
-18.49
-25.68
-32.42
-37.51
-39.61
-37.72
-31.88
-23.34
-14.20
-6.51
-1.44
1.14
2.22
2.87
3.58
4.04
3.67
2.26
0.36
-0.89
-0.52
1.70
5.02
8.14
9.85
9.71
8.20
6.34
5.14
5.14
6.23
7.96
9.85
11.73
13.68
15.86
18.11
19.92
20.66
19.83
17.43
13.97
10.16
6.58
3.45
0.71
-1.73
-3.71
-4.89
-4.96
-3.96
-2.40
-1.01
-0.38
-0.58
-1.20
-1.62
-1.49
-0.84
0.02
0.75
1.23
1.53
1.75
1.94
2.02
1.96
1.95
2.24
3.02
4.19
5.41
6.29
6.63
6.55
6.31
6.17
6.14
6.05
5.80
5.40
5.08
5.11
5.59
6.37
7.07
7.29
6.79
5.64
4.15
2.71
1.62
0.95
0.42
-0.38
-1.88
-4.23
-7.20
-10.27
-12.82
-14.48
-15.28
-15.61
-15.98
-16.85
-18.37
-20.43
-22.80
-25.28
-27.61
-29.43
-30.11
-28.80
-24.81
-17.97
-8.93
0.84
9.58
15.80
18.82
18.89
16.85
13.58
9.59
4.98
-0.30
-6.06
-11.78
-16.72
-20.34
-22.55
-23.76
-24.59
-25.45
-26.29
-26.61
-25.70
-23.10
-18.85
-13.79
-9.27
-6.79
-7.28
-10.41
-14.33
-15.77
-10.70
4.69
32.84
73.72
124.07
177.53
225.81
260.63
276.02
270.06
245.31
207.76
165.04
124.49
91.80
70.18
59.86
58.09
59.55
57.86
47.64
26.68
-3.22
-37.32
-70.49
-100.07
-127.17
-155.92
-190.90
-234.29
-284.05
-334.21
-376.97
-405.48
-416.16
-409.78
-391.18
-367.80
-347.16
-334.59
-331.56
-335.57
-341.36
-343.31
-337.34
-322.15
-298.86
-269.69
-236.70
-201.19
-164.03
-126.46
-90.59
-58.85
-32.94
-12.82
3.51
19.04
36.15
55.36
75.04
92.10
103.55
108.08
106.70
102.40
98.96
99.40
104.92
114.81
127.21
140.31
153.47
167.59
184.66
206.99
236.38
273.67
318.34
368.20
419.26
466.04
502.68
524.62
530.24
521.44
502.93
480.22
457.39
435.90
414.94
392.90
368.95
343.52
317.52
290.92
261.97
227.56
184.81
132.83
73.78
12.57
-44.60
-92.53
-128.75
-154.16
-172.36
-187.78
-203.76
-221.25
-238.86
-253.91
-264.10
-268.66
-268.67
-266.74
-266.27
-270.79
-283.05
-303.59
-329.36
-353.54
-367.20
-362.90
-338.23
-297.48
-250.21
-207.34
-176.36
-158.79
-150.31
-143.58
-131.68
-110.39
-78.47
-36.48
14.21
72.01
134.81
199.33
261.41
317.07
364.11
403.45
438.67
474.11
512.01
550.38
583.19
602.97
604.28
586.27
552.77
510.15
464.28
418.60
373.88
329.61
285.42
241.83
199.94
160.61
124.05
90.11
58.91
31.22
8.35
-8.29
-18.06
-21.53
-20.40
-17.13
-13.58
-10.87
-9.00
-7.19
-4.66
-1.26
2.16
4.11
2.92
-1.89
-9.82
-19.49
-29.22
-37.98
-45.99
-54.75
-66.54
-84.08
-108.27
-138.72
-172.87
-206.13
-233.05
-248.93
-251.64
-242.69
-228.15
-213.32
-203.80
-202.02
-206.37
-212.54
-216.22
-215.83
-213.49
-216.00
-224.60
-240.17
-259.86
-278.49
-291.11
-295.14
-291.01
-281.67
-275.07
-271.65
-275.63
-289.53
-312.76
-340.68
-365.27
-377.74
-372.05
-352.21
-317.21
-274.10
-229.00
-184.66
-140.67
-95.19
-47.10
33.26
103.53
166.28
217.47
253.54
272.78
276.74
270.76
262.76
259.91
260.58
268.07
276.42
279.78
276.04
267.76
259.92
256.03
255.51
250.18
238.99
219.31
192.86
164.59
139.59
120.28
105.57
92.14
74.54
54.26
32.43
11.38
-6.73
-20.84
-31.05
-38.07
-42.51
-46.07
-48.08
-49.57
-51.88
-56.23
-63.51
-74.50
-90.74
-114.48
-147.93
-189.78
-234.63
-273.07
-295.21
-295.83
-277.77
-251.36
-228.91
-218.49
-220.63
-230.28
-242.22
-255.45
-273.27
-299.06
-331.51
-362.27
-379.10
-372.29
-340.17
-289.73
-232.31
-177.49
-129.21
-87.11
-48.61
-11.71
23.65
56.06
84.03
107.70
129.51
153.46
181.41
214.23
251.70
292.19
331.49
362.69
378.53
374.64
351.56
310.90
257.21
197.24
138.37
86.02
42.44
7.77
-18.03
-35.12
-49.57
-68.72
-98.31
-140.52
-195.35
-262.30
-340.15
-425.70
-482.70
-482.42
-418.91
-313.78
-197.84
-93.46
-10.93
48.47
88.83
116.39
131.87
134.37
124.23
105.16
82.66
61.47
44.82
34.43
31.03
30.28
27.42
19.85
8.05
-3.99
-13.07
-17.33
-16.34
-10.28
-2.78
2.19
2.29
-2.16
-9.23
-17.21
-25.02
-32.31
-38.58
-45.03
-52.89
-62.46
-72.54
-80.98
-85.68
-84.51
-80.00
-73.15
-65.31
-57.55
-50.33
-43.27
-35.53
-26.55
-16.26
-5.20
6.29
17.63
28.42
38.74
49.21
60.72
73.95
89.02
105.31
122.23
138.85
154.52
169.11
183.00
197.05
212.38
230.26
251.64
276.88
304.52
331.02
351.33
360.34
354.83
334.91
304.06
267.89
232.27
201.30
176.61
157.76
143.21
131.31
120.66
110.03
98.28
84.45
68.17
50.08
31.80
15.45
2.98
-4.58
-7.57
-7.50
-6.55
-6.90
-10.06
-16.50
-25.59
-35.85
-45.42
-52.57
-56.14
-55.85
-52.35
-46.92
-41.09
-36.23
-33.24
-32.47
-33.79
-36.73
-40.60
-44.56
-47.79
-49.47
-49.10
-46.60
-42.43
-37.59
-33.27
-30.51
-29.89
-31.28
-33.89
-36.61
-38.39
-38.56
-37.02
-34.09
-30.32
-26.27
-22.35
-18.79
-15.71
-13.12
-10.99
-9.21
-7.67
-6.26
-4.97
-3.90
-3.22
-3.13
-3.69
-4.80
-6.19
-7.49
-8.32
-8.49
-7.93
-6.80
-5.36
-3.90
-2.67
-1.84
-1.53
-1.76
-2.49
-3.62
-4.97
-6.28
-7.34
-8.03
-8.40
-8.69
-9.14
-9.93
-11.03
-12.28
-13.40
-14.21
-14.69
-14.93
-15.09
-15.27
-15.47
-15.65
-15.79
-15.89
-15.98
-15.99
-15.81
-15.24
-14.11
-12.30
-9.84
-6.83
-3.41
0.20
3.75
6.89
9.27
10.60
10.77
9.95
8.51
6.93
5.53
4.42
3.38
2.01
-0.06
-3.00
-6.62
-10.49
-14.06
-16.94
-18.94
-20.28
-21.36
-22.67
-24.62
-27.41
-31.07
-35.35
-39.94
-44.51
-48.85
-52.90
-56.81
-60.90
-65.54
-70.97
-77.00
-82.84
-87.02
-87.74
-83.42
-73.42
-58.43
-40.34
-21.59
-4.26
10.47
22.55
32.62
41.38
49.19
55.94
61.40
65.39
67.96
69.20
69.08
67.43
64.00
58.75
51.94
44.05
35.65
27.22
19.19
11.96
6.02
1.77
-0.65
-1.55
-1.61
-1.56
-1.77
-2.10
-2.04
-1.15
0.47
2.23
3.36
3.43
2.78
2.38
3.45
6.76
12.30
19.23
26.22
31.85
34.82
34.06
28.75
18.60
4.23
-12.47
-28.40
-39.88
-43.58
-37.68
-22.44
-0.24
25.15
49.52
69.11
81.25
84.56
78.98
65.64
46.58
24.39
1.74
-18.99
-35.95
-47.89
-54.29
-55.33
-51.97
-45.87
-39.10
-33.63
-30.82
-31.15
-34.38
-39.92
-47.25
-55.72
-64.10
-70.02
-70.17
-61.33
-41.76
-12.54
22.32
56.97
85.63
104.33
111.80
109.26
99.34
85.00
68.66
52.03
36.24
22.01
9.90
0.31
-6.41
-9.93
-10.11
-7.23
-2.12
3.87
9.20
12.60
13.45
11.92
8.79
4.97
1.19
-2.21
-5.18
-7.75
-9.89
-11.47
-12.46
-13.04
-13.53
-14.31
-15.54
-17.12
-18.64
-19.66
-19.84
-19.13
-17.73
-16.03
-14.44
-13.34
-12.96
-13.40
-14.55
-16.09
-17.57
-18.49
-18.47
-17.37
-15.42
-13.11
-10.97
-9.43
-8.58
-8.23
-8.06
-7.81
-7.42
-6.98
-6.58
-6.26
-5.86
-5.20
-4.12
-2.62
-0.81
1.11
2.97
4.68
6.14
7.25
7.94
8.17
7.95
7.36
6.53
5.57
4.60
3.68
2.91
2.31
1.85
1.45
1.01
0.47
-0.13
-0.65
-0.95
-1.01
-0.94
-0.98
-1.35
-2.15
-3.24
-4.37
-5.25
-5.78
-6.04
-6.33
-6.94
-8.06
-9.64
-11.44
-13.15
-14.46
-15.24
-15.48
-15.27
-14.74
-13.99
-13.03
-11.84
-10.39
-8.63
-6.61
-4.39
-2.11
-0.06
1.36
1.78
0.83
-1.52
-4.93
-8.71
-11.95
-13.75
-13.53
-11.15
-6.92
-1.48
4.39
9.97
14.60
17.89
19.62
19.83
18.73
16.70
14.22
11.79
9.86
8.67
8.21
8.19
8.11
7.51
6.16
4.12
1.76
-0.50
-2.37
-3.81
-4.95
-6.01
-7.09
-8.16
-9.22
-10.28
-11.51
-13.17
-15.45
-18.36
-21.59
-24.51
-26.31
-26.26
-23.88
-19.22
-12.79
-5.48
1.63
7.57
11.60
13.39
13.07
11.22
8.89
7.31
7.58
10.33
15.40
21.90
28.52
33.89
37.08
37.78
36.28
33.26
29.50
25.74
22.56
20.41
19.55
19.92
21.10
22.30
22.58
21.12
17.64
12.46
6.43
0.59
-4.24
-7.70
-9.86
-11.01
-11.44
-11.30
-10.68
-9.72
-8.62
-7.74
-7.39
-7.79
-9.02
-11.03
-13.63
-16.47
-19.11
-21.05
-21.88
-21.44
-19.92
-17.78
-15.59
-13.83
-12.69
-12.07
-11.68
-11.18
-10.37
-9.23
-7.82
-6.30
-4.76
-3.24
-1.76
-0.32
1.04
2.22
3.10
3.58
3.61
3.22
2.51
1.67
0.86
0.14
-0.49
-1.13
-1.78
-2.31
-2.45
-1.97
-0.84
0.69
2.09
2.87
2.74
1.75
0.22
-1.46
-3.06
-4.61
-6.31
-8.38
-10.94
-13.96
-17.26
-20.77
-24.35
-27.89
-31.12
-33.63
-35.06
-35.30
-34.71
-33.97
-33.79
-34.44
-35.52
-36.03
-34.84
-31.24
-25.37
-18.23
-11.22
-5.65
-2.32
-1.33
-2.16
-3.86
-5.27
-5.33
-3.39
0.64
6.13
11.92
16.75
19.60
20.23
19.19
17.62
16.68
17.09
18.85
21.27
23.31
23.99
22.80
19.88
15.81
11.41
7.34
3.98
1.37
-0.57
-1.98
-2.97
-3.65
-4.24
-5.06
-6.39
-8.35
-10.74
-13.05
-14.59
-14.84
-13.71
-11.64
-9.52
-8.33
-8.85
-11.38
-15.69
-21.09
-26.60
-31.19
-33.93
-34.21
-31.79
-26.85
-19.90
-11.68
-2.90
5.88
14.40
22.53
30.16
37.02
42.71
46.79
49.05
49.61
48.95
47.64
46.20
44.89
43.72
42.55
41.27
39.88
38.42
36.84
34.93
32.38
28.88
24.40
19.27
14.19
10.02
7.51
6.99
8.19
10.29
12.19
12.82
11.51
8.18
3.34
-2.08
-7.19
-11.27
-13.99
-15.40
-15.70
-15.07
-13.73
-11.94
-10.08
-8.69
-8.32
-9.30
-11.64
-14.96
-18.65
-22.07
-24.76
-26.47
-27.17
-26.94
-25.88
-24.15
-21.90
-19.34
-16.69
-14.19
-11.98
-10.14
-8.62
-7.32
-6.09
-4.78
-3.29
-1.69
-0.17
1.06
1.81
2.08
2.02
1.89
1.89
2.07
2.28
2.29
1.94
1.28
0.57
0.13
0.14
0.55
1.13
1.56
1.67
1.45
1.10
0.82
0.68
0.54
0.10
-0.89
-2.49
-4.51
-6.60
-8.35
-9.53
-10.11
-10.32
-10.50
-10.96
-11.87
-13.19
-14.76
-16.34
-17.73
-18.81
-19.59
-20.05
-20.13
-19.70
-18.59
-16.75
-14.33
-11.67
-9.21
-7.32
-6.19
-5.83
-6.08
-6.80
-7.85
-9.17
-10.66
-12.18
-13.58
-14.77
-15.74
-16.57
-17.11
-17.00
-15.57
-12.04
-5.88
2.88
13.45
24.51
34.43
41.88
46.13
47.22
45.97
43.50
40.93
39.05
38.16
38.12
38.55
39.08
39.43
39.45
39.02
38.06
36.54
34.48
32.02
29.28
26.33
23.07
19.32
14.92
9.82
4.25
-1.45
-6.83
-11.46
-15.08
-17.54
-18.91
-19.37
-19.24
-18.78
-18.21
-17.63
-17.05
-16.48
-15.86
-15.12
-14.13
-12.75
-10.91
-8.69
-6.35
-4.24
-2.63
-1.65
-1.15
-0.82
-0.26
0.91
2.89
5.64
8.83
11.85
14.08
15.09
14.74
13.32
11.26
9.02
6.85
4.80
2.83
0.91
-0.85
-2.29
-3.26
-3.81
-4.15
-4.63
-5.55
-7.06
-9.07
-11.33
-13.48
-15.23
-16.50
-17.32
-17.94
-18.59
-19.48
-20.62
-21.90
-23.08
-23.82
-23.85
-22.91
-20.88
-17.78
-13.82
-9.40
-5.07
-1.40
1.23
2.72
3.36
3.60
3.94
4.71
6.00
7.75
9.84
12.22
14.83
17.58
20.30
22.78
24.91
26.70
28.34
30.00
31.77
33.54
35.03
35.91
35.93
35.02
33.31
31.06
28.57
26.04
23.56
21.09
18.51
15.71
12.59
9.11
5.32
1.18
-3.31
-8.16
-13.37
-18.83
-24.36
-29.65
-34.39
-38.31
-41.35
-43.61
-45.34
-46.83
-48.32
-49.86
-51.40
-52.77
-53.73
-54.01
-53.36
-51.56
-48.57
-44.50
-39.69
-34.52
-29.32
-24.22
-19.15
-13.95
-8.49
-2.81
2.86
8.07
12.30
15.05
16.03
15.23
12.93
9.60
5.73
1.65
-2.51
-6.76
-11.10
-15.29
-18.84
-21.09
-21.42
-19.54
-15.54
-9.89
-3.26
3.63
10.22
16.15
21.13
24.96
27.48
28.61
28.44
27.28
25.55
23.68
21.98
20.49
19.10
17.56
15.63
13.15
10.10
6.60
2.94
-0.47
-3.23
-5.00
-5.60
-5.15
-3.92
-2.32
-0.72
0.53
1.28
1.46
1.12
0.39
-0.56
-1.48
-2.10
-2.18
-1.49
0.06
2.45
5.50
8.96
12.60
16.18
19.54
22.50
24.87
26.43
27.10
26.89
26.02
24.75
23.33
21.91
20.51
19.07
17.54
15.87
14.05
12.04
9.82
7.41
4.88
2.41
0.18
-1.69
-3.20
-4.52
-5.85
-7.33
-8.89
-10.30
-11.23
-11.38
-10.64
-9.07
-6.88
-4.35
-1.72
0.82
3.14
5.14
6.74
7.87
8.45
8.49
8.01
7.10
5.89
4.54
3.28
2.31
1.75
1.63
1.82
2.10
2.21
1.92
1.16
-0.01
-1.37
-2.64
-3.53
-3.78
-3.24
-1.94
-0.12
1.81
3.31
3.98
3.67
2.47
0.66
-1.43
-3.60
-5.76
-7.95
-10.19
-12.39
-14.26
-15.44
-15.60
-14.55
-12.29
-9.13
-5.54
-2.08
0.72
2.56
3.36
3.27
2.62
1.73
0.86
0.21
-0.15
-0.20
0.06
0.58
1.35
2.26
3.19
3.98
4.50
4.72
4.68
4.51
4.38
4.44
4.74
5.27
5.93
6.59
7.17
7.61
7.91
8.08
8.13
8.09
7.96
7.74
7.43
7.04
6.51
5.77
4.68
3.12
1.04
-1.49
-4.30
-7.25
-10.20
-13.08
-15.81
-18.25
-20.16
-21.29
-21.51
-20.82
-19.48
-17.78
-15.97
-14.15
-12.24
-10.14
-7.79
-5.28
-2.84
-0.75
0.74
1.61
2.04
2.33
2.86
3.85
5.31
7.08
8.87
10.43
11.64
12.49
13.07
13.51
13.89
14.25
14.51
14.54
14.16
13.21
11.68
9.75
7.66
5.68
3.95
2.38
0.72
-1.30
-3.81
-6.69
-9.60
-12.15
-14.02
-15.10
-15.59
-15.87
-16.56
-18.27
-21.53
-26.45
-32.61
-38.92
-43.75
-45.46
-42.86
-35.82
-25.35
-13.26
-1.58
8.11
15.09
19.48
21.86
22.88
22.97
22.31
21.04
19.38
17.59
15.98
14.70
13.68
12.81
12.03
11.49
11.49
12.37
14.30
17.16
20.60
24.05
26.95
28.88
29.63
29.23
27.91
25.99
23.84
21.72
19.77
17.94
16.07
14.02
11.73
9.26
6.74
4.34
2.17
0.23
-1.46
-2.99
-4.36
-5.53
-6.54
-7.40
-8.22
-9.18
-10.40
-12.01
-14.03
-16.45
-19.13
-21.88
-24.39
-26.28
-27.18
-26.79
-25.03
-22.14
-18.66
-15.24
-12.50
-10.78
-10.03
-9.90
-9.92
-9.62
-8.84
-7.54
-5.84
-3.89
-1.77
0.43
2.61
4.66
6.45
7.89
9.02
9.87
10.50
10.91
11.01
10.68
9.92
8.84
7.72
6.91
6.69
7.18
8.31
9.86
11.51
13.01
14.17
14.87
15.01
14.52
13.33
11.44
9.01
6.34
3.84
1.84
0.48
-0.36
-1.01
-1.79
-2.89
-4.24
-5.58
-6.57
-7.05
-6.98
-6.48
-5.72
-4.75
-3.54
-1.96
-0.01
2.21
4.46
6.47
8.06
9.23
10.21
11.40
13.32
16.37
20.66
25.79
30.83
34.53
35.77
34.02
29.63
23.81
18.24
14.45
13.31
14.70
17.56
20.25
21.11
19.07
13.99
6.76
-1.11
-7.94
-12.51
-14.40
-14.00
-12.19
-9.86
-7.67
-5.90
-4.61
-3.73
-3.28
-3.27
-3.77
-4.84
-6.50
-8.73
-11.45
-14.48
-17.56
-20.41
-22.85
-24.73
-26.00
-26.54
-26.12
-24.53
-21.68
-17.81
-13.55
-9.73
-7.15
-6.34
-7.35
-9.78
-12.81
-15.23
-15.59
-12.51
-5.02
6.94
22.15
38.30
52.50
62.18
65.89
63.72
56.95
47.54
37.27
27.30
18.19
10.18
3.53
-1.25
-3.64
-3.46
-1.05
2.59
6.09
8.24
8.30
6.26
2.71
-1.41
-5.10
-7.61
-8.59
-8.07
-6.46
-4.36
-2.46
-1.40
-1.69
-3.68
-7.49
-12.89
-19.32
-25.88
-31.57
-35.49
-37.11
-36.41
-33.79
-29.95
-25.60
-21.34
-17.55
-14.37
-11.77
-9.54
-7.46
-5.29
-2.87
-0.20
2.54
5.07
7.10
8.42
9.03
9.10
8.88
8.58
8.33
8.10
7.83
7.45
7.01
6.66
6.57
6.85
7.55
8.61
9.86
11.13
12.28
13.15
13.68
13.79
13.45
12.60
11.20
9.19
6.57
3.40
-0.06
-3.51
-6.65
-9.32
-11.59
-13.74
-16.05
-18.70
-21.59
-24.43
-26.85
-28.57
-29.45
-29.50
-28.73
-27.19
-24.97
-22.35
-19.76
-17.71
-16.56
-16.30
-16.51
-16.53
-15.77
-13.91
-11.04
-7.49
-3.68
0.07
3.59
6.76
9.51
11.77
13.48
14.69
15.49
16.05
16.55
17.07
17.63
18.16
18.52
18.59
18.29
17.63
16.66
15.52
14.31
13.11
11.90
10.64
9.22
7.54
5.49
2.99
0.02
-3.45
-7.38
-11.66
-16.11
-20.45
-24.28
-27.30
-29.28
-30.23
-30.35
-29.96
-29.30
-28.52
-27.61
-26.51
-25.23
-23.84
-22.43
-21.04
-19.63
-18.07
-16.28
-14.28
-12.16
-10.04
-7.90
-5.55
-2.70
0.93
5.34
10.10
14.42
17.32
18.03
16.23
12.24
6.82
0.98
-4.37
-8.64
-11.60
-13.38
-14.36
-15.07
-16.07
-17.84
-20.62
-24.42
-28.95
-33.79
-38.47
-42.68
-46.27
-49.35
-52.22
-55.12
-58.01
-60.22
-60.35
-56.64
-47.57
-32.57
-12.47
10.59
33.74
54.34
70.62
82.08
89.16
92.70
93.43
91.74
87.79
81.88
74.64
67.13
60.57
55.97
53.76
53.58
54.48
55.27
54.94
52.99
49.51
45.04
40.31
36.01
32.63
30.34
29.06
28.53
28.49
28.71
29.02
29.37
29.69
29.93
30.02
29.78
28.86
26.49
21.54
12.66
-1.05
-19.39
-40.57
-61.37
-77.90
-86.90
-86.80
-78.25
-63.73
-46.61
-30.20
-16.94
-8.09
-3.87
-3.77
-6.75
-11.41
-16.06
-18.86
-18.21
-13.17
-3.92
7.84
19.15
26.46
26.77
18.83
3.90
-14.58
-31.99
-44.26
-49.38
-47.95
-42.76
-37.49
-35.13
-36.79
-41.51
-46.92
-50.44
-50.51
-47.14
-41.74
-36.45
-33.31
-33.57
-37.48
-44.06
-51.11
-55.41
-53.24
-41.54
-19.16
12.14
47.67
80.94
105.59
117.33
115.10
100.96
79.01
53.85
29.36
8.05
-8.87
-21.20
-29.33
-34.07
-36.44
-37.57
-38.45
-39.38
-39.48
-36.53
-27.54
-9.95
16.81
50.48
86.13
117.64
139.69
149.53
147.58
136.71
120.77
103.17
86.11
70.78
57.84
47.90
41.56
39.05
39.88
42.90
46.49
49.04
49.25
46.49
40.82
32.92
23.97
15.24
7.60
1.13
-5.06
-12.42
-22.15
-34.34
-47.58
-59.39
-67.24
-69.67
-67.04
-61.31
-55.27
-51.33
-50.80
-53.53
-58.33
-63.51
-67.54
-69.44
-68.85
-66.05
-61.81
-57.18
-53.28
-50.99
-50.70
-52.16
-54.52
-56.53
-56.91
-54.71
-49.61
-41.94
-32.56
-22.54
-12.82
-3.95
3.99
11.11
17.51
22.99
27.11
29.40
29.64
28.12
25.50
22.60
19.97
17.64
15.20
12.00
7.59
1.84
-5.06
-12.93
-21.77
-31.93
-43.70
-56.82
-70.07
-81.27
-87.84
-87.68
-80.08
-66.06
-48.16
-29.63
-13.45
-1.64
5.00
6.75
4.55
-0.48
-7.24
-14.81
-22.38
-29.08
-33.94
-35.98
-34.39
-28.86
-19.78
-8.19
4.43
16.60
27.21
35.74
42.22
47.03
50.56
53.07
54.58
54.96
54.08
51.87
48.40
43.79
38.27
32.09
25.57
19.21
13.52
9.08
6.24
5.13
5.52
6.97
8.98
11.10
13.04
14.59
15.55
15.55
14.08
10.58
4.75
-3.14
-12.07
-20.29
-25.82
-27.08
-23.55
-16.12
-6.85
1.56
6.69
6.98
2.13
-7.06
-19.00
-31.76
-43.43
-52.35
-57.34
-57.81
-53.89
-46.31
-36.34
-25.53
-15.52
-7.84
-3.61
-3.34
-6.59
-12.04
-17.75
-21.82
-22.87
-20.41
-14.78
-6.86
2.20
11.19
18.74
23.38
23.80
19.29
10.18
-2.01
-14.89
-26.06
-33.83
-37.73
-38.54
-37.75
-36.92
-37.18
-39.06
-42.34
-46.32
-49.91
-51.71
-50.38
-44.98
-35.40
-22.61
-8.37
5.39
17.36
27.33
35.99
44.30
52.67
60.51
66.47
69.15
67.89
63.08
55.93
47.82
39.69
31.89
24.46
17.57
11.85
8.27
7.71
10.49
16.04
22.91
29.28
33.40
34.24
31.72
26.66
20.45
14.53
10.03
7.66
7.76
10.53
15.96
23.73
32.86
41.73
48.33
50.92
48.62
41.68
31.30
19.15
6.86
-4.19
-12.82
-18.08
-19.37
-16.76
-11.24
-4.64
0.96
3.97
3.99
1.97
-0.38
-1.47
-0.60
1.86
4.89
7.63
9.93
12.41
15.82
20.31
24.93
27.83
27.00
21.09
10.15
-4.34
-19.86
-33.57
-43.11
-47.18
-45.74
-39.79
-30.96
-20.95
-11.12
-2.51
4.07
7.75
7.69
3.30
-5.36
-17.31
-30.77
-43.42
-52.73
-56.21
-51.59
-37.38
-13.54
17.72
51.78
82.39
103.41
110.70
103.63
85.07
60.23
34.72
12.83
-3.30
-13.36
-18.17
-18.78
-16.18
-11.39
-5.76
-0.98
1.28
0.01
-4.59
-11.04
-17.00
-20.17
-19.09
-13.74
-5.41
3.80
11.86
17.37
19.79
19.33
16.60
12.35
7.33
2.39
-1.60
-3.81
-3.69
-1.18
3.23
8.56
13.59
17.06
17.94
15.58
9.90
1.63
-7.77
-16.26
-21.81
-23.06
-19.74
-12.90
-4.47
3.28
8.47
10.04
7.80
2.21
-5.83
-15.16
-24.54
-32.59
-38.04
-39.93
-37.91
-32.42
-24.59
-15.98
-8.22
-2.68
-0.30
-1.48
-5.96
-12.85
-20.59
-27.25
-30.95
-30.34
-25.11
-15.99
-4.61
7.02
17.09
24.19
27.58
27.10
23.12
16.52
8.67
1.24
-4.04
-5.86
-3.69
2.06
10.13
18.78
26.22
31.01
32.19
29.37
22.85
13.56
3.10
-6.50
-13.26
-15.77
-13.66
-7.74
0.25
8.28
14.53
17.87
17.87
14.68
8.76
0.79
-8.36
-17.60
-25.64
-31.22
-33.37
-31.69
-26.54
-18.96
-10.39
-2.47
3.34
6.00
5.02
0.60
-6.38
-14.48
-21.91
-26.89
-28.10
-24.98
-17.98
-8.51
1.50
9.94
15.13
16.10
12.80
5.96
-3.15
-12.94
-21.83
-28.39
-31.59
-30.98
-26.73
-19.78
-11.51
-3.51
2.84
6.70
7.85
6.70
4.08
1.12
-1.10
-1.68
-0.17
3.24
7.80
12.39
15.93
17.65
17.27
14.76
10.22
3.70
-4.66
-14.44
-24.74
-34.18
-41.28
-44.96
-44.89
-41.60
-36.26
-30.24
-24.69
-20.38
-17.67
-16.66
-17.28
-19.38
-22.53
-26.11
-29.33
-31.50
-32.30
-31.93
-30.93
-29.81
-28.65
-26.86
-23.33
-16.86
-6.67
7.23
24.06
42.32
60.31
76.33
88.90
97.06
100.44
99.31
94.50
87.23
78.76
70.14
61.98
54.50
47.63
41.13
34.71
28.12
21.22
14.02
6.77
-0.06
-5.90
-10.31
-13.26
-15.14
-16.67
-18.53
-21.08
-24.07
-26.75
-28.24
-27.91
-25.65
-21.80
-16.93
-11.44
-5.46
1.03
7.96
14.85
20.91
25.29
27.59
28.09
27.76
27.84
29.35
32.74
37.74
43.63
49.37
53.90
56.02
54.59
48.70
38.08
23.43
6.46
-10.51
-25.33
-36.71
-44.52
-49.60
-53.17
-56.17
-58.79
-60.57
-60.74
-58.74
-54.52
-48.51
-41.44
-34.07
-26.96
-20.43
-14.61
-9.48
-5.03
-1.19
2.06
4.77
6.97
8.67
9.96
11.03
12.27
14.24
17.59
22.74
29.65
37.57
45.10
50.51
52.31
49.85
43.56
34.86
25.56
17.19
10.53
5.48
1.44
-2.35
-6.34
-10.65
-15.10
-19.40
-23.37
-26.88
-29.97
-32.69
-35.12
-37.40
-39.68
-42.17
-45.00
-48.14
-51.16
-53.34
-53.80
-51.86
-47.52
-41.57
-35.57
-31.19
-29.46
-30.14
-31.63
-31.50
-27.52
-18.72
-5.74
9.32
23.79
35.24
42.10
43.76
40.30
32.33
20.90
7.65
-5.23
-15.42
-21.05
-21.37
-16.92
-9.19
0.13
9.87
19.61
29.49
39.50
49.05
56.81
61.16
60.94
55.96
47.27
36.70
26.21
17.27
10.48
5.75
2.62
0.59
-0.74
-1.69
-2.65
-4.16
-6.86
-11.30
-17.62
-25.27
-33.01
-39.21
-42.38
-41.85
-37.94
-31.78
-24.70
-17.57
-10.58
-3.62
3.06
8.43
10.95
9.40
3.84
-4.12
-11.87
-16.92
-17.98
-15.32
-10.30
-4.59
0.69
5.02
8.26
10.15
10.17
7.80
2.99
-3.49
-10.16
-15.42
-18.17
-18.24
-16.31
-13.41
-10.32
-7.21
-3.82
0.22
4.90
9.62
13.36
15.14
14.32
10.95
5.64
-0.56
-6.52
-11.22
-14.00
-14.62
-13.17
-10.00
-5.53
-0.17
5.72
11.74
17.44
22.41
26.36
29.23
31.19
32.44
33.03
32.71
31.05
27.70
22.67
16.41
9.80
3.81
-0.75
-3.37
-3.89
-2.39
0.85
5.40
10.66
15.99
20.78
24.58
27.25
28.80
29.26
28.65
26.90
24.01
20.12
15.55
10.76
6.22
2.28
-0.79
-2.75
-3.34
-2.26
0.70
5.56
12.02
19.66
27.93
36.22
43.64
48.94
50.55
47.04
37.78
23.54
6.57
-9.95
-22.97
-30.65
-32.79
-30.71
-26.36
-21.50
-17.06
-13.08
-9.06
-4.52
0.46
5.05
7.89
7.57
3.31
-4.51
-14.26
-23.57
-30.24
-33.20
-33.02
-31.70
-31.89
-35.95
-45.15
-59.15
-75.76
-91.13
-100.28
-98.25
-81.72
-50.54
-8.47
37.37
78.45
107.53
120.77
118.63
105.24
86.53
68.29
54.70
47.71
47.38
52.74
62.67
76.41
93.16
111.28
127.46
136.85
134.33
116.64
84.27
41.74
-3.91
-45.95
-80.29
-106.30
-125.52
-139.49
-148.19
-150.13
-144.03
-130.45
-112.51
-94.78
-81.14
-72.97
-68.72
-65.03
-58.70
-48.38
-35.00
-21.09
-9.40
-1.65
2.06
2.97
2.84
3.07
4.07
5.30
5.68
4.38
1.43
-2.20
-4.90
-5.31
-2.98
1.40
6.32
10.23
12.27
12.56
11.97
11.57
12.06
13.47
15.32
16.90
17.60
17.14
15.57
13.14
10.22
7.19
4.38
2.02
0.24
-0.98
-1.68
-1.96
-1.93
-1.70
-1.40
-1.12
-0.94
-0.90
-1.09
-1.69
-3.03
-5.49
-9.26
-14.11
-19.28
-23.66
-26.15
-26.15
-23.75
-19.68
-15.04
-10.86
-7.79
-6.03
-5.38
-5.47
-5.85
-6.06
-5.72
-4.63
-2.80
-0.53
1.68
3.36
4.26
4.51
4.49
4.66
5.34
6.52
7.87
8.95
9.34
8.82
7.40
5.22
2.47
-0.61
-3.74
-6.54
-8.63
-9.72
-9.82
-9.27
-8.67
-8.63
-9.57
-11.46
-13.94
-16.53
-18.87
-20.94
-22.97
-25.32
-28.20
-31.56
-35.16
-38.59
-41.53
-43.67
-44.77
-44.62
-43.09
-40.25
-36.41
-32.14
-28.13
-24.96
-22.89
-21.78
-21.11
-20.11
-18.09
-14.60
-9.71
-3.92
1.87
6.79
10.24
11.99
12.25
11.44
10.08
8.81
8.40
9.60
13.03
18.71
25.90
33.17
38.88
41.80
41.49
38.39
33.36
27.26
20.55
13.30
5.49
-2.74
-10.88
-18.27
-24.33
-28.76
-31.64
-33.36
-34.57
-36.02
-38.54
-42.84
-49.20
-57.16
-65.43
-72.08
-75.07
-72.98
-65.38
-52.85
-36.66
-18.25
1.00
19.84
37.00
51.24
61.47
67.20
68.71
67.06
63.71
59.97
56.63
53.88
51.53
49.22
46.83
44.43
42.19
40.31
38.81
37.58
36.35
34.85
32.86
30.44
27.84
25.46
23.62
22.43
21.66
20.92
19.83
18.25
16.36
14.47
12.83
11.43
10.09
8.56
6.74
4.71
2.65
0.66
-1.33
-3.60
-6.33
-9.50
-12.75
-15.38
-16.68
-16.19
-13.83
-10.00
-5.41
-0.76
3.48
7.10
10.09
12.48
14.20
15.20
15.55
15.48
15.38
15.58
16.18
17.00
17.66
17.82
17.34
16.33
15.03
13.65
12.33
11.16
10.27
9.89
10.26
11.57
13.75
16.42
18.84
20.13
19.56
16.85
12.37
6.98
1.80
-2.18
-4.45
-4.98
-4.14
-2.47
-0.53
1.23
2.45
2.97
2.90
2.63
2.72
3.64
5.43
7.62
9.29
9.43
7.31
2.72
-4.00
-12.12
-20.73
-29.01
-36.29
-42.02
-45.92
-48.03
-48.70
-48.40
-47.43
-45.42
-41.23
-33.21
-19.96
-1.23
21.45
44.83
64.83
77.79
81.70
76.63
64.57
48.52
31.49
15.82
3.06
-5.92
-10.62
-10.88
-7.04
-0.03
8.51
16.66
22.62
25.24
24.32
20.62
15.51
10.52
6.88
5.13
5.09
6.01
6.90
6.88
5.49
2.78
-0.76
-4.46
-7.72
-10.25
-12.04
-13.32
-14.38
-15.48
-16.81
-18.48
-20.60
-23.15
-26.00
-28.77
-30.90
-31.73
-30.80
-28.08
-24.00
-19.44
-15.34
-12.51
-11.25
-11.42
-12.35
-13.23
-13.30
-12.15
-9.84
-6.77
-3.52
-0.59
1.81
3.70
5.31
6.87
8.54
10.36
12.29
14.29
16.31
18.23
19.88
21.04
21.47
21.02
19.73
17.81
15.57
13.38
11.49
9.96
8.73
7.58
6.28
4.71
2.82
0.70
-1.49
-3.62
-5.60
-7.40
-9.03
-10.58
-12.13
-13.77
-15.58
-17.65
-19.96
-22.43
-24.80
-26.72
-27.85
-27.95
-26.94
-25.00
-22.43
-19.58
-16.71
-13.94
-11.26
-8.63
-6.04
-3.62
-1.58
-0.11
0.73
1.10
1.29
1.68
2.49
3.81
5.52
7.42
9.30
10.95
12.24
13.08
13.38
13.15
12.45
11.35
10.01
8.58
7.25
6.23
5.74
5.89
6.61
7.62
8.50
8.81
8.25
6.77
4.60
2.15
-0.10
-1.79
-2.89
-3.63
-4.50
-6.00
-8.39
-11.55
-14.97
-17.96
-19.86
-20.32
-19.39
-17.52
-15.39
-13.75
-13.26
-14.23
-16.43
-19.04
-20.87
-20.69
-17.89
-12.80
-6.65
-1.11
2.44
3.44
2.29
-0.02
-2.46
-4.41
-5.79
-6.82
-7.62
-8.08
-7.91
-6.98
-5.60
-4.52
-4.66
-6.71
-10.78
-16.33
-22.36
-27.79
-31.79
-34.01
-34.53
-33.79
-32.48
-31.41
-31.46
-33.38
-37.70
-44.47
-53.09
-62.26
-70.16
-74.83
-74.70
-69.00
-57.95
-42.48
-23.86
-3.30
18.14
39.45
59.40
76.58
89.67
97.94
101.57
101.61
99.56
96.69
93.67
90.52
87.04
83.18
79.39
76.57
75.61
76.88
79.93
83.60
86.58
88.06
88.30
88.39
89.66
92.66
96.49
98.78
96.40
86.52
67.50
39.33
3.72
-35.87
-74.59
-106.66
-126.52
-130.31
-117.43
-91.20
-58.20
-26.29
-2.04
11.10
13.18
6.61
-5.54
-20.88
-38.07
-56.25
-74.30
-90.57
-103.25
-111.10
-114.13
-113.65
-111.79
-110.63
-111.47
-114.40
-118.22
-120.74
-119.18
-110.75
-93.14
-65.08
-26.90
18.96
67.77
113.15
148.52
168.98
172.94
162.58
142.77
119.11
95.97
75.47
57.84
42.67
29.93
20.24
14.14
11.25
10.05
8.42
4.79
-1.05
-7.81
-13.46
-16.22
-15.53
-12.24
-8.23
-5.54
-5.54
-8.45
-13.34
-18.62
-22.71
-24.60
-24.13
-21.79
-18.39
-14.62
-10.98
-7.69
-4.99
-3.15
-2.46
-3.02
-4.61
-6.64
-8.31
-8.80
-7.48
-4.10
1.08
7.21
12.92
16.50
16.33
11.40
1.71
-11.54
-26.28
-40.09
-50.87
-57.36
-59.27
-57.14
-51.94
-44.76
-36.48
-27.74
-19.02
-10.66
-3.01
3.65
9.22
13.77
17.58
21.11
24.81
29.02
33.90
39.24
44.58
49.21
52.42
53.69
52.88
50.18
46.00
40.77
34.67
27.75
20.02
11.70
3.33
-4.31
-10.41
-14.50
-16.56
-17.03
-16.58
-15.78
-14.91
-13.87
-12.23
-9.44
-5.01
1.21
8.94
17.49
25.83
32.87
37.70
39.78
39.07
35.98
31.22
25.57
19.69
13.95
8.36
2.68
-3.60
-11.04
-20.14
-31.05
-43.39
-56.02
-67.11
-74.53
-76.49
-72.31
-62.86
-50.46
-38.19
-28.82
-23.96
-23.71
-26.93
-31.84
-36.84
-40.74
-42.85
-42.83
-40.49
-35.79
-29.02
-20.86
-12.26
-4.29
2.26
7.12
10.51
12.96
15.08
17.26
19.64
22.21
24.86
27.49
29.99
32.13
33.47
33.45
31.46
27.19
20.80
12.96
4.75
-2.62
-8.11
-11.05
-11.24
-8.96
-4.85
0.24
5.40
9.86
13.18
15.21
16.19
16.49
16.37
15.85
14.57
12.02
7.81
1.92
-5.27
-13.00
-20.28
-26.17
-29.89
-31.07
-29.69
-25.91
-20.06
-12.50
-3.73
5.69
15.10
23.89
31.38
37.21
41.54
45.02
48.52
52.77
58.08
64.17
70.31
74.94
76.68
74.89
70.00
63.24
56.12
50.00
45.92
44.54
44.99
46.06
46.82
46.96
46.57
45.91
45.50
46.29
49.45
53.92
57.72
58.73
55.33
46.39
31.09
9.12
-18.96
-51.70
-89.37
-131.91
-177.77
-223.59
-265.32
-299.75
-325.12
-341.14
-334.20
-296.63
-231.07
-150.93
-72.48
-6.31
44.63
82.34
110.29
130.76
143.66
147.02
139.62
122.63
99.22
72.84
46.12
20.06
-4.66
-30.45
-60.42
-96.73
-139.92
-189.46
-244.12
-301.43
-356.69
-402.91
-433.48
-443.63
-431.96
-401.26
-357.87
-309.59
-262.95
-221.47
-185.59
-154.83
-128.75
-107.28
-90.31
-77.12
-66.23
-55.78
-44.34
-31.53
-18.35
-6.66
1.92
6.86
8.89
9.70
11.19
14.77
20.92
29.06
37.99
46.51
53.95
60.38
66.36
72.54
79.19
85.97
92.07
96.52
98.74
98.75
97.11
94.60
91.72
88.47
84.27
78.35
70.22
60.06
48.87
38.11
29.17
22.84
19.02
16.91
15.63
14.63
14.20
15.27
19.16
27.15
40.30
59.26
83.94
112.79
142.33
167.60
183.65
187.63
180.13
164.94
147.19
130.98
117.87
106.89
96.12
84.41
72.35
61.85
54.90
