1658393963.00
64.000000
-0.00
-0.00
-0.00
-0.00
-0.00
-0.00
-0.00
-0.00
-0.00
-0.00
0.00
0.01
0.01
-0.00
-0.03
-0.05
-0.05
0.00
0.13
0.36
0.66
1.01
1.37
1.72
2.06
2.40
2.79
3.24
3.80
4.42
5.06
5.66
6.20
6.68
7.15
7.68
8.31
9.14
10.09
11.04
11.88
12.56
13.14
13.76
14.65
15.96
17.91
20.32
22.90
25.38
27.58
29.57
31.68
34.32
37.81
42.54
48.15
54.10
59.83
64.97
69.58
74.14
79.34
85.71
93.76
103.00
112.62
121.73
129.77
136.75
143.30
150.75
157.77
166.64
177.95
191.79
206.97
220.57
228.25
225.36
208.53
176.87
132.76
80.05
23.07
-34.94
-92.44
-149.16
-205.23
-260.37
-313.74
-363.87
-409.83
-450.91
-486.50
-515.74
-537.23
-549.22
-549.96
-538.37
-514.20
-478.67
-433.88
-382.46
-327.03
-269.84
-212.62
-156.63
-102.92
-52.35
-5.92
35.50
71.25
101.09
125.17
144.01
158.31
168.76
175.97
180.31
182.07
181.48
178.84
174.52
168.94
162.48
155.47
148.09
140.47
132.68
124.78
116.89
109.11
101.56
94.26
87.19
80.27
73.42
66.66
60.06
53.80
48.03
42.82
38.13
33.75
29.46
25.06
20.56
16.10
11.98
8.48
5.72
3.57
1.70
-0.28
-2.67
-5.46
-8.39
-11.03
-13.04
-14.29
-14.95
-15.41
-16.03
-17.06
-18.65
-20.91
-23.95
-27.54
-30.87
-32.51
-30.72
-24.36
-13.58
-0.07
13.59
25.01
32.96
37.62
39.98
40.92
40.65
38.80
35.07
29.86
24.36
20.08
18.04
18.30
20.02
21.98
23.10
22.95
21.72
19.91
18.08
16.51
15.14
13.71
11.81
9.28
6.30
3.29
0.79
-0.81
-1.45
-1.33
-0.81
-0.14
0.60
1.44
2.39
3.34
4.07
4.33
4.00
3.17
2.12
1.17
0.65
0.64
1.08
1.75
2.40
2.89
3.23
3.63
4.29
5.39
6.83
8.37
9.72
10.67
11.12
11.07
10.55
9.54
8.01
6.02
3.54
0.66
-2.49
-5.77
-9.00
-12.01
-14.64
-16.72
-18.20
-19.04
-19.19
-18.56
-17.03
-14.59
-11.40
-7.85
-4.48
-1.80
-0.12
0.62
0.67
0.37
-0.02
-0.43
-0.87
-1.35
-1.81
-2.15
-2.26
-2.12
-1.86
-1.61
-1.47
-1.39
-1.20
-0.74
-0.02
0.80
1.38
1.49
1.06
0.27
-0.49
-0.88
-0.67
0.11
1.18
2.21
2.92
3.20
3.07
2.75
2.44
2.32
2.50
2.96
3.59
4.27
4.82
5.06
4.86
4.11
2.76
0.99
-0.95
-2.72
-4.04
-4.69
-4.71
-4.32
-3.91
-3.91
-4.59
-5.98
-7.86
-9.83
-11.58
-12.94
-14.02
-15.14
-16.65
-18.75
-21.46
-24.58
-27.87
-31.20
-34.50
-37.71
-40.60
-42.68
-43.34
-42.02
-38.45
-32.77
-25.44
-17.16
-8.60
-0.35
7.19
13.77
19.24
23.48
26.41
28.00
28.33
27.63
26.23
24.55
22.96
21.69
20.86
20.46
20.46
20.83
21.52
22.44
23.36
24.08
24.42
24.34
23.86
23.07
21.95
20.42
18.40
15.89
13.01
9.99
7.08
4.39
1.96
-0.30
-2.41
-4.39
-6.20
-7.87
-9.48
-11.15
-12.97
-14.92
-16.86
-18.63
-20.04
-20.98
-21.36
-21.21
-20.70
-20.17
-20.09
-20.86
-22.69
-25.43
-28.69
-32.02
-35.05
-37.65
-39.76
-41.22
-41.65
-40.47
-37.11
-31.24
-22.99
-12.95
-2.00
8.92
18.99
27.67
34.68
39.95
43.55
45.57
46.19
45.59
44.03
41.78
39.11
36.28
33.50
30.97
28.82
27.14
25.93
25.03
24.17
23.07
21.49
19.33
16.61
13.47
10.06
6.53
2.92
-0.73
-4.38
-7.93
-11.19
-14.03
-16.38
-18.30
-19.97
-21.58
-23.23
-24.97
-26.81
-28.78
-30.87
-33.02
-35.06
-36.71
-37.62
-37.52
-36.26
-33.80
-30.16
-25.38
-19.53
-12.82
-5.68
1.31
7.56
12.59
16.23
18.54
19.80
20.35
20.59
20.83
21.21
21.68
22.00
21.88
21.19
20.05
18.79
17.80
17.31
17.32
17.64
18.06
18.43
18.74
18.92
18.77
17.98
16.23
13.38
9.55
5.11
0.49
-3.87
-7.67
-10.76
-13.15
-15.06
-16.83
-18.82
-21.25
-24.02
-26.70
-28.66
-29.32
-28.34
-25.77
-21.92
-17.21
-12.03
-6.64
-1.30
3.72
8.03
11.27
13.17
13.73
13.24
12.12
10.84
9.75
9.02
8.69
8.76
9.24
10.11
11.32
12.73
14.11
15.24
15.94
16.13
15.85
15.15
14.06
12.53
10.47
7.80
4.55
0.89
-2.87
-6.42
-9.51
-12.10
-14.33
-16.46
-18.75
-21.32
-24.13
-27.01
-29.72
-32.03
-33.69
-34.44
-33.97
-31.99
-28.30
-22.98
-16.43
-9.32
-2.40
3.72
8.75
12.71
15.80
18.25
20.19
21.62
22.51
22.90
22.92
22.77
22.68
22.77
23.09
23.61
24.27
25.01
25.74
26.36
26.74
26.77
26.41
25.69
24.70
23.55
22.32
20.98
19.53
17.97
16.35
14.77
13.35
12.17
11.23
10.53
10.00
9.60
9.25
8.87
8.39
7.76
6.97
6.04
4.98
3.80
2.52
1.22
0.02
-0.95
-1.64
-2.12
-2.53
-3.06
-3.79
-4.72
-5.78
-6.90
-8.08
-9.37
-10.82
-12.41
-14.10
-15.83
-17.58
-19.38
-21.21
-23.01
-24.70
-26.25
-27.75
-29.41
-31.48
-34.09
-37.18
-40.48
-43.58
-45.99
-47.26
-46.96
-44.81
-40.66
-34.63
-27.11
-18.75
-10.30
-2.45
4.28
9.64
13.59
16.26
17.87
18.72
19.12
19.39
19.75
20.31
21.02
21.70
22.17
22.31
22.14
21.85
21.63
21.66
22.01
22.61
23.29
23.84
24.05
23.82
23.14
22.12
20.92
19.68
18.50
17.35
16.18
14.91
13.53
12.13
10.83
9.75
8.84
7.95
6.83
5.35
3.54
1.68
0.15
-0.80
-1.11
-1.02
-0.86
-0.96
-1.48
-2.41
-3.66
-5.13
-6.76
-8.48
-10.19
-11.80
-13.26
-14.66
-16.22
-18.19
-20.69
-23.66
-26.82
-29.87
-32.59
-34.92
-36.96
-38.86
-40.71
-42.40
-43.72
-44.36
-43.98
-42.32
-39.21
-34.57
-28.49
-21.21
-13.19
-4.98
2.75
9.40
14.53
17.99
19.89
20.59
20.54
20.15
19.72
19.36
19.12
18.97
18.90
18.98
19.28
19.89
20.79
21.87
22.95
23.79
24.22
24.16
23.64
22.81
21.78
20.65
19.43
18.10
16.64
15.05
13.40
11.76
10.21
8.80
7.52
6.38
5.34
4.38
3.48
2.62
1.80
1.00
0.19
-0.73
-1.82
-3.15
-4.65
-6.17
-7.54
-8.65
-9.53
-10.38
-11.45
-12.89
-14.69
-16.69
-18.68
-20.52
-22.21
-23.87
-25.62
-27.54
-29.56
-31.63
-33.73
-35.88
-38.06
-40.10
-41.59
-41.95
-40.60
-37.17
-31.73
-24.69
-16.81
-8.89
-1.60
4.65
9.72
13.62
16.44
18.27
19.26
19.60
19.56
19.43
19.41
19.61
20.01
20.55
21.16
21.78
22.37
22.91
23.37
23.75
24.06
24.30
24.40
24.23
23.64
22.52
20.87
18.86
16.73
14.71
12.95
11.45
10.12
8.83
7.50
6.07
4.52
2.86
1.11
-0.71
-2.56
-4.34
-6.01
-7.49
-8.78
-9.91
-10.94
-11.97
-13.10
-14.45
-16.13
-18.20
-20.67
-23.51
-26.54
-29.53
-32.12
-33.85
-34.29
-33.11
-30.15
-25.51
-19.52
-12.71
-5.69
0.94
6.67
11.13
14.22
16.00
16.78
16.91
16.74
16.48
16.22
15.97
15.68
15.37
15.08
14.86
14.77
14.87
15.22
15.88
16.83
17.97
19.09
19.87
20.07
19.53
18.30
16.57
14.55
12.43
10.35
8.38
6.58
5.03
3.79
2.83
2.06
1.30
0.40
-0.72
-2.01
-3.37
-4.70
-5.96
-7.16
-8.36
-9.59
-10.85
-12.15
-13.51
-14.99
-16.66
-18.58
-20.76
-23.22
-25.97
-29.02
-32.28
-35.52
-38.29
-39.98
-39.98
-37.86
-33.56
-27.41
-20.03
-12.17
-4.48
2.56
8.64
13.57
17.23
19.58
20.68
20.69
19.88
18.56
17.01
15.49
14.20
13.29
12.84
12.85
13.28
14.01
14.89
15.77
16.50
16.95
17.06
16.80
16.26
15.53
14.75
13.98
13.21
12.39
11.45
10.30
8.96
7.49
6.06
4.81
3.87
3.19
2.63
1.97
1.04
-0.21
-1.66
-3.14
-4.54
-5.84
-7.12
-8.45
-9.88
-11.38
-12.92
-14.52
-16.26
-18.28
-20.68
-23.45
-26.53
-29.73
-32.83
-35.55
-37.56
-38.48
-37.98
-35.79
-31.80
-26.15
-19.20
-11.50
-3.68
3.64
9.96
14.91
18.33
20.21
20.75
20.30
19.27
18.08
17.03
16.26
15.74
15.38
15.08
14.89
14.93
15.33
16.13
17.17
18.16
18.80
18.92
18.51
17.72
16.71
15.54
14.16
12.44
10.29
7.78
5.10
2.53
0.23
-1.78
-3.63
-5.51
-7.51
-9.60
-11.57
-13.20
-14.41
-15.31
-16.22
-17.51
-19.41
-21.94
-24.87
-27.76
-30.15
-31.61
-31.79
-30.45
-27.45
-22.75
-16.54
-9.21
-1.37
6.26
12.98
18.25
21.83
23.72
24.13
23.41
21.94
20.10
18.29
16.81
15.83
15.39
15.38
15.68
16.18
16.83
17.64
18.53
19.34
19.84
19.87
19.37
18.46
17.30
15.95
14.35
12.32
9.79
6.84
3.77
0.94
-1.39
-3.12
-4.36
-5.31
-6.23
-7.31
-8.71
-10.51
-12.68
-15.11
-17.57
-19.83
-21.71
-23.20
-24.45
-25.69
-27.15
-28.94
-31.04
-33.28
-35.36
-36.90
-37.46
-36.58
-33.89
-29.17
-22.50
-14.33
-5.42
3.28
10.91
16.90
21.06
23.49
24.50
24.40
23.52
22.15
20.65
19.33
18.49
18.19
18.37
18.81
19.33
19.84
20.38
21.03
21.76
22.45
22.86
22.79
22.18
21.05
19.57
17.91
16.19
14.50
12.85
11.27
9.74
8.24
6.75
5.25
3.75
2.29
0.91
-0.38
-1.61
-2.89
-4.33
-5.97
-7.82
-9.79
-11.84
-13.91
-16.02
-18.18
-20.38
-22.59
-24.76
-26.86
-28.90
-30.96
-33.14
-35.54
-38.22
-41.19
-44.38
-47.68
-50.88
-53.72
-55.80
-56.69
-55.91
-53.10
-48.22
-41.63
-34.08
-26.59
-20.15
-15.49
-12.88
-12.13
-12.78
-14.20
-15.86
-17.32
-18.33
-18.68
-18.27
-17.00
-14.76
-11.44
-6.90
-1.06
6.08
14.33
23.35
32.60
41.46
49.26
55.46
59.69
61.84
62.06
60.74
58.36
55.38
52.15
48.82
45.39
41.84
38.18
34.52
31.06
27.98
25.34
23.03
20.82
18.47
15.85
13.00
10.10
7.34
4.81
2.45
0.11
-2.34
-4.98
-7.82
-10.86
-14.14
-17.66
-21.31
-24.79
-27.60
-29.13
-28.88
-26.59
-22.33
-16.51
-9.71
-2.65
4.04
9.86
14.46
17.75
19.79
20.77
20.92
20.49
19.70
18.72
17.69
16.73
15.96
15.53
15.54
16.04
16.97
18.17
19.44
20.60
21.55
22.23
22.60
22.57
22.07
21.00
19.37
17.26
14.84
12.31
9.87
7.69
5.88
4.45
3.35
2.42
1.47
0.32
-1.07
-2.63
-4.18
-5.53
-6.61
-7.43
-8.16
-8.98
-10.05
-11.41
-13.02
-14.76
-16.53
-18.29
-20.08
-22.02
-24.26
-26.89
-29.86
-32.90
-35.50
-37.04
-36.97
-34.97
-31.08
-25.68
-19.35
-12.72
-6.31
-0.52
4.39
8.29
11.14
13.05
14.17
14.71
14.85
14.73
14.46
14.15
13.94
13.98
14.29
14.84
15.55
16.29
17.07
17.89
18.76
19.57
20.12
20.15
19.53
18.33
16.82
15.35
14.19
13.40
12.79
12.11
11.17
9.93
8.56
7.29
6.35
5.80
5.61
5.61
5.60
5.40
4.87
4.02
2.87
1.56
0.19
-1.13
-2.31
-3.32
-4.15
-4.88
-5.66
-6.72
-8.23
-10.26
-12.66
-15.14
-17.38
-19.15
-20.47
-21.51
-22.54
-23.74
-25.17
-26.78
-28.50
-30.36
-32.40
-34.71
-37.27
-39.85
-42.00
-43.16
-42.79
-40.49
-36.21
-30.19
-22.99
-15.29
-7.79
-1.02
4.66
9.05
12.11
13.85
14.44
14.10
13.21
12.22
11.51
11.30
11.61
12.26
12.99
13.62
14.18
14.79
15.60
16.65
17.78
18.66
19.04
18.78
17.99
16.85
15.57
14.24
12.83
11.32
9.78
8.39
7.32
6.65
6.28
5.94
5.43
4.63
3.64
2.66
1.88
1.36
1.04
0.77
0.39
-0.19
-1.04
-2.16
-3.55
-5.14
-6.79
-8.32
-9.56
-10.42
-10.99
-11.46
-12.09
-13.08
-14.54
-16.42
-18.62
-21.00
-23.47
-25.94
-28.29
-30.29
-31.61
-31.87
-30.72
-27.97
-23.62
-17.94
-11.43
-4.73
1.50
6.71
10.54
12.91
13.95
13.97
13.38
12.56
11.80
11.24
10.88
10.66
10.53
10.50
10.64
11.05
11.71
12.55
13.42
14.18
14.74
15.11
15.26
15.14
14.68
13.84
12.67
11.32
9.97
8.67
7.39
5.96
4.23
2.18
-0.09
-2.32
-4.29
-5.84
-7.01
-7.96
-8.91
-10.12
-11.72
-13.75
-16.11
-18.57
-20.77
-22.34
-22.89
-22.15
-20.03
-16.63
-12.22
-7.19
-1.91
3.26
7.98
11.96
14.98
16.88
17.65
17.50
16.74
15.77
14.88
14.22
13.75
13.35
12.93
12.51
12.18
12.09
12.28
12.70
13.16
13.46
13.41
12.92
11.99
10.65
9.01
7.15
5.16
3.12
1.06
-1.05
-3.27
-5.62
-8.03
-10.36
-12.43
-14.12
-15.49
-16.73
-18.09
-19.78
-21.81
-23.97
-25.89
-27.11
-27.20
-25.85
-22.95
-18.60
-13.09
-6.92
-0.67
5.09
9.93
13.61
16.10
17.51
18.10
18.14
17.89
17.53
17.18
16.83
16.43
15.95
15.39
14.85
14.45
14.32
14.47
14.87
15.38
15.89
16.27
16.43
16.24
15.56
14.32
12.51
10.28
7.90
5.62
3.60
1.81
0.09
-1.72
-3.69
-5.77
-7.80
-9.65
-11.26
-12.68
-14.01
-15.36
-16.75
-18.14
-19.48
-20.82
-22.26
-24.04
-26.34
-29.19
-32.35
-35.26
-37.25
-37.64
-36.00
-32.30
-26.84
-20.20
-13.05
-6.01
0.44
5.96
10.35
13.58
15.71
16.94
17.48
17.57
17.40
17.08
16.71
16.33
15.98
15.65
15.36
15.11
14.94
14.90
15.06
15.45
15.99
16.56
16.95
16.97
16.50
15.58
14.37
13.08
11.86
10.79
9.85
8.98
8.18
7.52
7.09
6.88
6.75
6.47
5.87
4.92
3.82
2.82
2.12
1.71
1.37
0.84
-0.08
-1.38
-2.90
-4.45
-5.89
-7.16
-8.30
-9.39
-10.49
-11.66
-12.97
-14.46
-16.15
-17.97
-19.83
-21.64
-23.35
-25.01
-26.71
-28.58
-30.64
-32.90
-35.33
-37.83
-40.25
-42.29
-43.49
-43.32
-41.32
-37.27
-31.31
-23.98
-15.96
-8.06
-0.89
5.09
9.67
12.85
14.82
15.93
16.54
16.98
17.43
17.90
18.32
18.59
18.72
18.80
19.00
19.40
20.03
20.76
21.49
22.12
22.62
22.99
23.16
22.97
22.23
20.82
18.77
16.34
13.90
11.77
10.12
8.92
7.98
7.05
5.95
4.61
3.08
1.53
0.13
-0.98
-1.77
-2.35
-2.85
-3.44
-4.15
-4.97
-5.84
-6.73
-7.71
-8.87
-10.28
-11.94
-13.77
-15.70
-17.69
-19.77
-21.96
-24.20
-26.35
-28.25
-29.87
-31.30
-32.75
-34.40
-36.27
-38.08
-39.32
-39.38
-37.78
-34.27
-28.92
-22.17
-14.62
-7.00
0.03
5.92
10.40
13.39
15.04
15.67
15.69
15.50
15.46
15.76
16.37
17.14
17.85
18.32
18.50
18.49
18.49
18.69
19.15
19.80
20.41
20.74
20.58
19.82
18.45
16.56
14.26
11.69
8.98
6.28
3.70
1.36
-0.66
-2.36
-3.78
-5.04
-6.27
-7.61
-9.09
-10.66
-12.19
-13.52
-14.63
-15.62
-16.73
-18.16
-19.98
-22.03
-23.93
-25.22
-25.48
-24.49
-22.17
-18.61
-14.00
-8.57
-2.65
3.36
9.02
13.91
17.72
20.30
21.62
21.69
20.59
18.44
15.51
12.28
9.33
7.27
6.45
6.90
8.30
10.17
12.06
13.76
15.23
16.49
17.47
17.99
17.79
16.74
14.95
12.67
10.25
7.90
5.70
3.60
1.54
-0.48
-2.42
-4.27
-6.07
-7.92
-9.93
-12.16
-14.57
-17.09
-19.60
-21.97
-23.98
-25.33
-25.59
-24.37
-21.42
-16.80
-10.92
-4.44
1.96
7.71
12.45
16.10
18.73
20.47
21.45
21.75
21.47
20.70
19.61
18.46
17.48
16.91
16.87
17.32
18.15
19.14
20.10
20.84
21.26
21.26
20.79
19.80
18.28
16.23
13.70
10.80
7.62
4.31
0.96
-2.32
-5.44
-8.31
-10.85
-12.98
-14.62
-15.76
-16.51
-17.10
-17.81
-18.94
-20.65
-22.91
-25.51
-28.14
-30.52
-32.36
-33.41
-33.38
-31.93
-28.79
-23.86
-17.36
-9.89
-2.24
4.84
10.79
15.42
18.82
21.19
22.75
23.64
23.94
23.77
23.31
22.77
22.35
22.15
22.17
22.36
22.65
22.99
23.37
23.76
24.12
24.34
24.26
23.73
22.68
21.13
19.27
17.29
15.41
13.74
12.32
11.14
10.19
9.43
8.85
8.37
7.88
7.27
6.53
5.71
4.94
4.33
3.94
3.68
3.46
3.14
2.69
2.08
1.34
0.46
-0.55
-1.68
-2.81
-3.87
-4.78
-5.58
-6.42
-7.46
-8.81
-10.47
-12.30
-14.13
-15.87
-17.54
-19.29
-21.24
-23.44
-25.77
-28.06
-30.17
-32.11
-34.08
-36.33
-39.03
-42.09
-45.16
-47.61
-48.77
-48.03
-45.05
-39.82
-32.71
-24.36
-15.57
-7.13
0.35
6.51
11.24
14.62
16.80
18.04
18.59
18.74
18.82
19.02
19.45
20.04
20.64
21.14
21.54
21.89
22.29
22.74
23.16
23.41
23.35
22.98
22.37
21.65
20.88
20.04
19.03
17.74
16.15
14.33
12.42
10.55
8.83
7.27
5.87
4.63
3.57
2.75
2.16
1.72
1.28
0.64
-0.29
-1.50
-2.84
-4.13
-5.24
-6.13
-6.88
-7.58
-8.29
-9.06
-9.89
-10.81
-11.88
-13.13
-14.57
-16.12
-17.70
-19.20
-20.62
-22.02
-23.48
-25.13
-27.04
-29.22
-31.64
-34.20
-36.77
-39.12
-40.91
-41.74
-41.21
-38.97
-34.91
-29.17
-22.16
-14.45
-6.71
0.42
6.47
11.13
14.29
16.08
16.78
16.74
16.33
15.83
15.40
15.12
14.99
15.05
15.33
15.91
16.80
17.94
19.21
20.42
21.43
22.10
22.37
22.22
21.64
20.62
19.15
17.27
15.09
12.81
10.64
8.77
7.24
5.93
4.65
3.22
1.59
-0.17
-1.88
-3.37
-4.62
-5.71
-6.76
-7.85
-8.96
-10.04
-11.04
-12.05
-13.19
-14.61
-16.36
-18.39
-20.62
-22.94
-25.26
-27.41
-29.07
-29.79
-29.09
-26.64
-22.42
-16.71
-10.02
-2.92
4.11
10.64
16.35
20.94
24.18
26.02
26.54
26.04
24.85
23.31
21.65
20.01
18.48
17.12
15.98
15.10
14.51
14.15
13.97
13.87
13.75
13.55
13.17
12.54
11.56
10.16
8.30
6.07
3.64
1.21
-1.04
-3.07
-4.90
-6.60
-8.15
-9.46
-10.42
-11.00
-11.34
-11.65
-12.18
-13.07
-14.33
-15.94
-17.83
-20.02
-22.45
-24.99
-27.27
-28.75
-28.87
-27.21
-23.68
-18.55
-12.41
-5.94
0.20
5.57
9.90
13.13
15.34
16.71
17.47
17.87
18.12
18.33
18.45
18.38
18.01
17.36
16.60
16.01
15.84
16.20
17.03
18.09
19.04
19.52
19.31
18.33
16.70
14.64
12.40
10.18
8.09
6.17
4.41
2.78
1.25
-0.24
-1.75
-3.32
-4.95
-6.58
-8.13
-9.52
-10.75
-11.87
-13.02
-14.31
-15.89
-17.83
-20.20
-23.00
-26.10
-29.22
-31.95
-33.83
-34.51
-33.76
-31.55
-27.98
-23.24
-17.59
-11.38
-5.05
0.89
6.02
10.03
12.88
14.76
15.99
16.89
17.64
18.28
18.72
18.89
18.77
18.47
18.13
17.89
17.79
17.78
17.78
17.72
17.61
17.52
17.45
17.33
17.00
16.31
15.17
13.68
12.07
10.59
9.43
8.62
8.09
7.73
7.44
7.21
7.05
6.89
6.59
5.99
4.95
3.47
1.71
-0.12
-1.79
-3.21
-4.44
-5.64
-7.00
-8.62
-10.53
-12.67
-14.94
-17.23
-19.43
-21.49
-23.43
-25.34
-27.44
-29.91
-32.90
-36.35
-39.96
-43.18
-45.38
-45.94
-44.46
-40.84
-35.26
-28.22
-20.38
-12.44
-5.04
1.34
6.49
10.36
13.06
14.77
15.71
16.11
16.22
16.26
16.39
16.67
17.07
17.51
17.94
18.34
18.78
19.35
20.05
20.79
21.40
21.63
21.29
20.30
18.69
16.63
14.38
12.16
10.18
8.53
7.24
6.31
5.73
5.48
5.46
5.54
5.53
5.28
4.75
4.00
3.17
2.42
1.84
1.45
1.18
0.92
0.51
-0.24
-1.56
-3.63
-6.54
-10.12
-14.03
-17.73
-20.73
-22.73
-23.68
-23.79
-23.38
-22.76
-22.12
-21.58
-21.26
-21.24
-21.59
-22.19
-22.71
-22.61
-21.29
-18.32
-13.64
-7.62
-0.97
5.47
10.95
15.03
17.61
18.87
19.15
18.79
18.02
17.01
15.83
14.61
13.51
12.72
12.39
12.55
13.11
13.89
14.70
15.39
15.92
16.29
16.50
16.51
16.21
15.49
14.24
12.47
10.26
7.75
5.16
2.69
0.50
-1.26
-2.56
-3.51
-4.29
-5.13
-6.21
-7.52
-8.91
-10.19
-11.23
-12.07
-12.88
-13.87
-15.15
-16.69
-18.28
-19.65
-20.46
-20.41
-19.20
-16.63
-12.67
-7.55
-1.72
4.16
9.45
13.66
16.58
18.23
18.80
18.56
17.72
16.45
14.90
13.21
11.53
10.04
8.87
8.09
7.75
7.82
8.27
9.04
9.99
10.91
11.55
11.64
11.05
9.79
8.04
6.03
3.94
1.88
-0.16
-2.19
-4.23
-6.26
-8.25
-10.20
-12.20
-14.35
-16.77
-19.51
-22.49
-25.53
-28.37
-30.64
-31.98
-32.05
-30.62
-27.63
-23.21
-17.65
-11.41
-4.99
1.12
6.51
10.88
14.08
16.08
16.99
17.03
16.48
15.64
14.77
14.02
13.46
13.08
12.83
12.72
12.78
13.06
13.55
14.14
14.63
14.83
14.59
13.89
12.78
11.33
9.58
7.53
5.19
2.66
0.09
-2.33
-4.45
-6.29
-7.97
-9.66
-11.43
-13.26
-15.02
-16.61
-18.01
-19.33
-20.72
-22.27
-23.99
-25.75
-27.33
-28.46
-28.79
-27.92
-25.51
-21.36
-15.58
-8.65
-1.34
5.52
11.25
15.52
18.35
20.01
20.89
21.31
21.50
21.54
21.44
21.16
20.65
19.92
19.01
18.09
17.34
16.96
17.09
17.71
18.63
19.57
20.24
20.44
20.17
19.54
18.70
17.78
16.78
15.68
14.42
13.03
11.60
10.22
8.94
7.78
6.71
5.69
4.71
3.74
2.77
1.75
0.71
-0.34
-1.35
-2.26
-3.08
-3.91
-4.88
-6.09
-7.59
-9.30
-11.05
-12.70
-14.16
-15.42
-16.56
-17.67
-18.78
-19.92
-21.08
-22.28
-23.63
-25.28
-27.37
-29.94
-32.85
-35.74
-38.10
-39.40
-39.18
-37.23
-33.62
-28.66
-22.82
-16.61
-10.44
-4.62
0.68
5.28
9.09
12.01
14.04
15.29
15.97
16.32
16.49
16.56
16.55
16.46
16.37
16.36
16.55
16.97
17.55
18.15
18.66
19.01
19.23
19.36
19.39
19.28
18.93
18.27
17.32
16.18
14.98
13.80
12.62
11.39
10.05
8.61
7.20
6.01
5.15
4.64
4.31
3.92
3.29
2.34
1.16
-0.10
-1.32
-2.44
-3.47
-4.47
-5.48
-6.50
-7.53
-8.53
-9.55
-10.63
-11.81
-13.13
-14.57
-16.09
-17.63
-19.17
-20.72
-22.37
-24.25
-26.47
-29.09
-31.98
-34.80
-37.04
-38.10
-37.45
-34.80
-30.18
-23.95
-16.72
-9.20
-2.05
4.26
9.45
13.44
16.27
18.03
18.87
18.95
18.45
17.60
16.66
15.89
15.45
15.40
15.68
16.12
16.49
16.53
16.10
15.13
13.74
12.17
10.72
9.63
9.02
8.79
8.71
8.54
8.14
7.53
6.86
6.34
6.05
5.96
5.90
5.70
5.21
4.41
3.34
2.09
0.66
-1.04
-3.18
-5.88
-9.04
-12.26
-14.90
-16.24
-15.76
-13.36
-9.33
-4.25
1.21
6.45
10.88
13.96
15.10
13.79
9.63
2.44
-7.76
-20.78
-36.19
-53.22
-70.61
-86.62
-99.42
-107.46
-109.98
-107.28
-100.60
-91.72
-82.51
-74.54
-68.78
-65.49
-64.19
-63.68
-62.35
-58.55
-51.10
-39.60
-24.63
-7.50
10.08
26.41
40.22
50.83
58.16
62.56
64.61
64.91
64.11
62.82
61.65
61.06
61.21
61.91
62.68
63.06
62.80
61.97
60.80
59.37
57.36
54.10
48.83
41.14
31.34
20.47
10.03
1.48
-4.28
-7.11
-7.69
-7.12
-6.44
-6.19
-6.15
-5.47
-2.98
2.23
10.38
20.80
32.01
42.19
49.60
53.08
52.30
47.74
40.57
32.29
24.31
17.73
13.10
10.37
9.05
8.38
7.60
6.14
3.73
0.41
-3.51
-7.59
-11.35
-14.38
-16.42
-17.48
-17.87
-18.15
-18.93
-20.67
-23.51
-27.25
-31.47
-35.75
-39.74
-43.19
-45.82
-47.25
-47.01
-44.73
-40.39
-34.43
-27.71
-21.20
-15.60
-11.16
-7.68
-4.77
-2.19
-0.02
1.45
1.90
1.29
-0.06
-1.58
-2.67
-2.97
-2.41
-1.20
0.46
2.43
4.69
7.26
10.03
12.69
14.86
16.14
16.35
15.55
14.03
12.18
10.33
8.60
6.93
5.12
3.06
0.80
-1.48
-3.61
-5.56
-7.57
-10.00
-13.13
-16.89
-20.78
-24.00
-25.74
-25.45
-23.08
-18.95
-13.60
-7.55
-1.19
5.22
11.48
17.31
22.32
26.13
28.47
29.30
28.90
27.67
26.09
24.50
23.07
21.83
20.78
19.94
19.45
19.35
19.64
20.08
20.32
20.01
18.92
17.12
14.87
12.54
10.41
8.56
6.86
5.04
2.91
0.43
-2.23
-4.79
-7.02
-8.83
-10.28
-11.51
-12.70
-13.95
-15.31
-16.78
-18.38
-20.13
-22.02
-23.95
-25.71
-26.95
-27.26
-26.28
-23.80
-19.80
-14.50
-8.28
-1.60
5.04
11.21
16.58
20.92
24.07
25.99
26.72
26.41
25.32
23.79
22.20
20.84
19.86
19.25
18.91
18.71
18.54
18.38
18.22
18.03
17.77
17.32
16.61
15.59
14.31
12.88
11.50
10.34
9.55
9.14
8.98
8.88
8.65
8.16
7.34
6.17
4.60
2.66
0.38
-2.10
-4.59
-6.91
-8.99
-10.87
-12.65
-14.46
-16.31
-18.14
-19.87
-21.46
-22.98
-24.54
-26.22
-28.04
-29.88
-31.55
-32.79
-33.34
-32.91
-31.20
-27.97
-23.11
-16.77
-9.40
-1.65
5.72
12.07
17.04
20.51
22.66
23.69
23.83
23.20
21.88
19.98
17.72
15.53
13.86
13.08
13.31
14.32
15.61
16.62
16.95
16.50
15.42
14.03
12.56
11.11
9.65
8.10
6.43
4.69
2.94
1.19
-0.62
-2.58
-4.71
-6.90
-8.94
-10.60
-11.75
-12.41
-12.72
-12.91
-13.17
-13.73
-14.76
-16.41
-18.71
-21.49
-24.33
-26.61
-27.68
-27.02
-24.49
-20.31
-15.06
-9.38
-3.88
1.06
5.20
8.40
10.51
11.38
10.96
9.39
7.02
4.35
1.80
-0.41
-2.31
-4.05
-5.79
-7.50
-9.03
-10.25
-11.21
-12.15
-13.44
-15.34
-17.88
-20.80
-23.75
-26.39
-28.56
-30.19
-31.27
-31.66
-31.13
-29.41
-26.38
-22.17
-17.11
-11.62
-6.11
-0.85
3.99
8.28
11.93
14.86
16.95
18.14
18.30
17.35
15.26
12.15
8.39
4.58
1.51
-0.13
0.12
2.30
6.01
10.62
15.43
19.92
23.75
26.80
29.08
30.59
31.33
31.28
30.45
28.95
26.95
24.70
22.41
20.29
18.48
17.11
16.23
15.86
15.97
16.45
17.11
17.72
18.00
17.70
16.64
14.82
12.39
9.60
6.76
4.04
1.52
-0.81
-2.95
-4.78
-6.12
-6.84
-6.96
-6.72
-6.52
-6.76
-7.59
-8.92
-10.46
-11.95
-13.24
-14.38
-15.54
-16.88
-18.51
-20.48
-22.76
-25.26
-27.74
-29.79
-30.84
-30.33
-27.90
-23.61
-17.90
-11.46
-4.94
1.20
6.74
11.58
15.62
18.69
20.58
21.19
20.63
19.20
17.29
15.26
13.35
11.66
10.25
9.16
8.52
8.42
8.88
9.82
11.03
12.25
13.19
13.59
13.27
12.19
10.43
8.22
5.86
3.65
1.84
0.53
-0.30
-0.78
-1.09
-1.40
-1.89
-2.68
-3.83
-5.33
-7.08
-8.86
-10.45
-11.68
-12.56
-13.29
-14.24
-15.75
-17.97
-20.73
-23.56
-25.81
-26.90
-26.46
-24.46
-21.12
-16.88
-12.17
-7.45
-3.04
0.85
4.17
6.94
9.25
11.17
12.65
13.57
13.80
13.26
12.08
10.57
9.16
8.28
8.18
8.88
10.19
11.78
13.29
14.51
15.33
15.72
15.73
15.36
14.61
13.49
12.03
10.27
8.26
5.99
3.50
0.86
-1.76
-4.09
-5.91
-7.15
-7.96
-8.68
-9.69
-11.28
-13.50
-16.15
-18.90
-21.34
-23.11
-23.91
-23.53
-21.84
-18.86
-14.74
-9.76
-4.34
1.10
6.15
10.51
13.95
16.36
17.70
18.05
17.55
16.41
14.83
13.02
11.13
9.36
7.92
7.01
6.79
7.29
8.35
9.67
10.88
11.63
11.69
11.03
9.75
8.10
6.32
4.59
2.95
1.33
-0.42
-2.38
-4.57
-6.86
-9.11
-11.21
-13.12
-14.84
-16.36
-17.66
-18.77
-19.83
-21.06
-22.68
-24.73
-26.86
-28.43
-28.72
-27.18
-23.73
-18.73
-12.82
-6.71
-0.89
4.34
8.85
12.56
15.37
17.25
18.21
18.42
18.10
17.48
16.68
15.75
14.67
13.49
12.36
11.51
11.21
11.59
12.60
14.01
15.50
16.80
17.73
18.26
18.37
18.08
17.37
16.19
14.56
12.56
10.42
8.35
6.53
4.98
3.57
2.08
0.33
-1.69
-3.87
-5.98
-7.85
-9.41
-10.70
-11.88
-13.10
-14.48
-16.10
-18.04
-20.31
-22.90
-25.69
-28.50
-31.09
-33.24
-34.71
-35.30
-34.82
-33.08
-30.03
-25.78
-20.64
-15.04
-9.45
-4.24
0.38
4.33
7.63
10.32
12.45
14.00
15.02
15.53
15.64
15.47
15.17
14.91
14.86
15.08
15.62
16.40
17.31
18.18
18.83
19.13
19.01
18.47
17.62
16.59
15.49
14.46
13.56
12.78
12.08
11.32
10.33
8.95
7.16
5.09
3.00
1.19
-0.15
-0.98
-1.47
-1.87
-2.42
-3.26
-4.37
-5.61
-6.82
-7.88
-8.75
-9.56
-10.43
-11.47
-12.70
-14.01
-15.29
-16.44
-17.52
-18.66
-20.04
-21.76
-23.84
-26.15
-28.43
-30.39
-31.64
-31.88
-30.89
-28.65
-25.26
-20.95
-15.99
-10.69
-5.36
-0.33
4.06
7.60
10.22
11.99
13.08
13.66
13.86
13.76
13.51
13.28
13.26
13.51
13.94
14.39
14.73
14.97
15.23
15.59
16.01
16.31
16.25
15.70
14.78
13.72
12.78
12.01
11.30
10.44
9.30
7.89
6.38
4.94
3.66
2.52
1.47
0.45
-0.52
-1.45
-2.39
-3.40
-4.51
-5.69
-6.82
-7.83
-8.71
-9.57
-10.58
-11.83
-13.32
-14.99
-16.78
-18.68
-20.69
-22.67
-24.32
-25.14
-24.62
-22.47
-18.71
-13.67
-7.95
-2.13
3.23
7.75
11.15
13.35
14.44
14.67
14.43
14.05
13.72
13.43
13.05
12.47
11.73
11.01
10.57
10.60
11.06
11.80
12.54
13.11
13.44
13.56
13.44
12.96
11.95
10.24
7.90
5.18
2.51
0.25
-1.43
-2.63
-3.68
-4.91
-6.53
-8.49
-10.63
-12.70
-14.55
-16.14
-17.49
-18.63
-19.56
-20.31
-20.99
-21.78
-22.89
-24.35
-25.90
-27.03
-27.10
-25.61
-22.39
-17.68
-12.03
-6.10
-0.49
4.42
8.42
11.43
13.45
14.55
14.87
14.65
14.17
13.67
13.27
13.00
12.79
12.59
12.43
12.42
12.66
13.17
13.83
14.41
14.68
14.48
13.78
12.66
11.28
9.80
8.33
6.89
5.40
3.75
1.84
-0.27
-2.36
-4.13
-5.36
-6.04
-6.44
-6.97
-8.03
-9.70
-11.76
-13.79
-15.39
-16.41
-17.07
-17.78
-18.95
-20.76
-23.00
-25.18
-26.63
-26.76
-25.26
-22.10
-17.52
-11.99
-6.02
-0.16
5.12
9.44
12.59
14.54
15.37
15.25
14.41
13.07
11.49
9.92
8.64
7.86
7.71
8.15
9.01
10.02
10.93
11.53
11.73
11.55
11.08
10.39
9.46
8.21
6.58
4.57
2.29
-0.00
-2.02
-3.56
-4.56
-5.11
-5.41
-5.66
-5.97
-6.41
-6.92
-7.48
-8.09
-8.83
-9.78
-10.99
-12.40
-13.91
-15.34
-16.54
-17.44
-18.04
-18.38
-18.46
-18.23
-17.55
-16.15
-13.77
-10.18
-5.42
0.09
5.62
10.30
13.44
14.77
14.43
12.86
10.55
7.82
4.83
1.70
-1.48
-4.51
-7.14
-9.14
-10.32
-10.56
-9.74
-7.81
-4.76
-0.74
3.98
8.97
13.71
17.69
20.53
22.09
22.47
21.96
20.92
19.58
18.05
16.27
14.19
11.82
9.26
6.56
3.71
0.55
-3.03
-6.99
-11.01
-14.64
-17.49
-19.36
-20.39
-20.85
-20.98
-20.76
-19.88
-17.94
-14.67
-10.17
-4.88
0.47
5.21
8.89
11.34
12.66
13.09
12.85
12.16
11.24
10.29
9.58
9.29
9.49
10.14
11.03
11.87
12.46
12.72
12.74
12.73
12.86
13.13
13.43
13.51
13.12
12.11
10.44
8.15
5.34
2.13
-1.32
-4.84
-8.25
-11.41
-14.27
-16.84
-19.22
-21.50
-23.70
-25.80
-27.63
-28.97
-29.50
-28.91
-27.00
-23.72
-19.27
-14.05
-8.57
-3.35
1.21
4.85
7.49
9.18
10.04
10.24
9.95
9.34
8.54
7.68
6.87
6.20
5.72
5.45
5.36
5.42
5.56
5.79
6.08
6.37
6.58
6.54
6.08
5.06
3.41
1.14
-1.64
-4.74
-7.89
-10.78
-13.19
-14.98
-16.23
-17.18
-18.13
-19.29
-20.65
-21.91
-22.59
-22.16
-20.23
-16.64
-11.53
-5.31
1.42
7.96
13.69
18.13
21.06
22.54
22.87
22.44
21.62
20.67
19.70
18.68
17.56
16.32
15.07
13.97
13.17
12.70
12.44
12.14
11.54
10.55
9.25
7.87
6.59
5.44
4.25
2.71
0.62
-1.99
-4.86
-7.62
-10.05
-12.18
-14.26
-16.60
-19.28
-22.09
-24.47
-25.71
-25.20
-22.66
-18.23
-12.38
-5.82
0.75
6.79
12.01
16.29
19.63
22.06
23.58
24.21
24.03
23.24
22.10
20.91
19.90
19.19
18.83
18.79
19.00
19.39
19.90
20.42
20.88
21.15
21.16
20.88
20.27
19.36
18.13
16.61
14.82
12.83
10.77
8.79
7.03
5.57
4.38
3.37
2.43
1.46
0.44
-0.61
-1.61
-2.49
-3.18
-3.67
-4.04
-4.41
-4.96
-5.81
-6.99
-8.42
-9.96
-11.47
-12.82
-14.01
-15.07
-16.07
-17.03
-18.01
-19.04
-20.19
-21.50
-23.00
-24.66
-26.43
-28.28
-30.16
-32.08
-33.98
-35.73
-37.10
-37.68
-37.04
-34.78
-30.71
-24.97
-18.02
-10.55
-3.31
3.11
8.38
12.39
15.27
17.19
18.31
18.77
18.71
18.32
17.78
17.27
16.90
16.72
16.80
17.19
17.96
19.08
20.43
21.78
22.87
23.48
23.54
23.07
22.16
20.88
19.34
17.65
15.94
14.37
13.02
11.82
10.59
9.14
7.38
5.41
3.46
1.81
0.65
0.02
-0.16
-0.06
0.16
0.38
0.49
0.42
0.09
-0.54
-1.50
-2.71
-4.10
-5.53
-6.90
-8.21
-9.52
-10.92
-12.52
-14.34
-16.29
-18.26
-20.11
-21.83
-23.47
-25.16
-27.00
-29.01
-31.06
-32.96
-34.44
-35.14
-34.70
-32.77
-29.14
-23.85
-17.25
-9.94
-2.66
3.96
9.52
13.86
17.06
19.26
20.59
21.17
21.16
20.73
20.11
19.53
19.13
18.94
18.91
18.98
19.11
19.34
19.67
20.11
20.57
20.92
20.99
20.66
19.89
18.72
17.26
15.63
13.96
12.38
10.93
9.62
8.43
7.29
6.14
4.97
3.80
2.72
1.77
1.01
0.42
-0.11
-0.71
-1.49
-2.50
-3.71
-5.04
-6.38
-7.66
-8.84
-9.91
-10.89
-11.78
-12.63
-13.52
-14.56
-15.85
-17.42
-19.18
-20.94
-22.52
-23.84
-24.98
-26.14
-27.52
-29.14
-30.77
-31.94
-32.05
-30.63
-27.43
-22.55
-16.41
-9.65
-2.99
2.99
7.89
11.61
14.22
15.92
16.93
17.36
17.31
16.85
16.09
15.19
14.32
13.67
13.33
13.32
13.61
14.11
14.70
15.31
15.87
16.32
16.61
16.65
16.34
15.60
14.45
12.99
11.37
9.71
8.05
6.36
4.60
2.82
1.12
-0.34
-1.48
-2.33
-3.03
-3.78
-4.69
-5.75
-6.86
-7.92
-8.94
-10.00
-11.25
-12.81
-14.69
-16.80
-18.97
-20.99
-22.68
-23.94
-24.76
-25.31
-25.82
-26.57
-27.69
-29.12
-30.51
-31.31
-30.95
-29.00
-25.37
-20.30
-14.29
-7.94
-1.77
3.80
8.47
12.06
14.45
15.61
15.72
15.07
14.06
13.07
12.26
11.66
11.15
10.67
10.27
10.15
10.49
11.35
12.55
13.79
14.78
15.35
15.48
15.25
14.71
13.85
12.61
10.98
9.05
6.99
5.01
3.23
1.71
0.40
-0.80
-1.98
-3.26
-4.71
-6.36
-8.13
-9.82
-11.19
-12.07
-12.48
-12.65
-12.96
-13.75
-15.22
-17.28
-19.61
-21.75
-23.21
-23.54
-22.47
-19.90
-15.97
-11.01
-5.47
0.14
5.36
9.84
13.32
15.67
16.85
16.98
16.30
15.16
13.94
12.91
12.21
11.82
11.63
11.55
11.54
11.68
12.04
12.64
13.41
14.14
14.60
14.57
13.93
12.66
10.87
8.73
6.42
4.10
1.85
-0.29
-2.30
-4.20
-6.02
-7.78
-9.51
-11.21
-12.85
-14.44
-16.00
-17.57
-19.19
-20.84
-22.39
-23.57
-24.04
-23.47
-21.62
-18.41
-13.95
-8.59
-2.80
2.85
7.84
11.83
14.71
16.52
17.45
17.64
17.15
15.98
14.22
12.04
9.80
7.89
6.66
6.23
6.57
7.42
8.48
9.49
10.21
10.52
10.36
9.72
8.66
7.30
5.73
4.05
2.31
0.44
-1.60
-3.83
-6.20
-8.54
-10.70
-12.54
-14.07
-15.42
-16.80
-18.40
-20.33
-22.53
-24.78
-26.72
-27.93
-28.00
-26.61
-23.62
-19.09
-13.31
-6.77
-0.06
6.19
11.47
15.42
17.92
19.13
19.34
18.95
18.25
17.42
16.51
15.54
14.57
13.79
13.42
13.58
14.24
15.19
16.13
16.83
17.17
17.15
16.80
16.09
14.96
13.35
11.32
9.07
6.85
4.84
3.05
1.33
-0.52
-2.59
-4.79
-6.91
-8.75
-10.28
-11.66
-13.16
-15.00
-17.24
-19.77
-22.40
-24.99
-27.47
-29.69
-31.36
-31.99
-31.06
-28.25
-23.61
-17.62
-11.00
-4.48
1.42
6.42
10.43
13.41
15.38
16.41
16.66
16.43
16.09
15.93
16.12
16.60
17.23
17.87
18.46
19.04
19.71
20.49
21.33
22.07
22.54
22.62
22.27
21.49
20.35
18.96
17.41
15.81
14.24
12.74
11.29
9.87
8.44
7.04
5.77
4.72
3.98
3.54
3.29
3.11
2.87
2.48
1.89
1.08
0.10
-1.00
-2.13
-3.22
-4.27
-5.35
-6.59
-8.09
-9.92
-12.00
-14.23
-16.51
-18.78
-21.03
-23.30
-25.55
-27.73
-29.79
-31.71
-33.54
-35.32
-37.00
-38.33
-38.86
-37.97
-35.20
-30.35
-23.69
-15.87
-7.76
-0.24
6.08
10.92
14.33
16.57
17.97
18.85
19.41
19.76
19.91
19.85
19.56
19.08
18.53
18.09
17.94
18.20
18.89
19.90
21.03
22.04
22.73
22.97
22.71
21.99
20.88
19.44
17.77
15.94
14.03
12.15
10.38
8.77
7.34
6.02
4.76
3.48
2.14
0.79
-0.53
-1.76
-2.88
-3.92
-4.96
-6.09
-7.39
-8.89
-10.53
-12.23
-13.88
-15.39
-16.75
-18.01
-19.24
-20.53
-21.93
-23.45
-25.07
-26.81
-28.70
-30.73
-32.79
-34.58
-35.62
-35.33
-33.29
-29.38
-23.85
-17.28
-10.38
-3.79
2.04
6.88
10.66
13.37
15.02
15.69
15.50
14.71
13.64
12.59
11.76
11.21
10.91
10.82
10.92
11.26
11.87
12.74
13.72
14.63
15.23
15.40
15.14
14.53
13.71
12.77
11.76
10.65
9.42
8.09
6.68
5.23
3.76
2.25
0.73
-0.71
-1.93
-2.82
-3.37
-3.74
-4.16
-4.86
-5.97
-7.44
-9.10
-10.78
-12.35
-13.73
-14.96
-16.12
-17.32
-18.74
-20.50
-22.66
-25.14
-27.63
-29.63
-30.55
-29.85
-27.25
-22.82
-16.97
-10.35
-3.65
2.52
7.77
11.91
14.88
16.77
17.67
17.76
17.20
16.22
14.98
13.67
12.41
11.33
10.57
10.24
10.41
11.04
12.03
13.20
14.33
15.21
15.68
15.66
15.13
14.16
12.86
11.38
9.83
8.25
6.64
4.95
3.16
1.34
-0.42
-1.99
-3.34
-4.54
-5.83
-7.41
-9.40
-11.70
-14.03
-16.08
-17.69
-18.93
-20.07
-21.41
-23.07
-24.94
-26.63
-27.68
-27.66
-26.25
-23.36
-19.05
-13.58
-7.44
-1.24
4.31
8.65
11.44
12.72
12.78
12.09
11.06
9.99
9.01
8.12
7.29
6.52
5.86
5.45
5.44
5.89
6.77
7.91
9.05
9.95
10.45
10.48
10.03
9.13
7.78
6.07
4.10
2.06
0.14
-1.52
-2.90
-4.07
-5.17
-6.33
-7.66
-9.17
-10.86
-12.66
-14.52
-16.42
-18.35
-20.24
-21.96
-23.20
-23.57
-22.63
-20.14
-16.10
-10.82
-4.87
1.14
6.70
11.42
15.11
17.68
19.15
19.58
19.14
18.03
16.53
14.90
13.34
11.99
10.90
10.10
9.62
9.49
9.68
10.13
10.65
11.06
11.16
10.82
10.02
8.74
7.00
4.82
2.25
-0.59
-3.52
-6.31
-8.74
-10.74
-12.35
-13.70
-14.94
-16.17
-17.45
-18.85
-20.40
-22.09
-23.76
-25.09
-25.60
-24.84
-22.57
-18.81
-13.94
-8.47
-2.94
2.25
6.88
10.84
14.06
16.46
17.95
18.51
18.26
17.45
16.47
15.70
15.39
15.61
16.18
16.89
17.51
17.95
18.21
18.31
18.22
17.84
17.01
15.61
13.60
11.07
8.11
4.83
1.26
-2.57
-6.62
-10.74
-14.72
-18.26
-21.14
-23.20
-24.44
-25.03
-25.24
-25.39
-25.72
-26.31
-27.02
-27.50
-27.29
-25.94
-23.17
-18.97
-13.59
-7.50
-1.27
4.51
9.32
12.76
14.65
15.08
14.41
13.25
12.21
11.72
11.94
12.71
13.71
14.70
15.60
16.54
17.75
19.34
21.24
23.21
24.88
26.01
26.47
26.33
25.70
24.71
23.40
21.83
20.04
18.16
16.37
14.84
13.69
12.92
12.44
12.03
11.47
10.58
9.26
7.58
5.77
4.15
3.04
2.58
2.69
3.03
3.13
2.61
1.32
-0.57
-2.68
-4.58
-6.02
-6.98
-7.70
-8.52
-9.73
-11.47
-13.64
-16.03
-18.39
-20.54
-22.43
-24.09
-25.62
-27.12
-28.68
-30.39
-32.26
-34.20
-35.98
-37.20
-37.37
-36.01
-32.81
-27.73
-21.10
-13.53
-5.79
1.35
7.32
11.82
14.85
16.65
17.59
18.05
18.28
18.40
18.43
18.34
18.11
17.80
17.51
17.38
17.53
18.02
18.82
19.82
20.86
21.74
22.30
22.42
22.10
21.37
20.31
19.01
17.53
15.95
14.32
12.69
11.14
9.72
8.49
7.45
6.56
5.74
4.87
3.86
2.72
1.52
0.38
-0.58
-1.35
-2.03
-2.80
-3.84
-5.24
-6.98
-8.92
-10.87
-12.68
-14.29
-15.74
-17.19
-18.81
-20.72
-22.96
-25.43
-28.04
-30.66
-33.20
-35.56
-37.50
-38.67
-38.58
-36.83
-33.19
-27.78
-21.08
-13.77
-6.56
-0.03
5.46
9.75
12.82
14.72
15.60
15.67
15.21
14.54
13.87
13.34
12.98
12.75
12.69
12.84
13.30
14.09
15.12
16.22
17.19
17.85
18.11
17.94
17.41
16.59
15.57
14.42
13.18
11.84
10.39
8.82
7.18
5.60
4.19
3.06
2.18
1.45
0.64
-0.40
-1.72
-3.18
-4.52
-5.48
-5.96
-6.05
-6.07
-6.36
-7.16
-8.49
-10.16
-11.87
-13.40
-14.66
-15.76
-16.92
-18.42
-20.42
-22.95
-25.86
-28.82
-31.42
-33.14
-33.57
-32.42
-29.60
-25.23
-19.63
-13.26
-6.64
-0.36
5.10
9.34
12.19
13.72
14.17
13.89
13.24
12.49
11.78
11.19
10.74
10.47
10.40
10.59
11.04
11.77
12.72
13.81
14.94
15.95
16.69
17.01
16.81
16.01
14.64
12.77
10.54
8.17
5.88
3.86
2.19
0.85
-0.30
-1.39
-2.58
-3.91
-5.40
-6.96
-8.52
-10.00
-11.39
-12.76
-14.24
-15.93
-17.81
-19.70
-21.18
-21.70
-20.81
-18.28
-14.28
-9.25
-3.78
1.59
6.47
10.65
13.99
16.38
17.72
18.04
17.47
16.28
14.76
13.15
11.64
10.34
9.42
9.03
9.26
10.09
11.26
12.44
13.32
13.78
13.83
13.56
12.99
11.98
10.38
8.10
5.27
2.18
-0.80
-3.40
-5.56
-7.34
-8.88
-10.29
-11.59
-12.79
-13.88
-14.92
-15.98
-17.14
-18.44
-19.87
-21.35
-22.71
-23.72
-24.02
-23.24
-21.10
-17.48
-12.54
-6.71
-0.60
5.17
10.10
13.89
16.51
18.14
19.01
19.32
19.17
18.60
17.64
16.41
15.16
14.16
13.64
13.63
14.00
14.47
14.80
14.88
14.75
14.51
14.23
13.86
13.20
12.12
10.55
8.60
6.45
4.22
1.96
-0.35
-2.74
-5.14
-7.42
-9.44
-11.16
-12.67
-14.16
-15.76
-17.50
-19.36
-21.25
-23.16
-25.11
-27.09
-29.02
-30.66
-31.63
-31.54
-30.06
-26.99
-22.37
-16.50
-9.90
-3.16
3.12
8.47
12.66
15.60
17.39
18.19
18.23
17.71
16.88
15.89
14.84
13.77
12.70
11.71
10.95
10.63
10.88
11.72
12.94
14.20
15.12
15.41
14.97
13.89
12.36
10.55
8.59
6.55
4.52
2.60
0.96
-0.29
-1.09
-1.52
-1.78
-2.07
-2.59
-3.41
-4.56
-5.96
-7.55
-9.23
-10.97
-12.75
-14.61
-16.57
-18.66
-20.90
-23.21
-25.53
-27.72
-29.66
-31.18
-32.01
-31.80
-30.14
-26.71
-21.47
-14.72
-7.15
0.36
7.02
12.29
16.03
18.41
19.76
20.42
20.63
20.55
20.29
19.97
19.66
19.36
19.05
18.70
18.32
18.00
17.87
18.02
18.48
19.14
19.87
20.49
20.86
20.83
20.29
19.22
17.62
15.66
13.56
11.57
9.88
8.50
7.35
6.30
5.26
4.24
3.29
2.43
1.56
0.48
-0.97
-2.84
-5.03
-7.30
-9.43
-11.31
-12.97
-14.52
-16.04
-17.56
-19.01
-20.33
-21.50
-22.61
-23.84
-25.39
-27.39
-29.80
-32.38
-34.67
-36.04
-35.90
-33.83
-29.74
-23.93
-16.97
-9.59
-2.50
3.77
8.86
12.61
15.04
16.27
16.62
16.39
15.90
15.39
14.94
14.53
14.15
13.80
13.58
13.64
14.04
14.78
15.71
16.65
17.41
17.86
17.94
17.60
16.82
15.60
13.98
12.08
10.02
7.96
6.03
4.31
2.85
1.67
0.76
0.04
-0.61
-1.35
-2.30
-3.50
-4.91
-6.37
-7.75
-8.94
-9.96
-10.90
-11.88
-12.93
-14.09
-15.37
-16.82
-18.52
-20.57
-22.96
-25.55
-28.00
-29.86
-30.66
-29.98
-27.59
-23.48
-17.91
-11.41
-4.62
1.76
7.20
11.38
14.27
15.99
16.71
16.60
15.78
14.40
12.68
10.91
9.43
8.44
8.00
8.02
8.36
8.93
9.74
10.81
12.12
13.54
14.83
15.71
15.97
15.54
14.48
12.90
10.97
8.80
6.53
4.26
2.10
0.12
-1.63
-3.16
-4.54
-5.86
-7.23
-8.70
-10.28
-11.92
-13.58
-15.27
-17.02
-18.84
-20.65
-22.16
-22.92
-22.46
-20.45
-16.84
-11.92
-6.22
-0.34
5.17
9.91
13.65
16.33
17.98
18.71
18.66
17.96
16.74
15.18
13.50
11.93
10.70
9.97
9.80
10.12
10.80
11.71
12.74
13.79
14.73
15.37
15.50
14.96
13.74
11.98
9.89
7.70
5.56
3.50
1.49
-0.50
-2.53
-4.55
-6.52
-8.38
-10.08
-11.59
-12.96
-14.31
-15.88
-17.89
-20.51
-23.67
-27.11
-30.39
-33.04
-34.67
-35.02
-33.98
-31.53
-27.72
-22.69
-16.66
-9.98
-3.15
3.33
9.01
13.58
16.93
19.15
20.42
20.97
20.99
20.59
19.83
18.77
17.50
16.19
15.05
14.31
14.12
14.50
15.29
16.26
17.14
17.74
17.94
17.77
17.27
16.46
15.31
13.75
11.71
9.25
6.53
3.84
1.49
-0.31
-1.58
-2.55
-3.59
-4.98
-6.87
-9.10
-11.39
-13.40
-14.95
-16.06
-16.90
-17.75
-18.85
-20.38
-22.40
-24.85
-27.56
-30.21
-32.35
-33.52
-33.29
-31.39
-27.83
-22.86
-16.97
-10.75
-4.77
0.55
4.96
8.43
11.05
12.93
14.12
14.66
14.55
13.87
12.84
11.71
10.72
10.04
9.71
9.73
10.06
10.65
11.45
12.36
13.23
13.89
14.19
14.06
13.51
12.66
11.66
10.71
9.98
9.59
9.50
9.53
9.37
8.73
7.49
5.72
3.72
1.80
0.18
-1.10
-2.21
-3.36
-4.75
-6.44
-8.40
-10.54
-12.75
-14.98
-17.17
-19.28
-21.30
-23.26
-25.20
-27.09
-28.83
-30.12
-30.58
-29.77
-27.37
-23.36
-18.00
-11.84
-5.52
0.33
5.23
8.86
11.15
12.19
12.25
11.67
10.78
9.84
8.95
8.17
7.53
7.13
7.11
7.58
8.56
9.89
11.38
12.80
13.98
14.85
15.32
15.27
14.60
13.30
11.49
9.46
7.51
5.83
4.41
3.09
1.71
0.20
-1.41
-3.01
-4.55
-5.99
-7.38
-8.73
-10.08
-11.41
-12.76
-14.20
-15.87
-17.83
-20.06
-22.36
-24.36
-25.58
-25.56
-23.98
-20.79
-16.24
-10.82
-5.10
0.38
5.25
9.27
12.36
14.51
15.78
16.25
16.05
15.30
14.12
12.63
10.97
9.35
8.02
7.24
7.14
7.72
8.82
10.19
11.53
12.58
13.14
13.07
12.28
10.79
8.70
6.21
3.58
1.04
-1.24
-3.23
-5.02
-6.76
-8.57
-10.48
-12.42
-14.23
-15.77
-17.01
-18.01
-18.96
-20.01
-21.17
-22.22
-22.70
-22.07
-19.86
-15.96
-10.65
-4.57
1.47
6.81
11.02
14.00
15.87
16.77
16.83
16.13
14.81
13.08
11.23
9.62
8.52
8.07
8.22
8.78
9.47
10.01
10.21
10.01
9.50
8.80
8.05
7.30
6.48
5.47
4.19
2.60
0.74
-1.31
-3.45
-5.60
-7.66
-9.53
-11.15
-12.57
-13.94
-15.48
-17.38
-19.66
-22.16
-24.48
-26.16
-26.73
-25.85
-23.40
-19.49
-14.40
-8.58
-2.51
3.36
8.68
13.20
16.78
19.33
20.86
21.46
21.30
20.59
19.58
18.48
17.44
16.55
15.89
15.48
15.32
15.36
15.55
15.81
16.05
16.20
16.12
15.69
14.78
13.37
11.54
9.46
7.31
5.13
2.88
0.48
-2.06
-4.63
-7.05
-9.18
-10.99
-12.55
-14.04
-15.55
-17.18
-18.94
-20.86
-22.94
-25.19
-27.48
-29.58
-31.15
-31.77
-31.07
-28.80
-24.88
-19.52
-13.15
-6.39
0.12
5.87
10.57
14.19
16.84
18.68
19.85
20.41
20.43
20.07
19.51
18.96
18.54
18.31
18.25
18.30
18.42
18.55
18.64
18.59
18.35
17.86
17.12
16.19
15.14
14.05
12.96
11.89
10.86
9.86
8.90
7.94
6.96
5.93
4.93
4.03
3.31
2.75
2.22
1.53
0.55
-0.73
-2.19
-3.64
-5.02
-6.37
-7.90
-9.77
-12.04
-14.62
-17.30
-19.91
-22.39
-24.76
-27.12
-29.50
-31.89
-34.22
-36.39
-38.25
-39.60
-40.08
-39.30
-36.86
-32.61
-26.67
-19.50
-11.75
-4.11
2.87
8.84
13.64
17.18
19.47
20.53
20.53
19.78
18.65
17.46
16.43
15.63
15.03
14.63
14.51
14.78
15.49
16.61
17.98
19.33
20.40
20.99
20.98
20.38
19.29
17.86
16.24
14.57
12.90
11.28
9.77
8.44
7.39
6.64
6.10
5.58
4.88
3.89
2.66
1.32
0.01
-1.21
-2.40
-3.65
-5.01
-6.42
-7.76
-8.95
-10.05
-11.23
-12.69
-14.53
-16.68
-18.92
-21.02
-22.88
-24.61
-26.43
-28.50
-30.77
-32.89
-34.33
-34.56
-33.20
-30.18
-25.69
-20.08
-13.78
-7.22
-0.80
5.06
9.98
13.64
15.87
16.72
16.43
15.40
14.02
12.61
11.31
10.19
9.26
8.63
8.44
8.86
9.94
11.56
13.41
15.10
16.30
16.85
16.81
16.41
15.87
15.33
14.79
14.11
13.18
11.92
10.38
8.64
6.82
5.02
3.33
1.88
0.75
-0.01
-0.48
-0.87
-1.45
-2.43
-3.89
-5.78
-7.94
-10.24
-12.58
-15.01
-17.56
-20.26
-23.01
-25.62
-27.75
-29.00
-29.03
-27.61
-24.73
-20.60
-15.59
-10.16
-4.76
0.20
4.42
7.73
10.08
11.50
12.10
12.00
11.32
10.19
8.78
7.28
5.95
5.00
4.60
4.79
5.49
6.56
7.79
8.97
9.88
10.36
10.33
9.78
8.80
7.51
6.04
4.50
2.95
1.41
-0.12
-1.65
-3.20
-4.84
-6.62
-8.56
-10.61
-12.71
-14.78
-16.82
-18.84
-20.90
-22.99
-24.96
-26.48
-27.11
-26.42
-24.12
-20.24
-15.10
-9.22
-3.21
2.39
7.19
10.98
13.68
15.29
15.90
15.65
14.73
13.34
11.69
9.94
8.25
6.76
5.65
5.08
5.11
5.68
6.57
7.50
8.18
8.42
8.21
7.62
6.84
6.01
5.21
4.43
3.59
2.60
1.41
0.02
-1.50
-3.09
-4.75
-6.54
-8.56
-10.83
-13.27
-15.61
-17.47
-18.45
-18.23
-16.67
-13.77
-9.77
-5.01
0.08
5.01
9.37
12.78
15.02
15.99
15.71
14.37
12.24
9.67
7.02
4.60
2.64
1.24
0.40
0.11
0.33
1.00
1.99
3.06
3.94
4.36
4.20
3.45
2.26
0.83
-0.69
-2.19
-3.64
-5.07
-6.58
-8.31
-10.40
-12.94
-15.84
-18.79
-21.29
-22.79
-22.78
-21.01
-17.44
-12.37
-6.28
0.20
6.43
11.89
16.29
19.52
21.62
22.73
22.93
22.30
20.96
19.12
17.11
15.30
13.91
13.03
12.55
12.28
12.05
11.77
11.44
11.09
10.69
10.18
9.48
8.53
7.32
5.84
4.11
2.13
-0.11
-2.57
-5.17
-7.80
-10.41
-13.03
-15.74
-18.64
-21.69
-24.61
-26.91
-28.02
-27.41
-24.89
-20.62
-15.11
-9.04
-3.07
2.33
6.91
10.66
13.65
16.00
17.74
18.92
19.54
19.65
19.33
18.71
17.96
17.24
16.74
16.55
16.71
17.18
17.83
18.53
19.16
19.64
19.92
19.99
19.84
19.46
18.85
18.02
16.98
15.71
14.24
12.65
11.02
9.50
8.17
7.02
5.97
4.87
3.64
2.31
0.98
-0.20
-1.14
-1.86
-2.46
-3.08
-3.80
-4.59
-5.40
-6.16
-6.82
-7.42
-7.98
-8.59
-9.32
-10.25
-11.48
-13.09
-15.08
-17.33
-19.67
-21.87
-23.81
-25.49
-27.07
-28.78
-30.80
-33.17
-35.72
-38.13
-39.98
-40.82
-40.21
-37.80
-33.44
-27.22
-19.59
-11.31
-3.27
3.71
9.09
12.79
15.04
16.31
17.05
17.54
17.84
17.93
17.73
17.27
16.69
16.13
15.74
15.53
15.49
15.53
15.68
15.97
16.47
17.15
17.83
18.27
18.22
17.57
16.41
14.97
13.47
12.05
10.69
9.32
7.89
6.47
5.20
4.19
3.44
2.80
2.05
1.05
-0.23
-1.64
-2.95
-4.00
-4.75
-5.28
-5.78
-6.48
-7.52
-8.95
-10.68
-12.57
-14.40
-16.06
-17.54
-18.94
-20.43
-22.15
-24.14
-26.34
-28.60
-30.73
-32.48
-33.57
-33.64
-32.37
-29.54
-25.15
-19.48
-13.00
-6.28
0.13
5.80
10.42
13.85
16.07
17.29
17.79
17.93
17.94
17.90
17.75
17.41
16.89
16.33
15.94
15.85
16.06
16.50
17.01
17.51
17.95
18.26
18.34
18.07
17.32
16.07
14.42
12.55
10.68
8.94
7.37
5.91
4.49
3.04
1.58
0.20
-0.96
-1.83
-2.43
-2.89
-3.44
-4.31
-5.60
-7.29
-9.22
-11.18
-13.05
-14.75
-16.34
-17.92
-19.62
-21.52
-23.63
-25.85
-27.99
-29.73
-30.65
-30.32
-28.40
-24.80
-19.76
-13.80
-7.62
-1.86
3.02
6.84
9.64
11.57
12.79
13.44
13.63
13.47
13.07
12.51
11.86
11.12
10.35
9.60
9.02
8.74
8.94
9.66
10.87
12.40
13.96
15.25
15.97
15.90
15.01
13.41
11.34
9.06
6.87
4.88
3.13
1.49
-0.16
-1.90
-3.71
-5.47
-7.03
-8.31
-9.35
-10.27
-11.19
-12.19
-13.30
-14.53
-15.89
-17.39
-19.00
-20.54
-21.75
-22.29
-21.82
-20.12
-17.15
-13.02
-8.04
-2.63
2.71
7.52
11.42
14.22
15.91
16.61
16.54
15.90
14.85
13.51
12.02
10.56
9.35
8.62
8.50
8.94
9.77
10.77
11.75
12.63
13.41
14.07
14.51
14.53
13.95
12.73
10.98
8.95
6.83
4.72
2.59
0.41
-1.79
-3.88
-5.70
-7.21
-8.48
-9.71
-11.11
-12.74
-14.54
-16.38
-18.16
-19.90
-21.62
-23.29
-24.70
-25.50
-25.29
-23.77
-20.92
-16.91
-12.15
-7.10
-2.18
2.33
6.26
9.59
12.33
14.46
15.91
16.56
16.33
15.29
13.67
11.85
10.22
9.05
8.44
8.33
8.57
9.02
9.59
10.23
10.87
11.42
11.82
12.01
11.98
11.71
11.18
10.32
9.08
7.46
5.56
3.56
1.64
-0.06
-1.52
-2.80
-4.06
-5.39
-6.85
-8.42
-10.03
-11.62
-13.16
-14.66
-16.18
-17.80
-19.59
-21.58
-23.77
-26.05
-28.14
-29.59
-29.86
-28.51
-25.36
-20.60
-14.76
-8.53
-2.49
2.94
7.58
11.35
14.22
16.09
16.98
16.98
16.36
15.46
14.56
13.85
13.34
12.98
12.74
12.65
12.76
13.09
13.64
14.31
14.99
15.56
15.89
15.87
15.43
14.57
13.34
11.87
10.27
8.64
7.02
5.42
3.85
2.32
0.85
-0.58
-2.07
-3.70
-5.53
-7.50
-9.51
-11.41
-13.14
-14.71
-16.23
-17.78
-19.43
-21.21
-23.14
-25.26
-27.56
-29.96
-32.18
-33.78
-34.26
-33.26
-30.67
-26.67
-21.72
-16.35
-11.08
-6.29
-2.25
0.88
2.97
3.91
3.68
2.35
0.18
-2.47
-5.21
-7.71
-9.81
-11.46
-12.72
-13.64
-14.25
-14.55
-14.58
-14.39
-14.07
-13.70
-13.20
-12.44
-11.21
-9.33
-6.76
-3.56
0.10
4.03
8.05
12.01
15.76
19.15
22.02
24.22
25.63
26.18
25.85
24.67
22.74
20.25
17.44
14.60
11.86
9.22
6.53
3.60
0.37
-2.99
-6.09
-8.38
-9.33
-8.64
-6.25
-2.42
2.41
7.61
12.56
16.74
19.80
21.66
22.43
22.33
21.56
20.26
18.52
16.43
14.22
12.17
10.56
9.56
9.13
9.13
9.31
9.56
9.84
10.16
10.52
10.80
10.83
10.39
9.37
7.84
5.98
4.05
2.21
0.52
-1.09
-2.75
-4.46
-6.18
-7.75
-9.03
-9.97
-10.62
-11.11
-11.59
-12.18
-12.97
-14.00
-15.22
-16.43
-17.29
-17.39
-16.33
-13.89
-10.14
-5.41
-0.21
4.92
9.52
13.28
16.07
17.85
18.69
18.70
18.01
16.73
15.00
12.97
10.84
8.84
7.22
6.18
5.79
6.02
6.70
7.58
8.43
9.04
9.25
9.01
8.33
7.27
5.94
4.41
2.75
0.96
-0.97
-3.04
-5.21
-7.39
-9.53
-11.61
-13.69
-15.86
-18.17
-20.57
-22.95
-25.18
-27.13
-28.67
-29.58
-29.58
-28.35
-25.66
-21.52
-16.21
-10.24
-4.19
1.40
6.16
9.87
12.47
14.03
14.73
14.79
14.42
13.84
13.16
12.46
11.78
11.16
10.70
10.49
10.62
11.13
11.97
12.98
13.96
14.65
14.87
14.49
13.52
12.00
10.02
7.65
4.99
2.14
-0.77
-3.59
-6.22
-8.65
-10.95
-13.17
-15.33
-17.40
-19.35
-21.18
-23.00
-24.92
-26.93
-28.80
-30.10
-30.30
-28.96
-25.92
-21.34
-15.64
-9.35
-2.99
3.01
8.30
12.67
16.00
18.28
19.66
20.32
20.44
20.16
19.52
18.56
17.41
16.31
15.52
15.25
15.53
16.21
17.00
17.60
17.84
17.67
17.18
16.53
15.81
15.04
14.12
12.93
11.38
9.47
7.29
5.00
2.78
0.72
-1.18
-2.93
-4.58
-6.09
-7.43
-8.59
-9.66
-10.78
-12.07
-13.60
-15.35
-17.32
-19.52
-22.00
-24.78
-27.73
-30.48
-32.49
-33.21
-32.23
-29.46
-25.07
-19.50
-13.27
-6.91
-0.83
4.62
9.23
12.89
15.54
17.19
17.92
17.88
17.29
16.43
15.59
15.00
14.77
14.90
15.31
15.86
16.44
17.00
17.50
17.97
18.40
18.76
18.97
18.91
18.45
17.54
16.16
14.43
12.53
10.63
8.90
7.40
6.08
4.86
3.62
2.34
1.07
-0.13
-1.23
-2.24
-3.29
-4.45
-5.76
-7.15
-8.53
-9.88
-11.27
-12.83
-14.65
-16.65
-18.63
-20.37
-21.77
-23.01
-24.42
-26.30
-28.68
-31.18
-33.10
-33.65
-32.30
-28.93
-23.89
-17.78
-11.26
-4.89
0.93
5.96
10.04
13.11
15.14
16.23
16.48
16.08
15.15
13.86
12.37
10.85
9.53
8.61
8.26
8.56
9.45
10.79
12.31
13.73
14.78
15.24
15.06
14.26
12.95
11.24
9.29
7.26
5.30
3.53
1.98
0.64
-0.58
-1.76
-2.93
-4.02
-4.99
-5.77
-6.42
-7.03
-7.74
-8.67
-9.91
-11.50
-13.43
-15.70
-18.19
-20.72
-22.95
-24.41
-24.66
-23.32
-20.27
-15.72
-10.18
-4.33
1.17
5.85
9.49
12.07
13.62
14.24
13.99
12.98
11.42
9.61
7.88
6.55
5.80
5.69
6.18
7.14
8.38
9.69
10.84
11.64
11.99
11.88
11.40
10.68
9.79
8.79
7.67
6.37
4.82
2.98
0.83
-1.58
-4.13
-6.71
-9.20
-11.51
-13.61
-15.50
-17.25
-18.97
-20.79
-22.81
-24.99
-27.08
-28.68
-29.30
-28.50
-26.06
-22.04
-16.78
-10.81
-4.71
1.02
6.04
10.18
13.39
15.72
17.22
17.94
17.94
17.30
16.13
14.67
13.17
11.89
11.04
10.70
10.86
11.41
12.23
13.18
14.12
14.94
15.48
15.56
15.08
13.96
12.29
10.24
8.03
5.87
3.84
1.95
0.11
-1.82
-3.92
-6.20
-8.54
-10.74
-12.61
-14.03
-15.08
-15.97
-17.00
-18.44
-20.40
-22.79
-25.28
-27.42
-28.69
-28.62
-26.90
-23.45
-18.45
-12.35
-5.76
0.64
6.27
10.76
14.00
16.11
17.31
17.87
18.00
17.85
17.47
16.89
16.12
15.22
14.24
13.33
12.63
12.28
12.38
12.91
13.72
14.59
15.24
15.47
15.21
14.49
13.43
12.11
10.60
8.88
6.95
4.91
2.95
1.26
-0.03
-0.91
-1.55
-2.15
-2.91
-3.93
-5.25
-6.86
-8.69
-10.65
-12.62
-14.50
-16.26
-17.99
-19.81
-21.86
-24.20
-26.70
-29.07
-30.90
-31.75
-31.24
-29.14
-25.41
-20.26
-14.11
-7.49
-0.99
4.86
9.70
13.29
15.61
16.79
17.04
16.62
15.80
14.77
13.71
12.77
12.08
11.72
11.70
11.97
12.43
12.99
13.60
14.18
14.66
14.91
14.80
14.23
13.19
11.76
10.10
8.36
6.65
5.05
3.56
2.22
1.00
-0.13
-1.23
-2.42
-3.76
-5.27
-6.87
-8.44
-9.87
-11.12
-12.22
-13.28
-14.46
-15.94
-17.84
-20.17
-22.78
-25.35
-27.37
-28.28
-27.61
-25.18
-21.14
-15.92
-10.13
-4.31
1.11
5.89
9.88
12.98
15.11
16.20
16.28
15.48
14.04
12.30
10.58
9.14
8.13
7.58
7.44
7.65
8.16
8.92
9.88
10.94
11.97
12.76
13.14
12.95
12.10
10.64
8.74
6.64
4.58
2.70
0.99
-0.69
-2.53
-4.62
-6.95
-9.33
-11.53
-13.36
-14.78
-15.86
-16.81
-17.86
-19.16
-20.69
-22.20
-23.28
-23.48
-22.42
-19.93
-16.13
-11.34
-6.04
-0.74
4.09
8.09
11.05
12.92
13.81
13.90
13.38
12.40
11.00
9.25
7.29
5.40
3.94
3.22
3.37
4.26
5.59
6.97
8.11
8.88
9.22
9.16
8.69
7.80
6.50
4.82
2.88
0.80
-1.30
-3.36
-5.41
-7.52
-9.76
-12.13
-14.57
-17.01
-19.44
-21.93
-24.58
-27.42
-30.27
-32.69
-34.04
-33.74
-31.47
-27.39
-22.10
-16.47
-11.36
-7.40
-4.88
-3.67
-3.34
-3.24
-2.68
-1.12
1.67
5.57
10.15
14.82
19.04
22.47
24.97
26.54
27.23
27.06
26.05
24.31
22.07
19.68
17.48
15.71
14.51
13.84
13.65
13.81
14.22
14.77
15.34
15.78
15.91
15.60
14.75
13.38
11.55
9.41
7.10
4.72
2.30
-0.20
-2.80
-5.51
-8.28
-11.00
-13.56
-15.95
-18.26
-20.65
-23.25
-26.05
-28.90
-31.41
-33.06
-33.36
-31.91
-28.58
-23.56
-17.32
-10.48
-3.68
2.54
7.85
12.07
15.15
17.13
18.15
18.41
18.16
17.64
17.03
16.38
15.71
15.04
14.46
14.10
14.12
14.54
15.29
16.17
16.97
17.51
17.64
17.27
16.28
14.64
12.38
9.69
6.81
4.03
1.53
-0.67
-2.63
-4.49
-6.33
-8.15
-9.87
-11.43
-12.80
-14.05
-15.38
-17.01
-19.11
-21.75
-24.81
-27.93
-30.61
-32.28
-32.42
-30.74
-27.22
-22.12
-15.95
-9.29
-2.74
3.28
8.46
12.66
15.88
18.17
19.68
20.52
20.80
20.63
20.08
19.25
18.27
17.29
16.45
15.89
15.68
15.84
16.31
16.96
17.60
18.02
18.07
17.64
16.77
15.52
13.98
12.22
10.29
8.24
6.14
4.10
2.17
0.37
-1.37
-3.15
-5.03
-7.04
-9.09
-11.05
-12.83
-14.42
-15.89
-17.40
-19.11
-21.13
-23.47
-26.07
-28.75
-31.21
-33.01
-33.63
-32.58
-29.60
-24.76
-18.51
-11.53
-4.57
1.78
7.19
11.51
14.73
16.91
18.12
18.52
18.32
17.80
17.18
16.63
16.18
15.84
15.61
15.53
15.65
15.96
16.46
17.06
17.67
18.20
18.53
18.57
18.24
17.50
16.37
14.93
13.24
11.37
9.34
7.21
5.05
3.04
1.30
-0.07
-1.16
-2.10
-3.11
-4.30
-5.69
-7.21
-8.80
-10.43
-12.09
-13.81
-15.57
-17.41
-19.38
-21.56
-24.01
-26.67
-29.26
-31.26
-32.06
-31.13
-28.25
-23.53
-17.43
-10.56
-3.57
3.00
8.79
13.53
17.08
19.34
20.33
20.18
19.18
17.66
15.97
14.43
13.22
12.45
12.13
12.23
12.64
13.26
13.94
14.60
15.18
15.64
15.97
16.09
15.89
15.24
14.08
12.44
10.43
8.25
6.06
4.02
2.18
0.54
-0.94
-2.35
-3.79
-5.33
-7.00
-8.76
-10.49
-12.09
-13.52
-14.82
-16.10
-17.50
-19.15
-21.10
-23.35
-25.81
-28.25
-30.29
-31.40
-31.07
-28.93
-24.94
-19.43
-13.02
-6.40
-0.15
5.35
9.93
13.52
16.10
17.65
18.17
17.79
16.68
15.13
13.44
11.86
10.55
9.63
9.13
9.05
9.42
10.17
11.22
12.34
13.30
13.86
13.89
13.33
12.24
10.73
8.90
6.87
4.73
2.61
0.57
-1.37
-3.27
-5.19
-7.16
-9.16
-11.07
-12.78
-14.21
-15.38
-16.39
-17.43
-18.72
-20.40
-22.48
-24.68
-26.49
-27.26
-26.43
-23.72
-19.28
-13.64
-7.49
-1.49
3.90
8.43
12.01
14.62
16.25
16.92
16.69
15.72
14.23
12.49
10.76
9.25
8.13
7.49
7.33
7.59
8.20
9.04
10.03
11.08
12.09
12.90
13.32
13.20
12.44
11.06
9.20
7.04
4.73
2.37
-0.03
-2.50
-5.06
-7.66
-10.24
-12.73
-15.13
-17.46
-19.83
-22.32
-24.92
-27.51
-29.80
-31.38
-31.78
-30.64
-27.80
-23.36
-17.68
-11.31
-4.85
1.17
6.35
10.45
13.38
15.17
15.91
15.77
14.94
13.64
12.11
10.56
9.18
8.15
7.58
7.53
7.92
8.60
9.38
10.05
10.50
10.73
10.72
10.49
9.96
8.99
7.47
5.40
2.91
0.21
-2.46
-4.96
-7.24
-9.37
-11.44
-13.56
-15.82
-18.32
-21.05
-23.84
-26.27
-27.75
-27.71
-25.80
-22.03
-16.80
-10.71
-4.40
1.65
7.12
11.75
15.31
17.60
18.52
18.17
16.81
14.86
12.73
10.73
9.02
7.64
6.57
5.80
5.29
5.07
5.14
5.42
5.78
6.04
5.97
5.42
4.35
2.79
0.88
-1.27
-3.54
-5.88
-8.29
-10.80
-13.49
-16.40
-19.55
-22.81
-25.92
-28.45
-29.90
-29.84
-28.00
-24.40
-19.35
-13.33
-6.89
-0.55
5.28
10.34
14.45
17.48
19.35
20.05
19.63
18.26
16.23
13.86
11.54
9.55
8.13
7.37
7.19
7.42
7.84
8.24
8.46
8.41
8.02
7.22
5.93
4.11
1.83
-0.74
-3.35
-5.82
-8.07
-10.23
-12.55
-15.29
-18.56
-22.18
-25.74
-28.66
-30.36
-30.37
-28.46
-24.66
-19.27
-12.78
-5.84
0.88
6.84
11.67
15.29
17.77
19.32
20.11
20.29
19.90
19.00
17.73
16.31
15.03
14.14
13.74
13.75
13.94
14.03
13.87
13.44
12.90
12.37
11.91
11.37
10.54
9.21
7.33
4.97
2.33
-0.42
-3.17
-5.90
-8.61
-11.27
-13.81
-16.20
-18.46
-20.70
-23.02
-25.40
-27.59
-29.14
-29.49
-28.18
-25.00
-20.07
-13.85
-7.00
-0.19
6.00
11.24
15.38
18.47
20.63
22.00
22.65
22.66
22.08
21.03
19.70
18.40
17.42
16.99
17.18
17.86
18.80
19.72
20.43
20.86
21.05
21.04
20.83
20.34
19.48
18.23
16.62
14.76
12.76
10.65
8.44
6.14
3.81
1.62
-0.28
-1.80
-3.01
-4.14
-5.46
-7.11
-9.12
-11.26
-13.31
-15.05
-16.48
-17.77
-19.18
-21.00
-23.44
-26.53
-30.11
-33.77
-36.89
-38.73
-38.62
-36.13
-31.30
-24.57
-16.74
-8.69
-1.19
5.29
10.55
14.59
17.52
19.43
20.41
20.56
20.08
19.20
18.21
17.31
16.64
16.24
16.08
16.15
16.49
17.15
18.12
19.29
20.44
21.28
21.58
21.25
20.36
19.08
17.59
16.04
14.47
12.93
11.45
10.04
8.74
7.56
6.46
5.45
4.54
3.75
3.06
2.42
1.70
0.81
-0.28
-1.49
-2.70
-3.78
-4.73
-5.67
-6.75
-8.13
-9.84
-11.77
-13.78
-15.71
-17.48
-19.15
-20.80
-22.56
-24.55
-26.85
-29.49
-32.35
-35.16
-37.44
-38.58
-37.99
-35.32
-30.57
-24.17
-16.79
-9.19
-1.98
4.42
9.78
13.97
16.93
18.65
19.24
18.90
17.95
16.71
15.45
14.35
13.53
13.08
13.05
13.48
14.32
15.43
16.64
17.75
18.63
19.17
19.29
18.90
17.93
16.43
14.55
12.52
10.60
8.95
7.57
6.32
5.01
3.49
1.80
0.08
-1.46
-2.67
-3.53
-4.17
-4.82
-5.70
-6.92
-8.48
-10.24
-12.04
-13.75
-15.35
-16.86
-18.33
-19.81
-21.35
-23.02
-24.91
-27.09
-29.50
-31.87
-33.68
-34.28
-33.13
-30.00
-25.08
-18.93
-12.29
-5.83
-0.01
4.97
9.11
12.46
15.05
16.87
17.83
17.86
16.98
15.39
13.42
11.50
10.09
9.47
9.74
10.74
12.15
13.62
14.85
15.66
16.03
16.00
15.63
14.94
13.94
12.64
11.08
9.37
7.59
5.86
4.21
2.64
1.07
-0.58
-2.37
-4.29
-6.26
-8.14
-9.78
-11.08
-12.06
-12.87
-13.78
-15.07
-16.95
-19.42
-22.25
-25.00
-27.15
-28.23
-27.88
-25.98
-22.58
-17.89
-12.24
-6.00
0.37
6.39
11.62
15.69
18.37
19.65
19.69
18.81
17.35
15.59
13.74
11.93
10.31
9.06
8.36
8.35
8.99
10.08
11.31
12.39
13.18
13.64
13.79
13.62
13.03
11.87
10.09
7.79
5.19
2.54
-0.04
-2.57
-5.14
-7.78
-10.39
-12.74
-14.63
-15.99
-17.03
-18.11
-19.59
-21.68
-24.27
-26.93
-29.04
-29.95
-29.19
-26.57
-22.25
-16.64
-10.33
-3.93
2.01
7.13
11.26
14.35
16.48
17.75
18.24
18.05
17.25
16.00
14.47
12.94
11.65
10.84
10.63
11.01
11.87
13.02
14.21
15.21
15.82
15.91
15.43
14.40
12.93
11.16
9.21
7.16
5.00
2.64
0.00
-2.95
-6.14
-9.40
-12.52
-15.35
-17.83
-20.09
-22.30
-24.60
-27.03
-29.38
-31.31
-32.39
-32.19
-30.44
-27.10
-22.36
-16.63
-10.45
-4.35
1.22
5.93
9.63
12.23
13.76
14.27
13.89
12.83
11.37
9.83
8.50
7.58
7.18
7.31
7.90
8.79
9.79
10.68
11.34
11.71
11.80
11.65
11.27
10.58
9.47
7.82
5.67
3.16
0.52
-1.98
-4.17
-5.98
-7.47
-8.80
-10.13
-11.62
-13.36
-15.37
-17.62
-19.97
-22.18
-23.94
-24.84
-24.48
-22.59
-19.15
-14.38
-8.76
-2.86
2.78
7.75
11.78
14.74
16.59
17.34
17.09
16.00
14.27
12.19
10.02
8.05
6.53
5.61
5.38
5.79
6.67
7.77
8.85
9.65
10.05
9.97
9.45
8.53
7.27
5.69
3.82
1.71
-0.53
-2.76
-4.81
-6.59
-8.10
-9.45
-10.80
-12.34
-14.20
-16.45
-19.05
-21.80
-24.38
-26.31
-27.08
-26.25
-23.62
-19.33
-13.81
-7.70
-1.66
3.82
8.44
12.09
14.69
16.21
16.57
15.81
14.15
12.01
9.91
8.31
7.44
7.31
7.75
8.53
9.42
10.27
10.95
11.36
11.44
11.16
10.52
9.56
8.31
6.75
4.87
2.68
0.25
-2.29
-4.79
-7.11
-9.17
-11.04
-12.85
-14.79
-17.04
-19.60
-22.23
-24.48
-25.77
-25.56
-23.53
-19.71
-14.43
-8.23
-1.76
4.40
9.75
13.96
16.87
18.47
18.89
18.36
17.12
15.43
13.54
11.70
10.18
9.21
8.93
9.29
10.08
10.98
11.67
11.99
11.93
11.60
11.14
10.56
9.78
8.60
6.83
4.40
1.37
-2.05
-5.56
-8.85
-11.73
-14.09
-16.00
-17.64
-19.23
-20.96
-22.87
-24.85
-26.61
-27.72
-27.67
-26.05
-22.64
-17.53
-11.11
-4.00
3.08
9.46
14.70
18.57
21.09
22.40
22.71
22.26
21.29
20.08
18.90
18.01
17.61
17.79
18.50
19.57
20.82
22.07
23.26
24.37
25.36
26.17
26.63
26.54
25.81
24.49
22.77
20.89
19.04
17.27
15.56
13.92
12.40
11.12
10.19
9.57
9.18
8.82
8.36
7.76
7.07
6.37
5.73
5.13
4.52
3.85
3.05
2.10
0.98
-0.25
-1.50
-2.66
-3.63
-4.44
-5.22
-6.21
-7.62
-9.56
-11.98
-14.66
-17.35
-19.84
-22.05
-24.01
-25.84
-27.65
-29.51
-31.48
-33.61
-35.95
-38.53
-41.30
-44.01
-46.20
-47.26
-46.53
-43.58
-38.35
-31.22
-22.96
-14.46
-6.49
0.43
6.10
10.53
13.85
16.19
17.70
18.54
18.88
18.92
18.87
18.83
18.87
18.96
19.07
19.20
19.40
19.77
20.36
21.18
22.10
22.97
23.56
23.74
23.49
22.85
21.90
20.69
19.24
17.54
15.62
13.59
11.62
9.86
8.40
7.25
6.32
5.54
4.87
4.28
3.77
3.30
2.79
2.12
1.20
0.03
-1.31
-2.71
-4.04
-5.26
-6.40
-7.53
-8.77
-10.18
-11.78
-13.53
-15.29
-16.99
-18.54
-19.96
-21.34
-22.84
-24.61
-26.80
-29.43
-32.41
-35.46
-38.12
-39.81
-39.90
-37.93
-33.72
-27.52
-19.93
-11.82
-4.07
2.66
8.03
12.05
14.92
16.91
18.20
18.86
18.90
18.37
17.48
16.52
15.79
15.47
15.53
15.81
16.16
16.49
16.89
17.46
18.27
19.21
20.03
20.40
20.13
19.21
17.78
16.08
14.32
12.63
11.07
9.66
8.41
7.27
6.15
4.92
3.49
1.82
0.03
-1.72
-3.20
-4.26
-4.90
-5.24
-5.50
-5.94
-6.75
-8.01
-9.69
-11.66
-13.72
-15.77
-17.77
-19.81
-22.02
-24.55
-27.41
-30.51
-33.56
-36.15
-37.84
-38.20
-36.93
-33.90
-29.23
-23.23
-16.41
-9.39
-2.79
2.87
7.28
10.33
12.15
12.97
13.08
12.72
12.05
11.18
10.18
9.20
8.42
8.01
8.15
8.87
10.08
11.59
13.17
14.61
15.72
16.35
16.39
15.76
14.50
12.75
10.71
8.57
6.41
4.22
1.92
-0.52
-3.01
-5.38
-7.44
-9.11
-10.48
-11.72
-13.12
-14.87
-17.11
-19.86
-23.01
-26.35
-29.55
-32.19
-33.77
-33.85
-32.10
-28.46
-23.16
-16.74
-9.87
-3.25
2.62
7.45
11.19
13.92
15.74
16.73
16.95
16.49
15.53
14.28
12.98
11.87
11.10
10.74
10.80
11.17
11.70
12.18
12.44
12.33
11.82
10.91
9.63
8.04
6.19
4.17
2.09
0.09
-1.76
-3.47
-5.09
-6.75
-8.58
-10.67
-13.12
-15.91
-18.95
-21.95
-24.46
-25.91
-25.80
-23.85
-20.15
-15.11
-9.35
-3.52
1.88
6.53
10.31
13.21
15.24
16.41
16.69
16.10
14.73
12.81
10.67
8.69
7.22
6.43
6.30
6.67
7.30
7.98
8.61
9.14
9.58
9.88
9.95
9.63
8.77
7.27
5.12
2.46
-0.53
-3.60
-6.52
-9.18
-11.55
-13.75
-15.92
-18.23
-20.77
-23.50
-26.21
-28.50
-29.87
-29.77
-27.82
-23.90
-18.26
-11.47
-4.30
2.53
8.45
13.15
16.56
18.73
19.86
20.11
19.71
18.87
17.76
16.49
15.16
13.89
12.81
12.07
11.80
11.98
12.47
13.02
13.42
13.50
13.21
12.61
11.76
10.67
9.32
7.64
5.59
3.16
0.45
-2.42
-5.30
-8.05
-10.62
-13.05
-15.42
-17.85
-20.39
-23.08
-25.91
-28.83
-31.72
-34.35
-36.34
-37.26
-36.69
-34.45
-30.61
-25.59
-19.95
-14.31
-9.16
-4.80
-1.35
1.15
2.72
3.34
3.02
1.78
-0.23
-2.74
-5.38
-7.78
-9.64
-10.80
-11.23
-10.97
-10.00
-8.26
-5.61
-1.98
2.55
7.73
13.15
18.46
23.38
27.80
31.70
35.03
37.68
39.48
40.28
40.07
38.96
37.17
34.87
32.20
29.19
25.87
22.33
18.71
15.15
11.72
8.43
5.23
2.14
-0.82
-3.54
-6.00
-8.27
-10.53
-12.99
-15.84
-19.09
-22.60
-25.98
-28.73
-30.25
-30.02
-27.74
-23.40
-17.39
-10.39
-3.23
3.38
8.99
13.44
16.79
19.17
20.64
21.22
20.92
19.88
18.42
16.98
15.93
15.46
15.54
15.99
16.61
17.30
18.08
18.96
19.90
20.71
21.16
21.06
20.38
19.24
17.87
16.42
14.94
13.34
11.44
9.14
6.51
3.78
1.26
-0.79
-2.33
-3.52
-4.67
-6.09
-7.90
-10.03
-12.26
-14.30
-16.01
-17.41
-18.72
-20.23
-22.21
-24.76
-27.76
-30.85
-33.44
-34.91
-34.72
-32.55
-28.39
-22.57
-15.65
-8.33
-1.28
4.91
9.90
13.55
15.93
17.28
17.88
17.99
17.72
17.12
16.15
14.86
13.39
12.03
11.10
10.83
11.26
12.25
13.47
14.57
15.21
15.23
14.58
13.37
11.76
9.95
8.07
6.19
4.36
2.59
0.87
-0.82
-2.48
-4.11
-5.69
-7.20
-8.60
-9.88
-11.06
-12.15
-13.17
-14.13
-15.00
-15.82
-16.67
-17.74
-19.17
-21.03
-23.18
-25.24
-26.71
-27.09
-26.01
-23.31
-19.13
-13.82
-7.86
-1.76
4.02
9.12
13.28
16.37
18.29
19.00
18.54
17.05
14.84
12.32
9.97
8.20
7.27
7.20
7.85
8.94
10.22
11.43
12.43
13.15
13.60
13.78
13.73
13.44
12.84
11.88
10.50
8.74
6.68
4.46
2.22
0.04
-2.03
-3.99
-5.82
-7.49
-8.96
-10.24
-11.39
-12.52
-13.75
-15.18
-16.86
-18.81
-21.00
-23.41
-25.93
-28.36
-30.35
-31.46
-31.26
-29.42
-25.88
-20.88
-14.91
-8.57
-2.42
3.12
7.80
11.53
14.30
16.11
16.97
16.92
16.08
14.69
13.11
11.72
10.87
10.72
11.22
12.17
13.28
14.34
15.24
15.98
16.60
17.06
17.29
17.17
16.58
15.49
13.95
12.09
10.03
7.90
5.79
3.79
1.96
0.34
-1.06
-2.33
-3.55
-4.86
-6.34
-7.99
-9.71
-11.38
-12.88
-14.20
-15.44
-16.82
-18.56
-20.82
-23.64
-26.87
-30.21
-33.21
-35.31
-35.96
-34.67
-31.25
-25.86
-19.06
-11.62
-4.36
2.09
7.39
11.46
14.39
16.31
17.36
17.66
17.38
16.70
15.80
14.84
13.95
13.25
12.85
12.87
13.34
14.19
15.24
16.22
16.92
17.21
17.09
16.66
16.05
15.38
14.65
13.81
12.76
11.39
9.66
7.61
5.38
3.12
1.00
-0.93
-2.64
-4.14
-5.44
-6.57
-7.59
-8.59
-9.68
-10.90
-12.23
-13.58
-14.92
-16.28
-17.85
-19.84
-22.34
-25.24
-28.15
-30.50
-31.70
-31.28
-29.04
-25.01
-19.50
-12.95
-5.94
0.89
6.95
11.77
15.11
16.96
17.58
17.28
16.40
15.16
13.71
12.20
10.78
9.64
8.95
8.81
9.17
9.95
10.99
12.12
13.20
14.09
14.67
14.85
14.64
14.07
13.21
12.12
10.80
9.25
7.51
5.65
3.78
1.99
0.33
-1.23
-2.74
-4.24
-5.80
-7.42
-9.12
-10.86
-12.58
-14.18
-15.59
-16.82
-17.98
-19.26
-20.89
-23.01
-25.57
-28.25
-30.52
-31.72
-31.26
-28.83
-24.48
-18.64
-11.98
-5.19
1.16
6.73
11.35
14.95
17.47
18.86
19.10
18.28
16.66
14.61
12.53
10.76
9.45
8.60
8.15
7.98
8.12
8.61
9.55
10.92
12.54
14.06
15.05
15.19
14.33
12.64
10.43
8.07
5.84
3.82
1.95
0.11
-1.76
-3.67
-5.51
-7.22
-8.75
-10.13
-11.47
-12.84
-14.34
-16.06
-18.06
-20.24
-22.35
-23.95
-24.51
-23.58
-20.97
-16.82
-11.53
-5.68
0.16
5.52
10.07
13.57
15.88
16.95
16.83
15.70
13.82
11.54
9.19
7.06
5.39
4.29
3.81
3.89
4.42
5.28
6.35
7.57
8.85
10.04
10.90
11.16
10.56
9.04
6.71
3.90
0.97
-1.81
-4.29
-6.49
-8.51
-10.49
-12.54
-14.77
-17.26
-20.01
-22.84
-25.42
-27.27
-27.92
-27.05
-24.59
-20.70
-15.79
-10.33
-4.78
0.46
5.09
8.95
11.91
13.89
14.86
14.80
13.81
12.12
10.09
8.13
6.61
5.72
5.47
5.70
6.25
6.96
7.72
8.50
9.22
9.78
10.04
9.85
9.07
7.63
5.56
3.01
0.19
-2.62
-5.24
-7.63
-9.91
-12.31
-15.06
-18.25
-21.77
-25.34
-28.49
-30.77
-31.70
-30.94
-28.31
-23.87
-17.94
-11.11
-4.07
2.51
8.11
12.50
15.65
17.70
18.81
19.14
18.81
17.95
16.75
15.46
14.34
13.62
13.46
13.88
14.78
15.95
17.14
18.12
18.70
18.83
18.52
17.84
16.79
15.28
13.22
10.52
7.22
3.53
-0.25
-3.84
-7.05
-9.90
-12.52
-15.12
-17.87
-20.85
-24.06
-27.42
-30.75
-33.73
-35.94
-36.80
-35.81
-32.66
-27.38
-20.37
-12.34
-4.11
3.62
10.33
15.80
19.97
22.92
24.76
25.62
25.70
25.22
24.46
23.68
23.07
22.68
22.46
22.32
22.20
22.12
22.16
22.36
22.68
22.95
22.91
22.41
21.39
19.97
18.32
16.62
14.90
13.12
11.22
9.17
7.02
4.88
2.83
0.90
-0.93
-2.74
-4.59
-6.50
-8.46
-10.45
-12.42
-14.39
-16.34
-18.28
-20.26
-22.34
-24.67
-27.41
-30.70
-34.51
-38.52
-42.12
-44.48
-44.76
-42.42
-37.39
-30.14
-21.52
-12.50
-3.93
3.65
10.01
15.12
19.04
21.86
23.65
24.54
24.69
24.32
23.67
22.92
22.19
21.58
21.14
20.92
21.01
21.43
22.18
23.19
24.28
25.25
25.89
26.04
25.62
24.62
23.16
21.37
19.41
17.41
15.44
13.52
11.68
9.91
8.23
6.64
5.11
3.64
2.21
0.83
-0.46
-1.68
-2.83
-4.00
-5.25
-6.67
-8.32
-10.24
-12.46
-14.92
-17.50
-19.98
-22.15
-23.92
-25.36
-26.76
-28.48
-30.79
-33.71
-37.00
-40.14
-42.51
-43.51
-42.63
-39.62
-34.46
-27.44
-19.13
-10.33
-1.82
5.70
11.80
16.33
19.38
21.16
21.91
21.86
21.17
20.03
18.63
17.16
15.84
14.84
14.30
14.28
14.82
15.85
17.30
18.95
20.51
21.66
22.10
21.68
20.49
18.79
16.93
15.22
13.77
12.54
11.36
10.05
8.49
6.66
4.62
2.45
0.28
-1.74
-3.45
-4.76
-5.70
-6.43
-7.19
-8.22
-9.63
-11.40
-13.37
-15.33
-17.12
-18.72
-20.22
-21.85
-23.85
-26.39
-29.43
-32.64
-35.42
-37.05
-36.83
-34.37
-29.62
-22.99
-15.17
-7.00
0.70
7.33
12.57
16.38
18.92
20.43
21.12
21.10
20.45
19.25
17.70
16.07
14.67
13.74
13.39
13.60
14.24
15.17
16.27
17.40
18.45
19.31
19.84
19.93
19.49
18.48
16.95
15.00
12.80
10.54
8.35
6.28
4.31
2.40
0.56
-1.14
-2.62
-3.86
-4.99
-6.22
-7.77
-9.68
-11.83
-14.00
-15.97
-17.67
-19.20
-20.79
-22.67
-25.01
-27.76
-30.78
-33.75
-36.23
-37.72
-37.71
-35.81
-31.89
-26.07
-18.81
-10.78
-2.71
4.73
11.04
15.96
19.42
21.50
22.34
22.11
21.00
19.24
17.13
15.04
13.33
12.27
11.92
12.21
12.90
13.75
14.58
15.28
15.82
16.19
16.37
16.32
15.97
15.26
14.16
12.68
10.89
8.86
6.68
4.42
2.12
-0.18
-2.45
-4.64
-6.73
-8.74
-10.72
-12.73
-14.79
-16.83
-18.74
-20.40
-21.84
-23.17
-24.67
-26.57
-28.96
-31.67
-34.21
-35.95
-36.23
-34.58
-30.86
-25.28
-18.36
-10.77
-3.19
3.84
9.92
14.81
18.40
20.65
21.64
21.53
20.57
19.03
17.19
15.26
13.42
11.81
10.58
9.95
10.07
10.99
12.54
14.38
16.04
17.12
17.40
16.91
15.82
14.34
12.61
10.66
8.50
6.20
3.89
1.73
-0.20
-2.02
-3.92
-6.09
-8.58
-11.23
-13.75
-15.83
-17.37
-18.47
-19.41
-20.55
-22.18
-24.39
-27.06
-29.77
-31.93
-32.87
-32.02
-29.11
-24.23
-17.81
-10.51
-3.07
3.87
9.79
14.37
17.49
19.13
19.44
18.61
16.91
14.64
12.12
9.68
7.61
6.15
5.47
5.59
6.44
7.79
9.35
10.81
11.89
12.45
12.43
11.92
11.05
9.92
8.61
7.13
5.45
3.55
1.45
-0.85
-3.26
-5.69
-8.03
-10.19
-12.08
-13.71
-15.19
-16.67
-18.36
-20.38
-22.72
-25.08
-26.98
-27.81
-27.01
-24.31
-19.79
-13.92
-7.35
-0.84
5.04
9.89
13.57
16.09
17.50
17.89
17.30
15.80
13.60
10.99
8.43
6.31
4.97
4.48
4.72
5.42
6.31
7.18
7.97
8.66
9.21
9.53
9.50
8.96
7.83
6.12
3.93
1.43
-1.19
-3.77
-6.18
-8.40
-10.48
-12.55
-14.76
-17.19
-19.82
-22.51
-25.00
-26.97
-28.07
-27.95
-26.35
-23.14
-18.41
-12.49
-5.89
0.77
6.93
12.17
16.24
19.08
20.72
21.23
20.75
19.39
17.34
14.83
12.21
9.83
8.06
7.15
7.19
8.05
9.43
10.93
12.19
12.94
13.02
12.41
11.11
9.16
6.65
3.70
0.53
-2.61
-5.47
-7.93
-10.04
-12.06
-14.30
-17.07
-20.46
-24.29
-28.14
-31.40
-33.46
-33.81
-32.15
-28.53
-23.21
-16.73
-9.68
-2.68
3.78
9.36
13.86
17.16
19.23
20.07
19.77
18.48
16.50
14.21
12.00
10.27
9.28
9.11
9.68
10.77
12.09
13.40
14.53
15.37
15.88
15.96
15.48
14.31
12.34
9.54
6.07
2.18
-1.80
-5.55
-8.86
-11.67
-14.08
-16.34
-18.73
-21.43
-24.47
-27.67
-30.65
-32.89
-33.86
-33.11
-30.43
-25.86
-19.73
-12.55
-4.94
2.51
9.31
15.10
19.65
22.84
24.71
25.39
25.13
24.25
23.04
21.74
20.53
19.55
18.91
18.71
18.99
19.71
20.71
21.80
22.75
23.38
23.57
23.26
22.44
21.09
19.29
17.12
14.75
12.32
9.98
7.78
5.72
3.77
1.91
0.17
-1.39
-2.69
-3.77
-4.78
-5.95
-7.52
-9.60
-12.12
-14.84
-17.46
-19.72
-21.53
-23.02
-24.46
-26.19
-28.49
-31.53
-35.25
-39.31
-43.13
-45.98
-47.04
-45.68
-41.65
-35.15
-26.82
-17.56
-8.34
0.07
7.18
12.82
17.09
20.19
22.38
23.86
24.74
25.14
25.15
24.91
24.58
24.31
24.20
24.29
24.56
25.02
25.68
26.55
27.59
28.64
29.48
29.82
29.48
28.40
26.72
24.67
22.49
20.39
18.44
16.69
15.12
13.69
12.32
10.91
9.39
7.77
6.14
4.67
3.50
2.65
2.00
1.33
0.41
-0.87
-2.54
-4.52
-6.71
-9.02
-11.32
-13.51
-15.53
-17.34
-19.00
-20.56
-22.09
-23.59
-25.08
-26.59
-28.25
-30.28
-32.87
-36.08
-39.71
-43.31
-46.21
-47.69
-47.14
-44.24
-38.99
-31.78
-23.27
-14.26
-5.54
2.24
8.67
13.54
16.85
18.79
19.64
19.73
19.39
18.87
18.34
17.92
17.67
17.67
17.98
18.62
19.55
20.68
21.86
22.92
23.74
24.22
24.32
24.02
23.32
22.23
20.78
19.02
17.03
14.92
12.77
10.64
8.54
6.47
4.40
2.36
0.41
-1.38
-2.98
-4.47
-5.95
-7.54
-9.30
-11.22
-13.20
-15.14
-16.99
-18.71
-20.35
-21.99
-23.78
-25.90
-28.50
-31.57
-34.81
-37.62
-39.24
-38.98
-36.44
-31.71
-25.29
-17.93
-10.37
-3.23
3.12
8.48
12.75
15.86
17.76
18.46
18.05
16.79
15.05
13.26
11.78
10.84
10.45
10.48
10.77
11.24
11.92
12.87
14.08
15.38
16.47
17.02
16.85
15.94
14.47
12.68
10.76
8.82
6.85
4.85
2.81
0.75
-1.27
-3.20
-5.00
-6.64
-8.08
-9.31
-10.38
-11.42
-12.63
-14.21
-16.28
-18.78
-21.39
-23.53
-24.55
-23.87
-21.26
-16.86
-11.20
-4.99
1.10
6.56
11.13
14.72
17.26
18.68
18.90
17.91
15.90
13.20
10.31
7.71
5.75
4.61
4.32
4.78
5.81
7.22
8.75
10.16
11.15
11.50
11.10
9.98
8.28
6.22
3.99
1.74
-0.46
-2.57
-4.56
-6.41
-8.12
-9.76
-11.46
-13.39
-15.72
-18.49
-21.57
-24.65
-27.27
-28.93
-29.20
-27.79
-24.65
-19.95
-14.08
-7.59
-1.06
4.97
10.15
14.30
17.38
19.39
20.32
20.15
18.93
16.86
14.36
11.93
10.02
8.90
8.56
8.79
9.31
9.89
10.42
10.85
11.20
11.39
11.29
10.69
9.43
7.46
4.87
1.87
-1.26
-4.27
-7.02
-9.53
-11.86
-14.11
-16.35
-18.64
-21.06
-23.71
-26.56
-29.41
-31.75
-32.87
-32.09
-29.02
-23.73
-16.79
-9.00
-1.20
5.97
12.14
17.15
20.92
23.42
24.67
24.81
24.10
22.86
21.40
19.91
18.49
17.18
16.04
15.19
14.76
14.84
15.35
16.04
16.59
16.71
16.23
15.17
13.68
11.92
9.98
7.83
5.38
2.57
-0.55
-3.79
-6.93
-9.79
-12.34
-14.70
-17.08
-19.70
-22.69
-26.06
-29.68
-33.33
-36.58
-38.94
-39.80
-38.67
-35.26
-29.67
-22.38
-14.14
-5.76
2.09
9.02
14.85
19.53
23.06
25.41
26.61
26.76
26.11
24.98
23.72
22.57
21.68
21.04
20.63
20.44
20.54
20.91
21.51
22.15
22.55
22.44
21.67
20.27
18.45
16.53
14.72
13.11
11.58
9.95
8.03
5.79
3.32
0.81
-1.54
-3.67
-5.58
-7.42
-9.31
-11.29
-13.34
-15.35
-17.22
-18.88
-20.38
-21.82
-23.39
-25.29
-27.69
-30.66
-34.08
-37.57
-40.50
-42.12
-41.75
-38.98
-33.83
-26.73
-18.45
-9.83
-1.60
5.70
11.81
16.66
20.28
22.77
24.24
24.80
24.55
23.63
22.27
20.72
19.25
18.13
17.51
17.46
17.95
18.84
19.95
21.09
22.11
22.87
23.26
23.19
22.58
21.39
19.69
17.69
15.65
13.83
12.35
11.15
9.94
8.41
6.38
3.83
1.01
-1.76
-4.17
-6.07
-7.47
-8.53
-9.46
-10.50
-11.79
-13.41
-15.31
-17.39
-19.50
-21.56
-23.54
-25.45
-27.33
-29.28
-31.37
-33.75
-36.48
-39.45
-42.24
-44.15
-44.34
-42.17
-37.41
-30.41
-21.97
-13.03
-4.45
3.20
9.62
14.67
18.31
20.57
21.63
21.81
21.47
20.93
20.31
19.57
18.58
17.33
15.99
14.86
14.28
14.45
15.37
16.83
18.50
20.03
21.15
21.65
21.43
20.50
18.96
16.98
14.80
12.57
10.38
8.27
6.22
4.24
2.37
0.64
-0.93
-2.42
-3.90
-5.49
-7.22
-9.06
-10.94
-12.75
-14.43
-15.97
-17.42
-18.90
-20.55
-22.52
-24.94
-27.79
-30.88
-33.78
-35.84
-36.38
-34.86
-31.05
-25.19
-17.89
-10.00
-2.35
4.37
9.79
13.79
16.42
17.82
18.15
17.59
16.33
14.63
12.76
11.01
9.55
8.46
7.73
7.31
7.18
7.36
7.86
8.65
9.61
10.53
11.19
11.38
10.99
10.02
8.58
6.88
5.13
3.48
1.91
0.30
-1.56
-3.78
-6.31
-8.94
-11.36
-13.33
-14.75
-15.76
-16.68
-17.87
-19.58
-21.81
-24.26
-26.39
-27.53
-27.15
-24.94
-20.96
-15.56
-9.30
-2.78
3.44
8.95
13.48
16.91
19.20
20.34
20.38
19.37
17.49
15.03
12.38
9.94
8.03
6.81
6.29
6.40
7.00
7.99
9.20
10.45
11.52
12.21
12.36
11.89
10.79
9.08
6.84
4.18
1.27
-1.69
-4.49
-7.03
-9.32
-11.47
-13.61
-15.86
-18.29
-20.92
-23.77
-26.79
-29.81
-32.45
-34.14
-34.24
-32.25
-28.07
-22.02
-14.80
-7.22
0.03
6.51
12.04
16.57
20.14
22.74
24.38
25.10
24.98
24.18
22.86
21.15
19.20
17.21
15.41
14.06
13.33
13.24
13.62
14.16
14.53
14.48
13.91
12.89
11.49
9.80
7.85
5.61
3.06
0.21
-2.89
-6.12
-9.37
-12.50
-15.44
-18.15
-20.63
-22.94
-25.18
-27.45
-29.82
-32.25
-34.47
-35.99
-36.19
-34.52
-30.70
-24.86
-17.51
-9.44
-1.42
5.91
12.19
17.21
20.90
23.27
24.34
24.24
23.17
21.46
19.44
17.40
15.55
14.03
12.88
12.12
11.77
11.83
12.26
12.99
13.83
14.54
14.88
14.68
13.83
12.34
10.23
7.62
4.60
1.34
-1.96
-5.08
-7.84
-10.17
-12.13
-13.88
-15.67
-17.73
-20.20
-23.09
-26.24
-29.31
-31.81
-33.20
-32.94
-30.71
-26.45
-20.47
-13.35
-5.87
1.22
7.32
12.09
15.45
17.47
18.33
18.20
17.26
15.71
13.76
11.70
9.81
8.36
7.51
7.30
7.66
8.48
9.62
10.93
12.28
13.49
14.38
14.73
14.36
13.15
11.09
8.30
5.09
1.82
-1.16
-3.63
-5.58
-7.21
-8.83
-10.79
-13.29
-16.39
-19.92
-23.54
-26.80
-29.21
-30.26
-29.59
-26.99
-22.56
-16.64
-9.80
-2.66
4.20
10.30
15.31
18.98
21.18
21.88
21.18
19.31
16.62
13.50
10.36
7.55
5.36
3.94
3.28
3.27
3.67
4.24
4.77
5.18
5.41
5.44
5.20
4.57
3.46
1.85
-0.15
-2.36
-4.60
-6.79
-8.93
-11.11
-13.48
-16.13
-19.08
-22.21
-25.23
-27.68
-28.97
-28.55
-26.06
-21.47
-15.12
-7.64
0.21
7.67
14.18
19.41
23.23
25.70
26.91
26.98
26.04
24.21
21.69
18.75
15.75
13.03
10.89
9.50
8.85
8.81
9.15
9.64
10.05
10.20
9.93
9.08
7.57
5.42
2.76
-0.15
-3.05
-5.72
-8.15
-10.51
-13.13
-16.31
-20.07
-24.10
-27.72
-30.09
-30.45
-28.37
-23.86
-17.41
-9.84
-2.08
5.04
10.92
15.29
18.17
19.76
20.27
19.82
18.41
16.05
12.90
9.28
5.68
2.62
0.47
-0.60
-0.63
0.14
1.41
2.81
3.96
4.59
4.51
3.74
2.40
0.70
-1.20
-3.24
-5.42
-7.83
-10.49
-13.43
-16.61
-19.85
-22.88
-25.24
-26.39
-25.82
-23.24
-18.72
-12.65
-5.73
1.27
7.63
12.82
16.55
18.72
19.40
18.74
16.96
14.32
11.15
7.77
4.56
1.81
-0.24
-1.45
-1.80
-1.35
-0.23
1.36
3.15
4.85
6.12
6.67
6.27
4.93
2.87
0.56
-1.41
-2.54
-2.61
-1.74
-0.36
1.00
1.92
2.17
1.77
0.79
-0.71
-2.76
-5.40
-8.64
-12.38
-16.37
-20.26
-23.59
-25.83
-26.49
-25.18
-21.79
-16.59
-10.17
-3.32
3.22
8.90
13.48
16.91
19.25
20.53
20.78
19.96
18.16
15.57
12.56
9.60
7.11
5.41
4.60
4.53
4.93
5.46
5.84
5.93
5.66
5.04
4.09
2.77
1.08
-1.00
-3.42
-6.14
-9.13
-12.40
-15.96
-19.67
-23.26
-26.20
-27.87
-27.69
-25.32
-20.79
-14.52
-7.25
0.23
7.20
13.13
17.73
20.87
22.51
22.70
21.57
19.39
16.55
13.51
10.75
8.60
7.20
6.50
6.35
6.57
7.01
7.59
8.21
8.69
8.77
8.18
6.73
4.43
1.48
-1.75
-4.88
-7.66
-10.03
-12.15
-14.32
-16.84
-19.86
-23.27
-26.67
-29.44
-30.89
-30.47
-27.88
-23.16
-16.66
-8.98
-0.84
7.02
13.96
19.47
23.31
25.47
26.16
25.71
24.51
22.94
21.31
19.87
18.78
18.16
18.04
18.38
19.08
20.03
21.10
22.17
23.13
23.87
24.29
24.32
23.94
23.14
22.00
20.61
19.05
17.41
15.74
14.08
12.46
10.93
9.54
8.34
7.31
6.40
5.55
4.69
3.80
2.93
2.14
1.44
0.80
0.06
-0.93
-2.25
-3.90
-5.73
-7.56
-9.23
-10.73
-12.17
-13.72
-15.53
-17.58
-19.75
-21.86
-23.76
-25.47
-27.10
-28.85
-30.83
-33.06
-35.51
-38.08
-40.65
-42.99
-44.74
-45.32
-44.08
-40.53
-34.56
-26.57
-17.42
-8.18
0.20
7.12
12.35
15.95
18.17
19.23
19.40
18.95
18.19
17.46
17.00
16.91
17.11
17.41
17.64
17.77
17.89
18.19
18.82
19.77
20.86
21.78
22.27
22.18
21.49
20.34
18.87
17.20
15.39
13.51
11.67
10.05
8.82
8.05
7.68
7.52
7.36
7.02
6.44
5.65
4.80
4.00
3.35
2.88
2.52
2.15
1.64
0.85
-0.28
-1.74
-3.41
-5.19
-6.96
-8.66
-10.29
-11.91
-13.59
-15.38
-17.34
-19.42
-21.53
-23.57
-25.44
-27.14
-28.77
-30.50
-32.49
-34.78
-37.21
-39.40
-40.76
-40.65
-38.59
-34.38
-28.24
-20.79
-12.84
-5.22
1.47
6.92
11.07
14.03
15.91
16.83
16.88
16.20
15.01
13.58
12.21
11.13
10.49
10.34
10.67
11.44
12.59
14.05
15.71
17.44
19.04
20.29
21.01
21.04
20.33
18.98
17.19
15.21
13.34
11.75
10.53
9.56
8.65
7.53
6.03
4.12
1.93
-0.29
-2.27
-3.84
-4.98
-5.82
-6.52
-7.25
-8.07
-9.02
-10.08
-11.25
-12.54
-13.93
-15.42
-16.99
-18.70
-20.67
-23.04
-25.81
-28.76
-31.41
-33.11
-33.24
-31.43
-27.63
-22.18
-15.68
-8.85
-2.37
3.20
7.54
10.53
12.23
12.86
12.62
11.72
10.29
8.48
6.43
4.38
2.55
1.21
0.54
0.65
1.56
3.16
5.24
7.48
9.53
11.03
11.78
11.71
10.95
9.72
8.25
6.72
5.26
3.89
2.58
1.22
-0.35
-2.26
-4.53
-7.00
-9.34
-11.20
-12.43
-13.18
-13.88
-15.03
-16.92
-19.41
-21.98
-23.89
-24.49
-23.39
-20.56
-16.27
-10.95
-5.08
0.85
6.38
11.08
14.63
16.85
17.73
17.42
16.19
14.39
12.33
10.32
8.59
7.32
6.61
6.48
6.83
7.47
8.18
8.77
9.11
9.18
9.03
8.71
8.24
7.55
6.50
5.00
3.05
0.73
-1.77
-4.28
-6.67
-8.94
-11.10
-13.22
-15.35
-17.54
-19.79
-22.01
-23.97
-25.25
-25.38
-23.97
-20.83
-16.16
-10.43
-4.29
1.62
6.85
11.17
14.51
16.88
18.27
18.70
18.19
16.84
14.86
12.54
10.24
8.26
6.85
6.11
6.03
6.50
7.30
8.23
9.07
9.64
9.86
9.69
9.14
8.25
6.99
5.32
3.22
0.68
-2.17
-5.16
-8.08
-10.77
-13.23
-15.56
-17.97
-20.62
-23.59
-26.71
-29.57
-31.58
-32.10
-30.62
-26.92
-21.17
-13.93
-5.98
1.82
8.79
14.46
18.71
21.59
23.29
24.03
23.99
23.33
22.20
20.76
19.22
17.76
16.54
15.63
15.07
14.88
15.01
15.42
16.01
16.65
17.16
17.36
17.12
16.39
15.16
13.53
11.61
9.55
7.49
5.52
3.69
1.95
0.19
-1.69
-3.74
-5.95
-8.19
-10.31
-12.22
-13.85
-15.24
-16.56
-17.99
-19.78
-22.12
-25.13
-28.74
-32.62
-36.21
-38.75
-39.47
-37.80
-33.61
-27.22
-19.33
-10.87
-2.69
4.62
10.73
15.57
19.22
21.85
23.60
24.62
25.02
24.85
24.19
23.10
21.76
20.41
19.35
18.81
18.86
19.47
20.45
21.59
22.65
23.49
23.99
24.11
23.86
23.28
22.45
21.39
20.12
18.63
16.92
15.06
13.16
11.34
9.74
8.43
7.41
6.62
5.96
5.29
4.50
3.52
2.35
1.02
-0.43
-1.98
-3.64
-5.39
-7.21
-9.04
-10.82
-12.54
-14.26
-16.06
-17.98
-20.02
-22.07
-24.05
-25.91
-27.75
-29.73
-32.07
-34.89
-38.09
-41.22
-43.58
-44.34
-42.81
-38.70
-32.21
-24.05
-15.17
-6.49
1.28
7.79
12.92
16.73
19.28
20.71
21.18
20.96
20.33
19.54
18.71
17.89
17.11
16.46
16.12
16.30
17.13
18.54
20.26
21.90
23.10
23.67
23.61
23.07
22.29
21.38
20.36
19.13
17.54
15.53
13.19
10.76
8.58
6.90
5.81
5.17
4.67
3.97
2.90
1.43
-0.27
-1.97
-3.53
-4.91
-6.17
-7.38
-8.59
-9.80
-11.02
-12.30
-13.71
-15.33
-17.16
-19.19
-21.36
-23.68
-26.24
-29.14
-32.35
-35.63
-38.47
-40.18
-40.12
-37.92
-33.55
-27.44
-20.22
-12.65
-5.34
1.25
6.87
11.36
14.68
16.85
17.96
18.19
17.74
16.86
15.75
14.60
13.54
12.71
12.20
12.09
12.41
13.11
14.08
15.16
16.11
16.73
16.87
16.46
15.57
14.33
12.95
11.55
10.22
8.93
7.59
6.11
4.40
2.49
0.48
-1.48
-3.25
-4.75
-6.01
-7.15
-8.29
-9.53
-10.90
-12.39
-13.96
-15.59
-17.29
-19.10
-21.13
-23.49
-26.20
-29.12
-31.84
-33.76
-34.19
-32.62
-28.88
-23.24
-16.32
-8.92
-1.74
4.66
10.04
14.33
17.56
19.81
21.12
21.50
20.96
19.60
17.62
15.37
13.26
11.67
10.82
10.70
11.12
11.77
12.32
12.60
12.55
12.28
11.96
11.73
11.66
11.66
11.55
11.14
10.29
9.04
7.55
6.07
4.79
3.80
3.00
2.23
1.32
0.17
-1.22
-2.78
-4.38
-5.92
-7.31
-8.51
-9.58
-10.65
-11.91
-13.54
-15.61
-18.00
-20.35
-22.12
-22.74
-21.79
-19.04
-14.61
-8.82
-2.16
4.85
11.72
18.02
23.41
27.61
30.45
31.90
32.09
31.30
29.95
28.49
27.35
26.81
26.87
27.21
27.15
25.92
22.81
17.53
10.26
1.70
-7.23
-15.57
-22.61
-27.96
-31.58
-33.71
-34.75
-35.20
-35.54
-36.09
-37.05
-38.42
-40.18
-42.29
-44.78
-47.65
-50.87
-54.30
-57.79
-61.23
-64.71
-68.35
-72.21
-76.10
-79.48
-81.58
-81.67
-79.32
-74.53
-67.69
-59.30
-49.75
-39.30
-28.09
-16.38
-4.61
6.70
17.04
26.18
34.15
41.13
47.29
52.66
57.14
60.78
63.84
66.73
69.87
73.50
77.54
81.74
85.59
88.66
90.83
92.28
93.40
94.64
96.57
99.57
103.96
109.38
114.92
119.41
121.59
120.49
115.60
107.51
97.26
86.62
76.78
68.45
62.02
57.34
53.81
50.09
44.96
36.88
25.47
10.66
-7.04
-26.86
-48.62
-72.46
-98.78
-126.71
-155.26
-175.51
-179.15
-163.28
-133.33
-99.98
-72.35
-59.67
-60.14
-69.78
-83.82
-98.58
-111.60
-116.99
-111.66
-95.06
-70.16
-42.63
-20.65
-11.39
-19.18
-43.18
-77.44
-113.65
-143.94
-164.22
-174.42
-178.04
-178.76
-178.93
-179.00
-178.45
-177.54
-176.67
-175.86
-173.02
-164.62
-146.62
-117.08
-77.68
-33.52
8.60
42.99
66.73
80.08
85.24
85.38
83.75
83.41
86.92
95.52
108.69
123.86
137.32
145.80
148.09
145.70
141.91
139.66
139.78
140.57
138.83
131.87
119.04
102.19
84.66
69.70
59.10
52.92
49.98
48.80
48.35
48.30
48.74
49.73
50.89
51.41
50.35
47.10
41.76
35.16
28.58
23.22
19.74
18.11
17.78
18.18
19.04
20.37
22.22
24.14
25.02
23.40
18.13
9.16
-2.19
-13.53
-22.36
-27.15
-27.98
-26.34
-24.27
-23.30
-23.76
-24.88
-25.40
-24.48
-22.12
-19.11
-16.40
-14.52
-13.33
-12.20
-10.50
-8.00
-4.95
-1.98
0.25
1.33
1.20
0.14
-1.43
-3.13
-4.91
-7.08
-10.19
-14.61
-20.17
-25.93
-30.43
-32.20
-30.44
-25.40
-18.34
-10.98
-4.80
-0.53
1.97
3.38
4.47
5.68
6.96
7.90
8.00
7.00
5.03
2.52
-0.01
-2.23
-4.11
-5.91
-7.91
-10.19
-12.49
-14.36
-15.41
-15.62
-15.30
-15.05
-15.44
-16.77
-19.05
-22.07
-25.53
-29.15
-32.72
-35.99
-38.66
-40.32
-40.47
-38.66
-34.59
-28.17
-19.61
-9.41
1.71
12.91
23.38
32.50
39.89
45.39
48.98
50.71
50.67
49.07
46.23
42.65
38.85
35.27
32.14
29.46
27.10
24.94
22.90
20.96
19.13
17.33
15.48
13.48
11.34
9.14
7.00
5.01
3.19
1.47
-0.23
-1.99
-3.90
-6.04
-8.48
-11.21
-14.06
-16.70
-18.68
-19.56
-19.07
-17.12
-13.88
-9.62
-4.68
0.51
5.56
10.01
13.49
15.79
16.96
17.26
17.07
16.71
16.35
15.99
15.55
15.07
14.67
14.57
14.95
15.86
17.21
18.82
20.47
22.04
23.42
24.56
25.35
25.64
25.33
24.40
22.98
21.28
19.55
18.00
16.71
15.66
14.82
14.10
13.45
12.78
12.00
11.07
9.97
8.82
7.78
6.98
6.43
5.98
5.42
4.50
3.15
1.41
-0.47
-2.22
-3.57
-4.41
-4.77
-4.78
-4.68
-4.67
-4.91
-5.42
-6.20
-7.19
-8.31
-9.52
-10.76
-12.00
-13.29
-14.81
-16.79
-19.42
-22.72
-26.37
-29.80
-32.34
-33.39
-32.66
-30.16
-26.20
-21.24
-15.78
-10.26
-5.02
-0.26
3.97
7.69
10.90
13.58
15.61
16.90
17.44
17.34
16.82
16.12
15.44
14.87
14.46
14.21
14.13
14.20
14.43
14.76
15.12
15.45
15.64
15.64
15.44
15.07
14.61
14.14
13.66
13.11
12.39
11.46
10.36
9.23
8.27
7.60
7.24
7.12
7.11
7.05
6.88
6.59
6.21
5.76
5.24
4.65
4.00
3.35
2.78
2.36
2.11
1.94
1.71
1.24
0.44
-0.69
-2.02
-3.40
-4.70
-5.84
-6.82
-7.65
-8.40
-9.10
-9.78
-10.50
-11.32
-12.33
-13.55
-14.94
-16.30
-17.32
-17.68
-17.12
-15.55
-13.06
-9.90
-6.36
-2.79
0.52
3.34
5.52
7.06
8.07
8.68
9.06
9.24
9.20
8.92
8.48
8.04
7.77
7.73
7.81
7.84
7.69
7.39
7.14
7.13
7.45
7.98
8.47
8.70
8.59
8.26
7.88
7.59
7.36
7.04
6.47
5.60
4.52
3.47
2.67
2.28
2.28
2.49
2.67
2.59
2.11
1.27
0.25
-0.74
-1.52
-2.05
-2.41
-2.73
-3.10
-3.52
-3.89
-4.13
-4.21
-4.21
-4.22
-4.35
-4.64
-5.10
-5.75
-6.59
-7.65
-8.83
-9.98
-10.90
-11.38
-11.34
-10.77
-9.76
-8.36
-6.59
-4.48
-2.04
0.58
3.21
5.58
7.45
8.66
9.12
8.87
8.12
7.15
6.31
5.86
5.91
6.34
6.85
7.09
6.82
6.03
4.97
4.05
3.64
3.87
4.58
5.38
5.87
5.81
5.28
4.57
3.99
3.71
3.68
3.65
3.40
2.84
2.03
1.15
0.34
-0.33
-0.89
-1.37
-1.80
-2.15
-2.43
-2.66
-2.91
-3.22
-3.64
-4.16
-4.77
-5.46
-6.26
-7.18
-8.18
-9.21
-10.24
-11.22
-12.19
-13.15
-14.05
-14.81
-15.30
-15.44
-15.22
-14.65
-13.76
-12.53
-10.89
-8.86
-6.55
-4.23
-2.24
-0.85
-0.15
-0.04
-0.28
-0.63
-0.92
-1.11
-1.20
-1.25
-1.29
-1.32
-1.30
-1.21
-1.03
-0.78
-0.53
-0.31
-0.16
-0.04
0.06
0.20
0.36
0.53
0.66
0.68
0.52
0.16
-0.40
-1.09
-1.78
-2.34
-2.70
-2.86
-2.94
-3.09
-3.42
-3.96
-4.61
-5.29
-5.90
-6.40
-6.74
-6.89
-6.88
-6.78
-6.79
-7.10
-7.83
-8.88
-9.98
-10.78
-11.06
-10.79
-10.14
-9.31
-8.42
-7.41
-6.18
-4.68
-3.01
-1.41
-0.15
0.62
0.94
0.96
0.86
0.74
0.61
0.46
0.31
0.26
0.39
0.69
1.00
1.10
0.82
0.20
-0.55
-1.07
-1.10
-0.59
0.26
1.17
1.92
2.51
3.08
3.77
4.57
5.27
5.59
5.34
4.55
3.46
2.38
1.51
0.90
0.42
-0.05
-0.63
-1.29
-1.96
-2.57
-3.10
-3.53
-3.85
-4.06
-4.17
-4.28
-4.52
-5.05
-5.90
-7.00
-8.10
-8.96
-9.35
-9.21
-8.64
-7.82
-6.91
-6.01
-5.08
-4.03
-2.80
-1.44
-0.09
1.03
1.78
2.16
2.36
2.63
3.18
4.01
4.91
5.55
5.63
5.07
4.03
2.80
1.75
1.07
0.76
0.68
0.65
0.55
0.39
0.26
0.26
0.40
0.63
0.85
0.99
1.06
1.04
0.95
0.71
0.26
-0.38
-1.15
-1.88
-2.44
-2.77
-2.93
-3.04
-3.25
-3.67
-4.29
-5.08
-5.96
-6.83
-7.61
-8.19
-8.47
-8.39
-7.93
-7.10
-5.95
-4.54
-2.94
-1.24
0.44
2.01
3.39
4.52
5.35
5.85
5.96
5.68
5.08
4.35
3.67
3.17
2.90
2.80
2.78
2.78
2.83
2.99
3.29
3.70
4.13
4.45
4.57
4.51
4.37
4.28
4.31
4.44
4.54
4.38
3.77
2.63
1.11
-0.49
-1.80
-2.59
-2.84
-2.74
-2.58
-2.60
-2.86
-3.30
-3.81
-4.39
-5.11
-6.07
-7.25
-8.48
-9.53
-10.18
-10.40
-10.31
-10.06
-9.70
-9.11
-8.09
-6.48
-4.35
-1.95
0.39
2.30
3.60
4.20
4.13
3.51
2.53
1.43
0.45
-0.28
-0.75
-1.09
-1.40
-1.69
-1.84
-1.70
-1.20
-0.44
0.31
0.80
0.85
0.48
-0.15
-0.85
-1.49
-2.07
-2.65
-3.31
-4.05
-4.81
-5.50
-6.05
-6.46
-6.80
-7.15
-7.56
-8.05
-8.61
-9.29
-10.15
-11.32
-12.86
-14.67
-16.53
-18.07
-18.95
-18.97
-18.12
-16.56
-14.56
-12.40
-10.26
-8.26
-6.47
-4.92
-3.62
-2.52
-1.56
-0.66
0.21
1.00
1.57
1.80
1.63
1.18
0.68
0.36
0.44
1.01
2.05
3.49
5.17
6.87
8.31
9.23
9.44
8.94
7.88
6.53
5.17
3.98
2.99
2.11
1.19
0.13
-1.07
-2.30
-3.38
-4.20
-4.70
-4.98
-5.22
-5.62
-6.28
-7.18
-8.23
-9.34
-10.43
-11.43
-12.24
-12.68
-12.51
-11.58
-9.91
-7.66
-5.16
-2.68
-0.38
1.71
3.60
5.26
6.54
7.25
7.30
6.72
5.73
4.58
3.48
2.53
1.76
1.18
0.85
0.89
1.39
2.34
3.52
4.64
5.37
5.58
5.28
4.65
3.84
2.96
2.03
1.11
0.30
-0.20
-0.23
0.22
0.95
1.60
1.83
1.48
0.62
-0.55
-1.81
-3.07
-4.29
-5.37
-6.10
-6.18
-5.40
-3.78
-1.57
0.84
3.11
5.08
6.78
8.32
9.69
10.77
11.35
11.32
10.78
10.02
9.38
9.07
9.12
9.35
9.60
9.78
9.87
9.93
9.96
9.92
9.73
9.32
8.71
7.93
6.99
5.89
4.62
3.25
1.89
0.69
-0.25
-0.95
-1.53
-2.15
-2.94
-3.95
-5.15
-6.48
-7.81
-8.99
-9.82
-10.07
-9.53
-8.12
-5.88
-3.03
0.14
3.32
6.28
8.86
10.98
12.57
13.61
14.12
14.19
14.01
13.77
13.59
13.43
13.14
12.54
11.59
10.44
9.33
8.53
8.20
8.30
8.70
9.22
9.72
10.06
10.11
9.78
9.02
7.89
6.51
5.05
3.62
2.27
0.99
-0.21
-1.32
-2.34
-3.36
-4.51
-5.92
-7.59
-9.32
-10.80
-11.67
-11.70
-10.85
-9.24
-7.04
-4.46
-1.69
1.08
3.66
5.89
7.71
9.13
10.19
10.96
11.44
11.59
11.40
10.93
10.33
9.79
9.44
9.27
9.16
8.94
8.51
7.92
7.32
6.87
6.60
6.41
6.12
5.64
4.97
4.26
3.63
3.12
2.65
2.07
1.37
0.61
-0.01
-0.39
-0.54
-0.62
-0.87
-1.48
-2.45
-3.63
-4.83
-5.83
-6.57
-7.02
-7.29
-7.52
-7.86
-8.51
-9.57
-11.07
-12.87
-14.65
-16.03
-16.67
-16.35
-15.06
-12.98
-10.32
-7.32
-4.15
-0.96
2.11
4.93
7.43
9.61
11.50
13.16
14.56
15.61
16.17
16.18
15.76
15.12
14.55
14.26
14.32
14.62
15.00
15.27
15.33
15.06
14.32
12.97
10.94
8.37
5.69
3.47
2.24
2.23
3.21
4.63
5.81
6.23
5.73
4.45
2.74
0.96
-0.64
-1.98
-3.09
-4.08
-5.07
-6.13
-7.22
-8.21
-8.93
-9.27
-9.29
-9.17
-9.22
-9.64
-10.46
-11.54
-12.58
-13.33
-13.67
-13.67
-13.52
-13.41
-13.42
-13.53
-13.72
-13.97
-14.30
-14.73
-15.14
-15.34
-15.08
-14.23
-12.85
-11.22
-9.66
-8.36
-7.32
-6.36
-5.32
-4.19
-3.11
-2.40
-2.33
-3.08
-4.60
-6.66
-8.90
-10.89
-12.27
-12.77
-12.31
-10.98
-8.98
-6.53
-3.87
-1.13
1.58
4.14
6.45
8.47
10.19
11.72
13.15
14.58
15.96
17.15
17.97
18.27
18.11
17.66
17.16
16.74
16.28
15.40
13.66
10.72
6.57
1.51
-3.93
-9.23
-14.08
-18.38
-22.26
-25.83
-29.04
-31.62
-33.13
-33.19
-31.69
-28.93
-25.50
-22.15
-19.37
-17.28
-15.61
-13.98
-12.12
-10.03
-7.89
-5.85
-3.88
-1.71
0.91
4.05
7.41
10.46
12.62
13.55
13.31
12.32
11.22
10.57
10.64
11.32
12.15
12.54
12.10
10.76
8.90
7.10
5.86
5.44
5.73
6.38
7.06
7.58
7.92
8.13
8.17
7.93
7.24
6.02
4.36
2.49
0.66
-0.92
-2.14
-2.98
-3.51
-3.79
-3.98
-4.22
-4.71
-5.53
-6.66
-7.92
-9.10
-10.04
-10.75
-11.40
-12.19
-13.21
-14.32
-15.31
-15.90
-15.97
-15.59
-14.89
-13.86
-12.23
-9.65
-6.09
-2.33
-0.12
-1.71
-9.02
-22.72
-41.87
-64.29
-87.33
-108.70
-126.91
-140.97
-150.00
-153.07
-149.56
-139.98
-126.47
-112.42
-100.97
-93.19
-87.04
-77.89
-60.67
-32.44
5.87
49.60
92.28
128.34
155.06
172.81
183.97
191.19
196.38
200.71
205.12
210.72
218.53
228.68
239.94
249.97
256.38
257.99
255.45
250.76
245.98
241.80
236.85
228.24
212.83
188.62
155.33
114.26
67.43
16.91
-35.38
-87.34
-136.10
-177.96
-208.96
-226.07
-228.18
-216.90
-196.09
-170.87
-146.26
-126.03
-112.18
-105.21
-104.82
-110.50
-121.65
-136.78
-152.81
-165.08
-168.55
-159.79
-138.83
-109.38
-77.61
-49.63
-29.37
-17.42
-11.92
-10.05
-9.63
-9.80
-10.61
-12.31
-14.70
-17.12
-18.81
-19.39
-18.92
-18.00
-17.54
-18.27
-20.46
-23.69
-26.92
-28.96
-29.04
-27.04
-23.59
-19.53
-15.37
-11.09
-6.33
-0.80
5.28
11.22
16.10
19.26
20.54
20.20
18.66
16.22
13.09
9.50
5.84
2.71
0.65
-0.03
0.61
2.24
4.46
6.88
9.18
11.08
12.35
12.82
12.46
11.44
10.13
8.97
8.31
8.33
8.93
9.80
10.51
10.69
10.11
8.71
6.62
4.09
1.47
-0.85
-2.48
-3.10
-2.57
-0.95
1.50
4.43
7.48
10.33
12.73
14.44
15.24
14.99
13.61
11.26
8.28
5.17
2.43
0.45
-0.61
-0.82
-0.39
0.44
1.46
2.57
3.70
4.79
5.68
6.25
6.42
6.24
5.88
5.57
5.42
5.39
5.25
4.67
3.29
0.84
-2.80
-7.55
-13.03
-18.61
-23.45
-26.78
-28.12
-27.44
-25.15
-21.90
-18.25
-14.50
-10.69
-6.78
-2.80
1.01
4.30
6.75
8.23
8.83
8.87
8.67
8.50
8.44
8.41
8.25
7.84
7.16
6.35
5.64
5.25
5.29
5.73
6.37
6.96
7.27
7.16
6.65
5.86
4.94
3.94
2.83
1.47
-0.29
-2.51
-5.08
-7.75
-10.17
-11.98
-12.93
-12.85
-11.74
-9.67
-6.77
-3.25
0.63
4.56
8.22
11.30
13.58
15.02
15.70
15.82
15.60
15.10
14.31
13.12
11.51
9.58
7.58
5.80
4.47
3.68
3.35
3.34
3.41
3.36
2.98
2.18
0.95
-0.57
-2.16
-3.62
-4.84
-5.95
-7.18
-8.81
-11.01
-13.68
-16.51
-19.07
-20.91
-21.67
-21.18
-19.37
-16.34
-12.29
-7.55
-2.53
2.32
6.64
10.19
12.86
14.67
15.66
15.90
15.46
14.48
13.17
11.80
10.61
9.75
9.27
9.09
9.07
9.02
8.84
8.47
7.95
7.36
6.80
6.27
5.71
5.00
4.05
2.82
1.36
-0.23
-1.87
-3.51
-5.16
-6.81
-8.47
-10.18
-12.02
-14.13
-16.57
-19.27
-21.93
-24.06
-25.15
-24.83
-22.96
-19.65
-15.21
-10.03
-4.54
0.87
5.86
10.22
13.88
16.85
19.18
20.86
21.83
22.02
21.51
20.55
19.51
18.73
18.36
18.33
18.40
18.37
18.14
17.82
17.56
17.47
17.51
17.53
17.30
16.68
15.69
14.48
13.24
12.12
11.13
10.16
9.08
7.83
6.49
5.23
4.21
3.54
3.19
3.05
3.01
2.95
2.84
2.65
2.37
1.96
1.37
0.57
-0.46
-1.65
-2.91
-4.08
-5.06
-5.77
-6.29
-6.75
-7.35
-8.22
-9.36
-10.68
-11.96
-13.04
-13.82
-14.42
-15.10
-16.20
-18.01
-20.58
-23.64
-26.70
-29.12
-30.37
-30.14
-28.42
-25.33
-21.09
-15.89
-9.97
-3.61
2.77
8.77
13.99
18.22
21.35
23.34
24.25
24.19
23.39
22.23
21.12
20.44
20.34
20.67
21.09
21.20
20.76
19.76
18.39
16.90
15.49
14.23
13.09
12.06
11.15
10.40
9.83
9.37
8.85
8.12
7.03
5.57
3.84
2.03
0.33
-1.06
-2.04
-2.55
-2.68
-2.55
-2.37
-2.31
-2.49
-2.94
-3.64
-4.49
-5.46
-6.47
-7.51
-8.57
-9.64
-10.74
-11.86
-13.01
-14.13
-15.18
-16.11
-16.94
-17.81
-18.86
-20.24
-21.94
-23.79
-25.43
-26.44
-26.47
-25.27
-22.79
-19.10
-14.42
-9.04
-3.39
2.05
6.84
10.69
13.51
15.41
16.58
17.21
17.40
17.24
16.78
16.12
15.42
14.74
14.10
13.42
12.64
11.77
10.93
10.27
9.90
9.76
9.68
9.45
8.94
8.16
7.21
6.24
5.35
4.52
3.67
2.74
1.71
0.65
-0.37
-1.30
-2.14
-2.92
-3.67
-4.38
-5.02
-5.62
-6.26
-7.04
-8.03
-9.18
-10.37
-11.47
-12.43
-13.41
-14.66
-16.42
-18.75
-21.40
-23.95
-25.90
-26.93
-26.96
-26.10
-24.54
-22.35
-19.47
-15.79
-11.31
-6.23
-0.94
4.05
8.31
11.58
13.80
15.08
15.61
15.60
15.23
14.68
14.06
13.41
12.74
12.01
11.19
10.34
9.54
8.91
8.52
8.31
8.15
7.88
7.40
6.74
6.01
5.37
4.89
4.55
4.18
3.60
2.68
1.38
-0.18
-1.86
-3.48
-4.94
-6.13
-7.03
-7.62
-8.00
-8.35
-8.96
-10.12
-11.99
-14.51
-17.37
-20.10
-22.26
-23.53
-23.79
-23.05
-21.44
-19.06
-16.04
-12.50
-8.63
-4.65
-0.79
2.70
5.68
8.03
9.70
10.71
11.12
11.05
10.64
10.05
9.44
8.92
8.52
8.23
7.93
7.50
6.84
5.91
4.84
3.89
3.34
3.44
4.26
5.60
7.09
8.23
8.60
8.02
6.59
4.66
2.67
0.99
-0.17
-0.83
-1.19
-1.51
-2.08
-3.13
-4.79
-7.03
-9.69
-12.42
-14.83
-16.51
-17.19
-16.74
-15.21
-12.74
-9.51
-5.67
-1.31
3.55
8.95
14.89
21.18
27.45
33.18
37.79
40.81
41.98
41.24
38.79
34.98
30.24
25.05
19.83
14.89
10.37
6.27
2.57
-0.75
-3.54
-5.68
-7.05
-7.76
-8.07
-8.31
-8.78
-9.64
-10.98
-12.82
-15.14
-17.80
-20.56
-23.07
-25.05
-26.41
-27.37
-28.31
-29.55
-31.14
-32.75
-33.84
-33.97
-32.94
-30.89
-28.07
-24.69
-20.83
-16.50
-11.84
-7.18
-2.99
0.27
2.34
3.25
3.20
2.44
1.14
-0.61
-2.83
-5.47
-8.38
-11.23
-13.50
-14.56
-13.78
-10.71
-5.19
2.48
11.62
21.26
30.38
38.13
43.87
47.18
47.72
45.15
39.29
30.32
19.04
6.89
-4.32
-12.91
-17.82
-18.91
-16.84
-12.74
-7.79
-2.94
1.08
3.79
4.87
4.22
2.08
-0.94
-4.01
-6.22
-6.96
-5.97
-3.44
0.20
4.39
8.73
13.02
17.21
21.30
25.18
28.52
30.85
31.73
30.93
28.53
24.94
20.69
16.33
12.25
8.69
5.77
3.53
2.04
1.34
1.45
2.34
3.93
6.09
8.64
11.34
13.87
15.78
16.47
15.33
11.84
5.84
-2.26
-11.54
-20.65
-28.30
-33.53
-36.06
-36.18
-34.51
-31.66
-28.05
-23.82
-19.01
-13.73
-8.24
-2.93
1.81
5.74
8.77
11.00
12.61
13.75
14.53
15.01
15.21
15.15
14.89
14.50
14.10
13.78
13.62
13.59
13.63
13.63
13.47
13.12
12.59
11.96
11.32
10.66
9.94
9.02
7.80
6.24
4.44
2.51
0.63
-1.09
-2.60
-3.85
-4.85
-5.62
-6.22
-6.74
-7.30
-7.93
-8.66
-9.39
-10.03
-10.51
-10.84
-11.10
-11.36
-11.62
-11.84
-11.94
-11.90
-11.80
-11.80
-12.02
-12.49
-13.08
-13.63
-14.06
-14.48
-15.17
-16.41
-18.34
-20.74
-23.14
-24.97
-25.81
-25.50
-24.15
-21.93
-18.94
-15.19
-10.66
-5.46
0.07
5.43
10.07
13.62
15.96
17.17
17.50
17.25
16.70
16.11
15.66
15.42
15.31
15.13
14.69
13.93
12.99
12.11
11.56
11.47
11.80
12.34
12.79
12.94
12.67
12.03
11.15
10.21
9.34
8.59
7.89
7.10
6.10
4.84
3.43
2.06
0.97
0.27
-0.12
-0.45
-1.00
-1.98
-3.39
-5.02
-6.61
-7.94
-9.00
-9.93
-10.94
-12.13
-13.43
-14.64
-15.55
-16.12
-16.54
-17.11
-18.12
-19.66
-21.57
-23.48
-24.92
-25.50
-25.03
-23.47
-20.92
-17.55
-13.53
-9.05
-4.30
0.47
4.98
8.97
12.20
14.50
15.86
16.39
16.35
16.03
15.69
15.44
15.23
14.92
14.36
13.57
12.68
11.94
11.55
11.55
11.75
11.87
11.66
11.06
10.20
9.35
8.75
8.45
8.27
7.88
6.98
5.50
3.63
1.72
0.08
-1.14
-2.01
-2.74
-3.51
-4.40
-5.36
-6.30
-7.18
-8.07
-9.02
-10.08
-11.24
-12.45
-13.73
-15.15
-16.79
-18.65
-20.58
-22.36
-23.70
-24.37
-24.24
-23.25
-21.43
-18.78
-15.36
-11.31
-6.83
-2.18
2.38
6.61
10.31
13.28
15.33
16.38
16.47
15.81
14.70
13.40
12.06
10.70
9.29
7.87
6.64
5.87
5.76
6.33
7.35
8.41
9.14
9.34
9.02
8.35
7.54
6.74
5.97
5.14
4.11
2.74
0.99
-1.09
-3.36
-5.62
-7.64
-9.23
-10.28
-10.81
-10.93
-10.88
-10.93
-11.30
-12.12
-13.38
-14.95
-16.66
-18.34
-19.81
-20.87
-21.32
-20.94
-19.59
-17.27
-14.14
-10.43
-6.39
-2.23
1.89
5.79
9.23
11.99
13.89
14.88
15.06
14.64
13.84
12.86
11.82
10.80
9.83
8.94
8.15
7.45
6.87
6.45
6.26
6.38
6.78
7.37
7.99
8.42
8.51
8.17
7.35
6.08
4.43
2.51
0.53
-1.27
-2.74
-3.81
-4.58
-5.24
-6.04
-7.10
-8.47
-10.13
-11.95
-13.79
-15.45
-16.66
-17.16
-16.78
-15.50
-13.41
-10.72
-7.55
-3.97
-0.01
4.20
8.38
12.05
14.77
16.25
16.51
15.80
14.54
13.06
11.58
10.17
8.82
7.54
6.40
5.47
4.81
4.39
4.13
3.94
3.70
3.35
2.85
2.16
1.24
0.05
-1.43
-3.17
-4.99
-6.60
-7.65
-7.87
-7.20
-5.91
-4.50
-3.51
-3.36
-4.21
-5.88
-8.05
-10.35
-12.43
-14.04
-14.96
-14.99
-13.97
-11.81
-8.57
-4.48
0.10
4.71
8.91
12.36
14.85
16.38
17.10
17.26
17.07
16.69
16.18
15.53
14.76
13.88
12.93
11.94
10.91
9.85
8.80
7.82
6.98
6.31
5.74
5.11
4.28
3.22
1.99
0.75
-0.41
-1.48
-2.59
-3.94
-5.61
-7.57
-9.59
-11.39
-12.76
-13.62
-14.14
-14.58
-15.27
-16.38
-17.95
-19.80
-21.59
-23.02
-23.79
-23.73
-22.75
-20.80
-17.88
-14.05
-9.48
-4.47
0.60
5.38
9.61
13.15
15.92
17.86
18.90
19.08
18.53
17.56
16.53
15.67
15.07
14.63
14.23
13.82
13.48
13.33
13.42
13.66
13.86
13.83
13.51
12.98
12.44
12.06
11.85
11.72
11.47
10.91
9.96
8.69
7.27
5.94
4.85
4.01
3.32
2.64
1.86
0.99
0.14
-0.62
-1.25
-1.80
-2.38
-3.05
-3.83
-4.66
-5.52
-6.44
-7.52
-8.82
-10.31
-11.84
-13.19
-14.18
-14.85
-15.41
-16.24
-17.68
-19.86
-22.62
-25.49
-27.84
-29.13
-29.08
-27.74
-25.38
-22.27
-18.55
-14.22
-9.23
-3.69
2.11
7.66
12.54
16.46
19.38
21.40
22.61
23.05
22.72
21.69
20.18
18.55
17.10
16.01
15.23
14.58
13.89
13.13
12.46
12.09
12.14
12.59
13.21
13.75
13.97
13.77
13.17
12.25
11.09
9.74
8.23
6.61
4.98
3.46
2.14
1.07
0.24
-0.41
-0.97
-1.52
-2.14
-2.87
-3.70
-4.58
-5.47
-6.38
-7.34
-8.38
-9.43
-10.41
-11.19
-11.75
-12.18
-12.69
-13.46
-14.58
-16.00
-17.59
-19.18
-20.58
-21.64
-22.20
-22.13
-21.34
-19.83
-17.65
-14.91
-11.68
-8.00
-3.91
0.47
4.86
8.90
12.16
14.35
15.33
15.19
14.24
12.85
11.39
10.12
9.12
8.33
7.68
7.15
6.78
6.62
6.69
6.91
7.14
7.29
7.38
7.50
7.76
8.14
8.49
8.59
8.29
7.57
6.50
5.22
3.76
2.16
0.46
-1.15
-2.47
-3.40
-4.11
-5.06
-6.67
-9.10
-11.98
-14.62
-16.38
-17.10
-17.18
-17.37
-18.30
-20.06
-22.23
-24.09
-25.06
-24.94
-23.87
-22.15
-19.97
-17.33
-14.17
-10.50
-6.47
-2.25
2.04
6.45
11.07
15.95
20.93
25.59
29.42
31.93
32.90
32.35
30.52
27.78
24.47
20.93
17.44
14.26
11.58
9.51
8.00
6.89
5.93
4.87
3.56
1.96
0.16
-1.65
-3.28
-4.58
-5.52
-6.26
-7.02
-8.01
-9.32
-10.85
-12.41
-13.80
-14.95
-15.94
-16.89
-17.81
-18.57
-18.89
-18.51
-17.32
-15.45
-13.14
-10.59
-7.90
-4.96
-1.65
2.07
6.07
10.02
13.50
16.11
17.60
17.94
17.25
15.78
13.80
11.59
9.41
7.49
6.06
5.26
5.16
5.66
6.53
7.45
8.14
8.38
8.17
7.68
7.13
6.74
6.59
6.63
6.68
6.52
5.99
5.03
3.64
1.88
-0.22
-2.66
-5.46
-8.58
-11.90
-15.23
-18.33
-20.96
-22.93
-24.07
-24.29
-23.56
-21.89
-19.33
-15.96
-11.86
-7.19
-2.21
2.74
7.27
11.03
13.76
15.39
16.02
15.91
15.34
14.54
13.62
12.60
11.44
10.13
8.72
7.35
6.19
5.34
4.79
4.35
3.85
3.09
2.06
0.83
-0.44
-1.66
-2.80
-3.91
-5.05
-6.26
-7.53
-8.84
-10.19
-11.57
-12.96
-14.31
-15.53
-16.52
-17.23
-17.58
-17.49
-16.82
-15.43
-13.21
-10.15
-6.44
-2.34
1.82
5.79
9.35
12.40
14.80
16.48
17.37
17.46
16.79
15.42
13.47
11.09
8.52
6.07
4.07
2.76
2.20
2.26
2.69
3.18
3.51
3.59
3.42
3.08
2.62
2.05
1.34
0.40
-0.81
-2.38
-4.33
-6.58
-9.00
-11.41
-13.61
-15.46
-16.88
-17.79
-18.07
-17.52
-15.95
-13.23
-9.46
-4.94
-0.11
4.60
8.82
12.33
14.95
16.57
17.15
16.79
15.79
14.49
13.21
12.01
10.80
9.41
7.79
6.07
4.58
3.61
3.31
3.57
4.12
4.64
4.87
4.68
4.06
3.02
1.63
-0.03
-1.83
-3.61
-5.22
-6.59
-7.82
-9.09
-10.59
-12.42
-14.51
-16.66
-18.64
-20.24
-21.30
-21.60
-20.85
-18.79
-15.31
-10.60
-5.19
0.23
5.10
9.15
12.36
14.86
16.70
17.84
18.22
17.89
17.10
16.16
15.31
14.57
13.78
12.78
11.57
10.34
9.42
9.05
9.23
9.77
10.31
10.58
10.41
9.85
9.03
8.04
6.92
5.57
3.89
1.86
-0.36
-2.53
-4.41
-5.89
-7.06
-8.13
-9.34
-10.72
-12.15
-13.40
-14.33
-15.01
-15.71
-16.75
-18.34
-20.44
-22.78
-24.94
-26.56
-27.38
-27.29
-26.24
-24.23
-21.22
-17.23
-12.40
-6.97
-1.31
4.21
9.25
13.57
16.95
19.27
20.45
20.58
19.91
18.86
17.81
17.02
16.53
16.13
15.59
14.80
13.81
12.80
12.00
11.53
11.38
11.44
11.53
11.47
11.13
10.43
9.37
8.00
6.42
4.72
3.00
1.30
-0.33
-1.81
-3.12
-4.27
-5.37
-6.59
-8.05
-9.74
-11.50
-13.07
-14.25
-15.03
-15.61
-16.28
-17.31
-18.74
-20.43
-22.11
-23.50
-24.44
-24.83
-24.62
-23.69
-21.89
-19.07
-15.21
-10.49
-5.26
0.04
4.95
9.16
12.47
14.85
16.34
17.07
17.21
16.92
16.38
15.71
14.98
14.20
13.32
12.33
11.26
10.23
9.45
9.08
9.24
9.83
10.62
11.30
11.59
11.34
10.56
9.35
7.91
6.38
4.87
3.48
2.24
1.18
0.25
-0.67
-1.74
-3.08
-4.73
-6.61
-8.55
-10.43
-12.16
-13.78
-15.34
-16.82
-18.18
-19.27
-20.02
-20.35
-20.22
-19.55
-18.22
-16.09
-13.06
-9.16
-4.56
0.50
5.66
10.54
14.71
17.80
19.55
19.93
19.21
17.85
16.34
14.99
13.87
12.80
11.54
9.99
8.26
6.63
5.42
4.80
4.76
5.08
5.48
5.71
5.60
5.11
4.27
3.12
1.74
0.23
-1.34
-2.89
-4.41
-5.90
-7.39
-8.84
-10.24
-11.56
-12.89
-14.35
-16.08
-18.08
-20.17
-22.06
-23.43
-24.07
-23.95
-23.13
-21.71
-19.68
-16.97
-13.51
-9.29
-4.48
0.64
5.73
10.45
14.50
17.64
19.68
20.58
20.43
19.47
18.01
16.36
14.73
13.17
11.66
10.13
8.54
6.98
5.59
4.53
3.93
3.79
4.04
4.45
4.77
4.78
4.36
3.48
2.25
0.75
-0.89
-2.60
-4.27
-5.83
-7.23
-8.49
-9.76
-11.19
-12.92
-14.95
-17.10
-19.08
-20.63
-21.54
-21.75
-21.18
-19.77
-17.44
-14.13
-9.95
-5.16
-0.15
4.60
8.70
11.85
13.93
14.96
15.15
14.76
14.07
13.25
12.28
11.01
9.25
6.96
4.39
1.99
0.33
-0.14
0.78
3.00
6.19
9.84
13.37
16.12
17.59
17.55
16.17
13.99
11.72
9.89
8.59
7.47
5.95
3.55
0.18
-3.86
-8.07
-11.96
-15.30
-18.01
-20.02
-21.18
-21.24
-19.95
-17.25
-13.33
-8.62
-3.61
1.27
5.72
9.52
12.49
14.48
15.40
15.31
14.44
13.07
11.47
9.77
7.99
6.11
4.21
2.50
1.26
0.67
0.77
1.35
2.12
2.80
3.22
3.32
3.16
2.79
2.26
1.59
0.79
-0.12
-1.12
-2.18
-3.34
-4.67
-6.30
-8.25
-10.49
-12.82
-14.95
-16.57
-17.38
-17.21
-15.96
-13.63
-10.27
-6.05
-1.19
4.00
9.17
13.95
18.07
21.37
23.73
25.12
25.51
24.93
23.47
21.30
18.66
15.81
13.00
10.42
8.32
6.87
6.24
6.47
7.37
8.56
9.53
9.82
9.18
7.61
5.34
2.69
-0.05
-2.71
-5.24
-7.70
-10.20
-12.82
-15.58
-18.37
-21.02
-23.29
-25.02
-26.14
-26.66
-26.64
-26.04
-24.73
-22.54
-19.33
-15.10
-10.07
-4.55
1.03
6.26
10.73
14.11
16.18
16.83
16.22
14.66
12.57
10.40
8.40
6.70
5.23
3.90
2.69
1.61
0.73
0.11
-0.27
-0.46
-0.49
-0.39
-0.19
0.04
0.11
-0.19
-1.02
-2.43
-4.30
-6.41
-8.56
-10.63
-12.54
-14.34
-16.08
-17.84
-19.70
-21.73
-23.86
-25.89
-27.43
-28.06
-27.48
-25.59
-22.52
-18.52
-13.83
-8.62
-3.06
2.63
8.09
12.91
16.73
19.34
20.73
21.05
20.53
19.37
17.79
15.98
14.16
12.49
11.08
9.94
9.00
8.18
7.42
6.75
6.20
5.80
5.50
5.27
5.02
4.70
4.26
3.62
2.71
1.46
-0.14
-2.01
-3.96
-5.76
-7.22
-8.29
-9.06
-9.75
-10.62
-11.89
-13.63
-15.81
-18.20
-20.52
-22.44
-23.73
-24.24
-23.89
-22.69
-20.66
-17.84
-14.29
-10.09
-5.40
-0.42
4.64
9.51
13.92
17.60
20.30
21.86
22.30
21.77
20.59
19.08
17.51
15.99
14.54
13.09
11.63
10.20
8.95
8.03
7.53
7.44
7.64
7.88
7.92
7.56
6.74
5.50
4.01
2.47
1.01
-0.30
-1.49
-2.69
-3.96
-5.36
-6.81
-8.22
-9.51
-10.69
-11.86
-13.15
-14.67
-16.40
-18.15
-19.67
-20.73
-21.22
-21.12
-20.46
-19.16
-17.03
-13.84
-9.47
-4.09
1.83
7.59
12.52
16.18
18.40
19.33
19.25
18.49
17.28
15.81
14.20
12.53
10.92
9.47
8.28
7.38
6.75
6.34
6.06
5.85
5.66
5.42
5.10
4.63
3.97
3.14
2.15
1.05
-0.12
-1.38
-2.79
-4.40
-6.20
-8.08
-9.85
-11.36
-12.58
-13.61
-14.67
-15.92
-17.39
-18.93
-20.28
-21.20
-21.57
-21.38
-20.64
-19.25
-17.03
-13.76
-9.39
-4.16
1.41
6.68
11.08
14.31
16.33
17.31
17.48
17.05
16.15
14.91
13.45
11.88
10.36
8.98
7.82
6.91
6.25
5.85
5.70
5.78
6.05
6.43
6.76
6.85
6.48
5.57
4.16
2.44
0.63
-1.11
-2.76
-4.44
-6.24
-8.10
-9.84
-11.26
-12.28
-13.06
-13.91
-15.13
-16.82
-18.83
-20.90
-22.72
-24.10
-24.89
-24.95
-24.04
-21.91
-18.41
-13.58
-7.77
-1.54
4.45
9.59
13.51
16.08
17.44
17.85
17.61
16.93
15.93
14.61
12.97
10.99
8.73
6.33
3.96
1.89
0.35
-0.44
-0.43
0.18
1.03
1.63
1.62
0.87
-0.46
-2.06
-3.63
-5.03
-6.35
-7.77
-9.45
-11.39
-13.45
-15.37
-16.95
-18.14
-19.03
-19.84
-20.74
-21.82
-23.06
-24.29
-25.30
-25.84
-25.67
-24.63
-22.61
-19.62
-15.75
-11.17
-6.09
-0.73
4.65
9.83
14.55
18.61
21.88
24.35
26.13
27.37
28.17
28.59
28.58
28.06
26.99
25.39
23.42
21.27
19.18
17.32
15.77
14.47
13.33
12.22
11.06
9.79
8.41
6.91
5.31
3.65
1.93
0.12
-1.98
-4.63
-8.06
-12.37
-17.33
-22.43
-27.01
-30.46
-32.38
-32.65
-31.38
-28.82
-25.30
-21.19
-16.85
-12.57
-8.43
-4.20
0.58
6.37
13.27
20.82
28.02
33.63
36.67
36.78
34.31
30.17
25.43
20.92
17.09
13.97
11.42
9.30
7.61
6.44
5.82
5.62
5.55
5.22
4.39
3.06
1.47
-0.04
-1.29
-2.37
-3.61
-5.41
-7.98
-11.25
-14.92
-18.52
-21.63
-23.94
-25.24
-25.40
-24.35
-22.09
-18.71
-14.39
-9.36
-3.94
1.48
6.48
10.68
13.75
15.57
16.23
15.95
15.01
13.70
12.19
10.64
9.17
7.90
6.91
6.25
5.94
5.92
6.15
6.52
6.87
7.03
6.81
6.12
5.06
3.80
2.50
1.21
-0.19
-1.91
-4.11
-6.76
-9.63
-12.41
-14.76
-16.45
-17.35
-17.41
-16.61
-14.93
-12.39
-9.03
-5.01
-0.56
3.95
8.11
11.52
13.98
15.47
16.14
16.20
15.78
14.87
13.39
11.34
8.86
6.31
4.10
2.56
1.86
1.93
2.55
3.41
4.18
4.62
4.58
4.08
3.28
2.35
1.45
0.57
-0.43
-1.73
-3.49
-5.70
-8.20
-10.74
-13.00
-14.72
-15.68
-15.68
-14.58
-12.29
-8.85
-4.47
0.46
5.43
9.93
13.57
16.16
17.67
18.23
17.99
17.13
15.75
13.95
11.81
9.49
7.21
5.19
3.70
2.90
2.87
3.49
4.48
5.49
6.11
6.10
5.40
4.17
2.65
1.09
-0.34
-1.65
-2.91
-4.30
-5.97
-7.96
-10.25
-12.69
-15.10
-17.30
-19.10
-20.32
-20.72
-20.01
-17.93
-14.34
-9.40
-3.55
2.58
8.35
13.29
17.22
20.15
22.17
23.33
23.63
23.08
21.78
19.98
17.94
15.92
14.08
12.54
11.36
10.64
10.49
10.91
11.79
12.84
13.71
14.11
13.88
13.06
11.82
10.33
8.73
7.12
5.55
4.09
2.77
1.59
0.47
-0.68
-1.99
-3.49
-5.16
-6.92
-8.68
-10.36
-11.89
-13.22
-14.29
-15.11
-15.80
-16.60
-17.83
-19.70
-22.16
-24.89
-27.31
-28.90
-29.29
-28.36
-26.16
-22.77
-18.23
-12.57
-6.02
0.99
7.80
13.77
18.45
21.73
23.77
24.83
25.10
24.67
23.66
22.24
20.68
19.24
18.08
17.16
16.37
15.58
14.79
14.13
13.75
13.72
13.94
14.23
14.34
14.12
13.53
12.63
11.51
10.26
8.94
7.58
6.21
4.90
3.68
2.59
1.66
0.89
0.31
-0.06
-0.27
-0.39
-0.58
-0.97
-1.64
-2.59
-3.71
-4.84
-5.85
-6.65
-7.26
-7.79
-8.37
-9.14
-10.19
-11.59
-13.30
-15.26
-17.34
-19.34
-21.03
-22.26
-22.95
-23.26
-23.54
-24.23
-25.67
-27.97
-30.88
-33.94
-36.56
-38.28
-38.77
-37.92
-35.65
-31.94
-26.79
-20.38
-13.07
-5.45
1.78
8.02
12.92
16.42
18.71
20.09
20.83
21.11
21.01
20.54
19.74
18.65
17.37
16.03
14.79
13.77
13.10
12.88
13.11
13.72
14.59
15.47
16.11
16.31
15.93
15.02
13.71
12.21
10.69
9.21
7.72
6.15
4.50
2.86
1.39
0.19
-0.75
-1.57
-2.44
-3.40
-4.35
-5.08
-5.45
-5.52
-5.52
-5.76
-6.47
-7.66
-9.15
-10.65
-11.90
-12.79
-13.35
-13.79
-14.36
-15.31
-16.81
-18.86
-21.31
-23.90
-26.30
-28.22
-29.37
-29.51
-28.40
-25.90
-22.01
-16.96
-11.20
-5.29
0.29
5.25
9.47
12.97
15.74
17.72
18.83
19.05
18.53
17.52
16.31
15.08
13.89
12.68
11.43
10.22
9.26
8.77
8.90
9.57
10.53
11.39
11.84
11.75
11.19
10.36
9.45
8.54
7.58
6.42
4.96
3.23
1.35
-0.49
-2.14
-3.53
-4.68
-5.72
-6.76
-7.90
-9.15
-10.44
-11.69
-12.84
-13.94
-15.14
-16.54
-18.19
-19.95
-21.60
-22.90
-23.67
-23.83
-23.33
-22.07
-19.89
-16.66
-12.35
-7.16
-1.45
4.32
9.72
14.42
18.19
20.88
22.45
22.91
22.38
21.09
19.29
17.24
15.13
13.11
11.29
9.79
8.72
8.17
8.15
8.57
9.22
9.89
10.37
10.55
10.39
9.90
9.08
7.92
6.41
4.58
2.52
0.42
-1.56
-3.30
-4.77
-6.06
-7.27
-8.50
-9.76
-11.02
-12.22
-13.37
-14.50
-15.70
-17.06
-18.61
-20.30
-21.94
-23.27
-23.96
-23.71
-22.27
-19.50
-15.44
-10.26
-4.35
1.81
7.61
12.49
16.05
18.12
18.84
18.58
17.76
16.72
15.55
14.19
12.50
10.44
8.21
6.15
4.68
4.02
4.15
4.79
5.59
6.24
6.59
6.67
6.57
6.35
6.00
5.42
4.47
3.07
1.26
-0.86
-3.08
-5.21
-7.09
-8.62
-9.78
-10.63
-11.27
-11.85
-12.50
-13.33
-14.40
-15.73
-17.21
-18.63
-19.67
-19.98
-19.26
-17.33
-14.21
-10.04
-5.12
0.19
5.49
10.39
14.50
17.54
19.38
20.09
19.91
19.12
17.95
16.51
14.82
12.90
10.85
8.88
7.25
6.17
5.68
5.67
5.95
6.33
6.70
7.06
7.42
7.76
7.95
7.82
7.19
5.98
4.27
2.26
0.18
-1.75
-3.44
-4.90
-6.26
-7.67
-9.24
-11.04
-13.05
-15.18
-17.29
-19.15
-20.52
-21.18
-20.93
-19.67
-17.41
-14.22
-10.23
-5.63
-0.66
4.35
9.03
12.99
16.01
18.04
19.19
19.68
19.67
19.17
18.11
16.41
14.14
11.61
9.25
7.50
6.59
6.49
6.91
7.45
7.80
7.80
7.45
6.89
6.22
5.48
4.61
3.51
2.09
0.33
-1.71
-3.88
-5.99
-7.89
-9.45
-10.74
-11.89
-13.16
-14.73
-16.64
-18.76
-20.77
-22.32
-23.11
-22.94
-21.71
-19.39
-15.98
-11.57
-6.38
-0.76
4.84
9.97
14.28
17.58
19.75
20.80
20.79
19.90
18.39
16.60
14.82
13.25
11.91
10.70
9.49
8.24
7.03
6.04
5.46
5.35
5.63
6.10
6.50
6.65
6.45
5.90
5.04
3.89
2.44
0.69
-1.36
-3.58
-5.82
-7.88
-9.65
-11.16
-12.53
-13.97
-15.66
-17.65
-19.82
-21.92
-23.59
-24.51
-24.43
-23.22
-20.88
-17.48
-13.15
-8.06
-2.47
3.30
8.86
13.82
17.82
20.61
22.09
22.32
21.47
19.80
17.61
15.13
12.60
10.21
8.17
6.63
5.71
5.44
5.70
6.32
7.07
7.76
8.25
8.44
8.28
7.72
6.77
5.48
3.94
2.26
0.48
-1.39
-3.36
-5.33
-7.18
-8.73
-9.91
-10.83
-11.71
-12.86
-14.47
-16.54
-18.87
-21.14
-23.03
-24.29
-24.78
-24.38
-23.01
-20.64
-17.29
-13.06
-8.11
-2.71
2.82
8.07
12.64
16.19
18.50
19.54
19.48
18.58
17.15
15.43
13.60
11.79
10.08
8.59
7.42
6.65
6.29
6.27
6.44
6.66
6.81
6.85
6.80
6.70
6.54
6.23
5.64
4.67
3.28
1.53
-0.47
-2.59
-4.67
-6.58
-8.17
-9.36
-10.19
-10.88
-11.76
-13.12
-15.07
-17.41
-19.72
-21.55
-22.57
-22.72
-22.06
-20.71
-18.67
-15.83
-12.09
-7.46
-2.16
3.42
8.83
13.67
17.63
20.52
22.23
22.71
22.04
20.45
18.23
15.77
13.37
11.25
9.48
8.03
6.88
6.02
5.47
5.22
5.22
5.38
5.55
5.63
5.56
5.28
4.77
4.00
2.95
1.64
0.10
-1.57
-3.27
-4.90
-6.37
-7.61
-8.62
-9.45
-10.22
-11.12
-12.30
-13.85
-15.73
-17.78
-19.80
-21.61
-23.07
-24.08
-24.54
-24.23
-22.92
-20.40
-16.62
-11.70
-5.99
0.01
5.77
10.82
14.80
17.52
18.97
19.29
18.73
17.60
16.17
14.59
12.93
11.22
9.48
7.81
6.40
5.47
5.18
5.55
6.41
7.44
8.31
8.78
8.78
8.40
7.77
6.96
5.94
4.62
2.91
0.86
-1.38
-3.60
-5.62
-7.35
-8.84
-10.16
-11.41
-12.66
-13.91
-15.20
-16.52
-17.93
-19.44
-21.03
-22.61
-24.00
-24.99
-25.33
-24.77
-23.12
-20.28
-16.27
-11.27
-5.56
0.44
6.31
11.61
15.95
19.05
20.79
21.20
20.49
18.96
16.94
14.74
12.60
10.66
9.04
7.82
7.06
6.77
6.91
7.35
7.92
8.48
8.91
9.17
9.27
9.16
8.78
8.02
6.76
4.98
2.81
0.44
-1.85
-3.88
-5.52
-6.80
-7.82
-8.74
-9.72
-10.89
-12.31
-13.94
-15.67
-17.37
-18.95
-20.34
-21.51
-22.37
-22.80
-22.53
-21.28
-18.81
-15.05
-10.14
-4.44
1.55
7.27
12.22
16.05
18.62
19.91
20.09
19.43
18.19
16.61
14.83
12.96
11.04
9.16
7.45
6.08
5.22
4.95
5.21
5.84
6.58
7.18
7.45
7.28
6.70
5.79
4.63
3.31
1.85
0.20
-1.65
-3.68
-5.75
-7.67
-9.27
-10.50
-11.46
-12.39
-13.58
-15.20
-17.24
-19.43
-21.32
-22.46
-22.48
-21.25
-18.88
-15.58
-11.61
-7.16
-2.38
2.55
7.34
11.62
15.00
17.19
18.15
18.05
17.17
15.79
14.08
12.17
10.14
8.17
6.48
5.30
4.79
4.91
5.50
6.31
7.13
7.81
8.30
8.61
8.68
8.42
7.70
6.41
4.54
2.24
-0.24
-2.61
-4.70
-6.50
-8.17
-9.91
-11.89
-14.11
-16.47
-18.75
-20.69
-22.03
-22.49
-21.83
-19.92
-16.77
-12.60
-7.75
-2.64
2.39
7.09
11.27
14.74
17.30
18.78
19.15
18.51
17.13
15.32
13.34
11.37
9.47
7.70
6.15
4.94
4.25
4.15
4.60
5.37
6.18
6.70
6.71
6.14
5.06
3.64
2.05
0.38
-1.33
-3.11
-4.96
-6.82
-8.66
-10.44
-12.19
-13.99
-15.96
-18.15
-20.48
-22.67
-24.31
-24.87
-23.97
-21.41
-17.37
-12.30
-6.82
-1.50
3.29
7.43
10.96
13.90
16.22
17.78
18.42
18.17
17.18
15.77
14.25
12.83
11.58
10.49
9.54
8.77
8.28
8.13
8.31
8.73
9.20
9.52
9.50
9.02
8.02
6.53
4.62
2.43
0.07
-2.36
-4.81
-7.21
-9.41
-11.28
-12.67
-13.56
-14.10
-14.63
-15.52
-17.02
-19.15
-21.69
-24.17
-26.14
-27.15
-26.92
-25.26
-22.15
-17.69
-12.15
-6.00
0.18
5.81
10.43
13.81
15.96
17.05
17.33
17.03
16.27
15.13
13.63
11.83
9.81
7.74
5.90
4.60
4.16
4.71
6.11
7.93
9.59
10.63
10.86
10.46
9.77
9.11
8.51
7.79
6.64
4.90
2.69
0.31
-1.91
-3.81
-5.42
-6.90
-8.36
-9.79
-11.11
-12.29
-13.42
-14.72
-16.35
-18.34
-20.49
-22.52
-24.10
-24.99
-25.02
-23.99
-21.67
-17.85
-12.53
-6.05
0.96
7.67
13.39
17.76
20.78
22.69
23.80
24.25
24.06
23.21
21.75
19.92
18.05
16.48
15.41
14.87
14.76
14.98
15.44
16.12
16.95
17.75
18.26
18.24
17.58
16.37
14.87
13.35
11.97
10.74
9.49
8.11
6.52
4.80
3.11
1.57
0.20
-1.07
-2.37
-3.84
-5.54
-7.55
-9.95
-12.79
-16.13
-19.92
-23.95
-27.79
-30.92
-32.81
-33.12
-31.76
-28.90
-24.87
-20.00
-14.59
-8.83
-2.95
2.76
7.92
12.11
15.00
16.46
16.61
15.82
14.52
13.12
11.85
10.78
9.91
9.22
8.78
8.68
8.99
9.65
10.47
11.22
11.64
11.61
11.10
10.21
9.05
7.73
6.31
4.82
3.20
1.41
-0.60
-2.80
-5.05
-7.18
-8.99
-10.39
-11.42
-12.23
-12.95
-13.67
-14.40
-15.11
-15.82
-16.65
-17.78
-19.28
-21.10
-22.98
-24.54
-25.40
-25.25
-23.92
-21.38
-17.71
-13.09
-7.79
-2.10
3.65
9.12
13.99
17.99
20.89
22.57
23.06
22.55
21.34
19.78
18.08
16.36
14.65
13.01
11.54
10.46
9.96
10.12
10.82
11.74
12.51
12.78
12.43
11.50
10.17
8.67
7.13
5.59
4.03
2.35
0.49
-1.56
-3.77
-6.06
-8.32
-10.47
-12.39
-13.99
-15.22
-16.14
-16.86
-17.61
-18.56
-19.85
-21.47
-23.25
-24.91
-26.09
-26.39
-25.45
-22.99
-18.93
-13.41
-6.86
0.13
6.89
12.84
17.61
21.06
23.20
24.16
24.10
23.15
21.49
19.30
16.82
14.28
11.92
9.91
8.35
7.27
6.63
6.33
6.26
6.29
6.31
6.28
6.14
5.92
5.65
5.35
4.97
4.42
3.55
2.20
0.30
-2.10
-4.79
-7.48
-9.85
-11.66
-12.85
-13.59
-14.15
-14.89
-16.04
-17.66
-19.62
-21.70
-23.62
-25.10
-25.82
-25.48
-23.79
-20.58
-15.92
-10.13
-3.68
2.86
9.03
14.48
18.95
22.26
24.27
24.92
24.26
22.55
20.14
17.40
14.67
12.14
9.85
7.78
5.95
4.45
3.45
3.14
3.57
4.64
6.03
7.36
8.26
8.50
8.04
6.96
5.46
3.70
1.84
-0.06
-1.96
-3.85
-5.73
-7.59
-9.42
-11.21
-12.93
-14.57
-16.14
-17.63
-19.08
-20.50
-21.88
-23.17
-24.21
-24.78
-24.60
-23.47
-21.29
-18.07
-13.92
-9.00
-3.56
2.03
7.34
11.86
15.19
17.15
17.81
17.47
16.51
15.20
13.67
11.93
9.96
7.86
5.83
4.18
3.17
2.93
3.39
4.29
5.31
6.16
6.67
6.80
6.58
6.03
5.13
3.80
2.03
-0.11
-2.45
-4.75
-6.83
-8.61
-10.17
-11.70
-13.39
-15.32
-17.46
-19.65
-21.69
-23.38
-24.54
-25.00
-24.61
-23.22
-20.73
-17.18
-12.72
-7.66
-2.42
2.56
6.89
10.27
12.55
13.73
13.92
13.32
12.13
10.49
8.51
6.25
3.86
1.59
-0.20
-1.12
-0.86
0.65
3.23
6.52
10.00
13.18
15.59
16.89
16.89
15.58
13.14
9.94
6.46
3.14
0.21
-2.37
-4.88
-7.58
-10.60
-13.81
-16.93
-19.70
-22.01
-23.90
-25.36
-26.24
-26.16
-24.69
-21.58
-17.05
-11.72
-6.36
-1.70
1.92
4.45
6.06
6.95
7.26
7.05
6.35
5.20
3.61
1.58
-0.85
-3.54
-6.16
-8.23
-9.20
-8.60
-6.18
-1.98
3.62
9.93
16.04
20.99
23.94
24.46
22.66
19.10
14.59
9.89
5.47
1.44
-2.32
-5.94
-9.43
-12.65
-15.32
-17.11
-17.69
-16.80
-14.25
-10.08
-4.55
1.83
8.36
14.32
19.07
22.20
23.54
23.20
21.48
18.87
15.91
13.09
10.72
8.93
7.60
6.58
5.71
4.91
4.24
3.76
3.52
3.45
3.43
3.29
2.93
2.28
1.39
0.29
-1.02
-2.59
-4.50
-6.78
-9.38
-12.10
-14.69
-16.89
-18.52
-19.50
-19.77
-19.22
-17.65
-14.83
-10.64
-5.25
0.92
7.23
13.04
17.90
21.55
23.95
25.12
25.07
23.89
21.72
18.84
15.65
12.51
9.72
7.43
5.74
4.66
4.17
4.16
4.43
4.72
4.78
4.48
3.81
2.88
1.81
0.59
-0.85
-2.67
-5.00
-7.82
-11.00
-14.34
-17.59
-20.51
-22.89
-24.43
-24.80
-23.68
-20.83
-16.27
-10.32
-3.50
3.48
9.98
15.50
19.72
22.54
24.00
24.22
23.39
21.70
19.39
16.66
13.75
10.92
8.41
6.45
5.17
4.62
4.70
5.23
5.98
6.69
7.15
7.15
6.56
5.32
3.44
1.09
-1.48
-4.00
-6.25
-8.13
-9.75
-11.32
-13.12
-15.35
-18.06
-21.10
-24.16
-26.77
-28.45
-28.77
-27.44
-24.33
-19.59
-13.57
-6.77
0.24
6.95
13.02
18.24
22.50
25.73
27.87
28.86
28.74
27.66
25.91
23.84
21.80
19.98
18.48
17.28
16.33
15.63
15.20
15.04
15.10
15.28
15.43
15.42
15.19
14.78
14.23
13.56
12.68
11.45
9.79
7.72
5.48
3.37
1.66
0.53
-0.05
-0.23
-0.27
-0.37
-0.61
-1.01
-1.50
-2.03
-2.62
-3.30
-4.13
-5.09
-6.12
-7.12
-8.02
-8.82
-9.59
-10.42
-11.40
-12.53
-13.76
-15.06
-16.41
-17.82
-19.27
-20.70
-22.05
-23.36
-24.81
-26.63
-29.01
-31.90
-34.94
-37.50
-38.89
-38.56
-36.24
-31.96
-25.95
-18.57
-10.26
-1.52
7.11
15.09
21.91
27.22
30.84
32.80
33.29
32.62
31.16
29.28
27.27
25.35
23.61
22.05
20.63
19.31
18.13
17.17
16.53
16.22
16.15
16.15
16.00
15.53
14.68
13.49
12.05
10.47
8.85
7.24
5.65
4.10
2.57
1.06
-0.43
-1.90
-3.31
-4.59
-5.66
-6.45
-6.97
-7.26
-7.46
-7.72
-8.18
-8.96
-10.08
-11.49
-13.06
-14.67
-16.17
-17.45
-18.47
-19.28
-20.08
-21.16
-22.79
-25.11
-27.99
-31.03
-33.62
-35.11
-34.97
-32.89
-28.83
-23.01
-15.87
-7.97
0.08
7.73
14.56
20.26
24.70
27.83
29.69
30.39
30.10
29.04
27.44
25.52
23.42
21.30
19.26
17.46
16.04
15.12
14.76
14.88
15.25
15.60
15.65
15.22
14.30
12.99
11.44
9.79
8.12
6.46
4.79
3.11
1.42
-0.29
-2.03
-3.81
-5.58
-7.22
-8.63
-9.71
-10.48
-11.06
-11.62
-12.31
-13.16
-14.13
-15.08
-15.94
-16.72
-17.51
-18.49
-19.79
-21.47
-23.47
-25.66
-27.87
-29.89
-31.47
-32.33
-32.15
-30.59
-27.41
-22.52
-16.08
-8.53
-0.51
7.25
14.10
19.57
23.41
25.60
26.28
25.68
24.11
21.95
19.59
17.35
15.43
13.84
12.50
11.35
10.43
9.90
9.87
10.35
11.13
11.87
12.24
12.05
11.31
10.16
8.76
7.24
5.64
3.96
2.21
0.37
-1.55
-3.58
-5.70
-7.87
-9.94
-11.80
-13.34
-14.55
-15.54
-16.39
-17.21
-18.09
-19.13
-20.44
-22.09
-24.02
-26.02
-27.71
-28.62
-28.35
-26.65
-23.49
-19.06
-13.67
-7.70
-1.52
4.48
10.00
14.73
18.49
21.12
22.57
22.90
22.28
20.94
19.15
17.15
15.10
13.07
11.16
9.45
8.06
7.11
6.67
6.71
7.07
7.54
7.92
8.07
7.88
7.35
6.49
5.37
4.05
2.58
0.95
-0.86
-2.88
-5.07
-7.27
-9.29
-10.93
-12.14
-13.06
-13.94
-15.09
-16.65
-18.61
-20.78
-22.91
-24.76
-26.15
-26.88
-26.74
-25.49
-22.92
-19.03
-14.02
-8.28
-2.30
3.54
8.97
13.82
17.95
21.19
23.36
24.32
24.08
22.82
20.82
18.39
15.74
13.04
10.44
8.12
6.32
5.24
4.95
5.30
6.01
6.72
7.16
7.19
6.85
6.25
5.48
4.62
3.61
2.41
0.95
-0.80
-2.79
-4.93
-7.06
-9.05
-10.82
-12.39
-13.89
-15.48
-17.33
-19.49
-21.86
-24.21
-26.24
-27.62
-28.07
-27.40
-25.45
-22.18
-17.65
-12.04
-5.64
1.09
7.62
13.37
17.86
20.85
22.34
22.55
21.84
20.54
18.83
16.79
14.41
11.79
9.13
6.78
5.08
4.25
4.25
4.85
5.68
6.42
6.83
6.85
6.49
5.82
4.88
3.64
2.10
0.24
-1.88
-4.11
-6.24
-8.11
-9.63
-10.87
-12.02
-13.37
-15.12
-17.32
-19.84
-22.37
-24.58
-26.15
-26.83
-26.44
-24.83
-21.91
-17.68
-12.32
-6.21
0.13
6.15
11.42
15.66
18.78
20.79
21.72
21.62
20.57
18.71
16.31
13.66
11.04
8.66
6.63
5.01
3.88
3.34
3.45
4.15
5.26
6.44
7.34
7.69
7.38
6.47
5.12
3.51
1.78
-0.03
-1.95
-4.02
-6.25
-8.64
-11.10
-13.59
-16.06
-18.47
-20.81
-23.01
-24.97
-26.49
-27.28
-27.02
-25.41
-22.34
-17.86
-12.29
-6.07
0.32
6.44
11.86
16.24
19.26
20.74
20.75
19.57
17.64
15.43
13.21
11.08
8.94
6.77
4.63
2.80
1.56
1.15
1.56
2.54
3.73
4.72
5.26
5.24
4.74
3.86
2.68
1.19
-0.63
-2.74
-5.00
-7.16
-9.03
-10.61
-12.07
-13.77
-15.95
-18.67
-21.61
-24.24
-25.97
-26.33
-25.14
-22.50
-18.66
-13.91
-8.55
-2.89
2.78
8.11
12.73
16.33
18.65
19.64
19.39
18.16
16.24
13.93
11.42
8.89
6.45
4.25
2.46
1.22
0.63
0.68
1.27
2.32
3.69
5.25
6.81
8.13
8.91
9.00
8.33
7.07
5.42
3.60
1.65
-0.54
-3.18
-6.39
-10.10
-14.06
-17.81
-20.91
-22.98
-23.84
-23.45
-21.86
-19.12
-15.28
-10.45
-4.86
1.12
6.98
12.20
16.36
19.15
20.49
20.42
19.18
17.04
14.37
11.48
8.62
5.93
3.53
1.55
0.14
-0.55
-0.48
0.17
1.05
1.74
1.93
1.57
0.80
-0.14
-1.09
-2.07
-3.19
-4.56
-6.22
-8.05
-9.94
-11.84
-13.81
-15.93
-18.15
-20.23
-21.74
-22.20
-21.26
-18.84
-15.11
-10.44
-5.22
0.17
5.42
10.20
14.21
17.18
18.97
19.57
19.20
18.16
16.78
15.28
13.78
12.30
10.88
9.57
8.49
7.78
7.50
7.64
8.07
8.58
8.97
9.02
8.62
7.73
6.46
4.91
3.22
1.39
-0.60
-2.87
-5.48
-8.38
-11.42
-14.34
-16.88
-18.79
-19.87
-19.93
-18.83
-16.43
-12.74
-7.87
-2.18
3.85
9.63
14.63
18.47
20.97
22.17
22.27
21.51
20.04
17.97
15.38
12.43
9.43
6.78
4.86
3.88
3.79
4.30
5.03
5.64
5.95
5.94
5.66
5.13
4.36
3.27
1.80
-0.07
-2.33
-4.89
-7.67
-10.56
-13.45
-16.16
-18.47
-20.08
-20.72
-20.14
-18.22
-14.99
-10.60
-5.34
0.44
6.31
11.84
16.60
20.20
22.39
23.10
22.49
20.83
18.51
15.87
13.18
10.59
8.20
6.10
4.42
3.33
2.90
3.09
3.71
4.44
4.91
4.89
4.29
3.15
1.63
-0.12
-1.99
-3.91
-5.80
-7.62
-9.41
-11.25
-13.32
-15.76
-18.57
-21.53
-24.27
-26.31
-27.22
-26.70
-24.57
-20.85
-15.67
-9.35
-2.40
4.61
11.05
16.46
20.52
23.14
24.39
24.42
23.48
21.86
19.85
17.74
15.70
13.88
12.33
11.12
10.28
9.87
9.87
10.17
10.58
10.88
10.87
10.44
9.54
8.23
6.58
4.67
2.59
0.35
-1.96
-4.29
-6.54
-8.64
-10.49
-12.07
-13.38
-14.48
-15.53
-16.70
-18.18
-20.05
-22.22
-24.43
-26.26
-27.29
-27.15
-25.62
-22.65
-18.32
-12.83
-6.51
0.24
6.92
13.06
18.27
22.33
25.16
26.82
27.42
27.09
26.00
24.30
22.19
19.93
17.79
16.00
14.72
13.99
13.73
13.79
14.01
14.25
14.40
14.36
14.04
13.37
12.29
10.85
9.15
7.38
5.71
4.24
2.97
1.85
0.81
-0.19
-1.13
-1.98
-2.67
-3.21
-3.64
-4.03
-4.47
-5.01
-5.62
-6.22
-6.74
-7.15
-7.51
-7.97
-8.72
-9.85
-11.35
-13.07
-14.78
-16.29
-17.49
-18.40
-19.16
-19.96
-20.99
-22.46
-24.43
-26.86
-29.50
-31.95
-33.71
-34.32
-33.42
-30.83
-26.57
-20.86
-14.07
-6.71
0.67
7.55
13.55
18.42
22.10
24.63
26.09
26.64
26.46
25.75
24.71
23.48
22.14
20.73
19.33
18.07
17.12
16.58
16.42
16.48
16.50
16.29
15.77
15.04
14.21
13.37
12.50
11.47
10.19
8.60
6.76
4.80
2.84
1.01
-0.64
-2.10
-3.35
-4.37
-5.16
-5.75
-6.26
-6.83
-7.59
-8.59
-9.81
-11.13
-12.44
-13.70
-14.88
-15.97
-16.93
-17.72
-18.33
-18.85
-19.55
-20.67
-22.40
-24.65
-27.06
-29.11
-30.31
-30.36
-29.15
-26.80
-23.40
-19.02
-13.66
-7.43
-0.62
6.23
12.48
17.52
21.02
22.99
23.70
23.54
22.83
21.75
20.34
18.63
16.70
14.74
13.02
11.76
11.06
10.90
11.12
11.56
12.09
12.62
13.07
13.36
13.34
12.88
11.90
10.44
8.66
6.74
4.86
3.11
1.51
0.05
-1.27
-2.45
-3.51
-4.43
-5.28
-6.11
-6.99
-7.98
-9.07
-10.21
-11.33
-12.36
-13.27
-14.09
-14.91
-15.83
-16.90
-18.16
-19.59
-21.19
-22.94
-24.79
-26.54
-27.85
-28.25
-27.29
-24.69
-20.40
-14.68
-8.00
-0.95
5.93
12.13
17.27
21.07
23.44
24.45
24.32
23.37
21.93
20.19
18.27
16.23
14.16
12.27
10.78
9.87
9.54
9.57
9.63
9.38
8.58
7.20
5.41
3.49
1.76
0.50
-0.09
0.05
0.85
2.14
3.67
5.17
6.43
7.27
7.59
7.39
6.75
5.80
4.71
3.60
2.52
1.48
0.43
-0.64
-1.74
-2.84
-3.96
-5.15
-6.46
-7.90
-9.39
-10.82
-12.05
-13.00
-13.67
-14.13
-14.49
-14.86
-15.37
-16.16
-17.34
-18.93
-20.84
-22.86
-24.72
-26.20
-27.09
-27.22
-26.41
-24.45
-21.14
-16.49
-10.69
-4.20
2.41
8.56
13.81
17.93
20.88
22.72
23.56
23.52
22.71
21.26
19.33
17.09
14.76
12.53
10.61
9.13
8.22
7.89
8.09
8.69
9.45
10.16
10.63
10.77
10.58
10.12
9.40
8.42
7.15
5.57
3.74
1.76
-0.26
-2.25
-4.21
-6.15
-8.05
-9.87
-11.50
-12.87
-13.96
-14.79
-15.49
-16.19
-17.07
-18.22
-19.73
-21.53
-23.45
-25.16
-26.28
-26.44
-25.35
-22.95
-19.36
-14.81
-9.58
-3.98
1.76
7.31
12.34
16.48
19.45
21.16
21.73
21.41
20.47
19.06
17.25
15.04
12.54
9.97
7.67
5.93
4.95
4.73
5.09
5.81
6.61
7.29
7.72
7.85
7.67
7.18
6.39
5.33
4.03
2.53
0.88
-0.90
-2.79
-4.79
-6.84
-8.86
-10.76
-12.48
-14.04
-15.55
-17.12
-18.83
-20.66
-22.51
-24.22
-25.58
-26.34
-26.23
-25.00
-22.51
-18.79
-14.06
-8.68
-3.08
2.39
7.42
11.79
15.29
17.78
19.16
19.43
18.67
17.09
14.91
12.39
9.76
7.24
5.03
3.29
2.14
1.62
1.70
2.27
3.15
4.13
4.99
5.53
5.67
5.42
4.87
4.15
3.38
2.59
1.69
0.58
-0.88
-2.71
-4.86
-7.17
-9.45
-11.58
-13.51
-15.26
-16.91
-18.46
-19.81
-20.77
-21.05
-20.41
-18.68
-15.86
-12.08
-7.56
-2.60
2.48
7.33
11.62
15.16
17.78
19.43
20.11
19.81
18.54
16.35
13.42
10.01
6.57
3.56
1.38
0.22
0.01
0.46
1.22
1.97
2.53
2.86
2.99
2.94
2.66
2.03
1.00
-0.40
-2.01
-3.62
-5.12
-6.50
-7.87
-9.36
-11.05
-12.96
-15.01
-17.06
-18.87
-20.14
-20.49
-19.59
-17.27
-13.57
-8.77
-3.32
2.32
7.74
12.57
16.56
19.53
21.39
22.13
21.83
20.61
18.62
16.00
12.95
9.73
6.67
4.12
2.29
1.29
1.04
1.37
2.06
2.90
3.67
4.18
4.27
3.83
2.90
1.58
0.07
-1.49
-3.04
-4.63
-6.36
-8.36
-10.67
-13.26
-16.02
-18.68
-20.81
-21.83
-21.16
-18.46
-13.73
-7.50
-0.59
6.06
11.76
16.14
19.18
21.07
22.02
22.20
21.69
20.52
18.69
16.25
13.27
9.99
6.78
4.05
2.18
1.31
1.35
2.05
3.09
4.16
5.02
5.39
5.05
3.89
2.00
-0.30
-2.65
-4.82
-6.88
-9.14
-11.92
-15.28
-18.96
-22.42
-25.11
-26.62
-26.76
-25.47
-22.74
-18.57
-13.10
-6.64
0.30
7.11
13.24
18.28
22.02
24.38
25.40
25.23
24.09
22.23
19.91
17.30
14.53
11.75
9.16
7.05
5.69
5.22
5.63
6.69
8.05
9.34
10.16
10.19
9.21
7.14
4.11
0.44
-3.47
-7.19
-10.42
-13.08
-15.23
-17.10
-18.98
-21.09
-23.55
-26.24
-28.82
-30.77
-31.53
-30.60
-27.72
-22.89
-16.37
-8.67
-0.41
7.71
15.07
21.16
25.73
28.68
30.12
30.25
29.37
27.81
25.92
23.99
22.17
20.47
18.83
17.22
15.75
14.70
14.34
14.83
16.02
17.46
18.63
19.09
18.65
17.39
15.56
13.42
11.12
8.73
6.22
3.57
0.84
-1.86
-4.39
-6.62
-8.47
-9.94
-11.08
-12.01
-12.88
-13.81
-14.86
-16.04
-17.29
-18.51
-19.63
-20.66
-21.69
-22.88
-24.40
-26.34
-28.66
-31.10
-33.27
-34.65
-34.75
-33.17
-29.69
-24.34
-17.36
-9.18
-0.39
8.35
16.42
23.27
28.56
32.10
33.89
34.10
33.03
31.06
28.60
26.04
23.70
21.77
20.28
19.18
18.38
17.79
17.35
17.03
16.77
16.47
15.98
15.20
14.06
12.59
10.86
8.99
7.02
4.97
2.80
0.48
-1.97
-4.42
-6.73
-8.73
-10.37
-11.73
-12.94
-14.19
-15.61
-17.21
-18.92
-20.58
-22.02
-23.14
-23.95
-24.55
-25.17
-26.04
-27.36
-29.15
-31.26
-33.35
-34.94
-35.50
-34.53
-31.74
-27.07
-20.79
-13.44
-5.68
1.83
8.60
14.34
18.93
22.32
24.48
25.44
25.33
24.38
22.96
21.46
20.16
19.20
18.56
18.12
17.73
17.30
16.83
16.33
15.87
15.44
15.02
14.48
13.71
12.57
11.01
9.12
7.05
4.99
3.09
1.40
-0.10
-1.46
-2.69
-3.77
-4.69
-5.45
-6.09
-6.71
-7.41
-8.29
-9.44
-10.88
-12.56
-14.37
-16.12
-17.69
-19.05
-20.36
-21.82
-23.62
-25.77
-28.08
-30.22
-31.85
-32.68
-32.47
-30.99
-28.01
-23.39
-17.14
-9.60
-1.39
6.71
13.96
19.83
24.11
26.86
28.31
28.70
28.23
27.04
25.25
23.03
20.57
18.15
16.02
14.37
13.29
12.76
12.65
12.82
13.09
13.29
13.27
12.85
11.97
10.62
8.93
7.10
5.26
3.44
1.57
-0.47
-2.73
-5.16
-7.57
-9.74
-11.49
-12.79
-13.74
-14.55
-15.47
-16.73
-18.41
-20.46
-22.72
-24.97
-26.99
-28.56
-29.44
-29.34
-27.98
-25.10
-20.62
-14.73
-7.89
-0.72
6.14
12.19
17.10
20.74
23.06
24.10
23.98
22.89
21.08
18.85
16.46
14.09
11.85
9.80
8.05
6.73
5.95
5.74
5.99
6.50
7.07
7.54
7.82
7.91
7.72
7.15
6.00
4.19
1.76
-1.05
-3.84
-6.27
-8.13
-9.45
-10.46
-11.50
-12.85
-14.64
-16.81
-19.14
-21.33
-23.02
-23.90
-23.71
-22.29
-19.61
-15.76
-10.96
-5.48
0.34
6.13
11.49
16.04
19.52
21.79
22.85
22.82
21.84
20.06
17.59
14.63
11.45
8.41
5.91
4.20
3.40
3.38
3.86
4.51
5.06
5.34
5.33
5.09
4.65
3.95
2.89
1.35
-0.63
-2.90
-5.18
-7.24
-8.98
-10.50
-12.02
-13.78
-15.85
-18.13
-20.30
-21.97
-22.71
-22.18
-20.17
-16.62
-11.69
-5.71
0.79
7.23
13.04
17.75
21.06
22.89
23.34
22.68
21.17
19.07
16.54
13.70
10.71
7.84
5.42
3.76
3.01
3.10
3.71
4.45
4.96
5.07
4.79
4.23
3.47
2.48
1.19
-0.51
-2.60
-4.97
-7.46
-9.94
-12.37
-14.79
-17.29
-19.87
-22.47
-24.86
-26.70
-27.53
-26.92
-24.53
-20.28
-14.39
-7.42
-0.06
6.97
13.14
18.13
21.80
24.08
25.02
24.68
23.32
21.28
18.93
16.58
14.34
12.23
10.22
8.42
7.03
6.28
6.24
6.73
7.33
7.60
7.27
6.29
4.83
3.11
1.28
-0.66
-2.77
-5.09
-7.56
-10.07
-12.47
-14.74
-16.90
-19.04
-21.25
-23.52
-25.71
-27.54
-28.60
-28.41
-26.63
-23.10
-17.95
-11.61
-4.66
2.30
8.74
14.33
18.85
22.20
24.34
25.24
24.96
23.66
21.62
19.22
16.87
14.90
13.49
12.63
12.19
11.94
11.75
11.55
11.40
11.35
11.35
11.27
10.87
9.91
8.27
6.05
3.48
0.89
-1.48
-3.52
-5.25
-6.80
-8.32
-9.86
-11.38
-12.79
-14.02
-15.06
-16.04
-17.17
-18.65
-20.57
-22.82
-25.11
-27.04
-28.24
-28.40
-27.33
-24.89
-21.03
-15.75
-9.26
-2.00
5.38
12.18
17.76
21.74
24.01
24.71
24.17
22.76
20.88
18.87
17.00
15.42
14.16
13.14
12.29
11.60
11.14
10.96
11.10
11.42
11.70
11.72
11.31
10.48
9.36
8.08
6.71
5.20
3.51
1.61
-0.41
-2.41
-4.31
-6.11
-7.93
-9.82
-11.74
-13.52
-14.93
-15.84
-16.36
-16.76
-17.42
-18.59
-20.32
-22.44
-24.68
-26.72
-28.22
-28.86
-28.30
-26.21
-22.46
-17.18
-10.77
-3.88
2.86
8.94
14.03
17.97
20.65
22.00
22.05
21.00
19.24
17.28
15.51
14.16
13.17
12.35
11.54
10.70
9.98
9.54
9.50
9.80
10.27
10.68
10.84
10.62
9.99
8.98
7.64
6.05
4.29
2.45
0.63
-1.09
-2.65
-4.04
-5.28
-6.41
-7.50
-8.62
-9.78
-11.00
-12.27
-13.59
-15.00
-16.56
-18.35
-20.41
-22.67
-24.92
-26.85
-28.02
-28.04
-26.65
-23.78
-19.61
-14.46
-8.76
-2.92
2.72
7.91
12.40
15.98
18.44
19.66
19.71
18.84
17.44
15.86
14.33
12.89
11.46
10.02
8.66
7.61
7.09
7.21
7.84
8.67
9.36
9.63
9.36
8.61
7.51
6.20
4.81
3.37
1.89
0.34
-1.26
-2.84
-4.30
-5.58
-6.65
-7.55
-8.36
-9.16
-10.03
-11.07
-12.34
-13.94
-15.90
-18.14
-20.47
-22.61
-24.27
-25.22
-25.30
-24.40
-22.43
-19.35
-15.20
-10.20
-4.75
0.64
5.51
9.54
12.63
14.82
16.21
16.89
16.91
16.32
15.22
13.78
12.22
10.74
9.51
8.61
8.05
7.78
7.71
7.72
7.70
7.56
7.26
6.82
6.32
5.79
5.25
4.66
3.92
2.92
1.62
0.02
-1.79
-3.62
-5.28
-6.60
-7.56
-8.26
-8.95
-9.88
-11.22
-13.02
-15.16
-17.43
-19.53
-21.16
-21.99
-21.75
-20.22
-17.37
-13.36
-8.51
-3.26
2.00
6.96
11.38
15.09
17.90
19.65
20.29
19.93
18.87
17.46
15.95
14.46
12.93
11.25
9.44
7.66
6.24
5.47
5.48
6.17
7.18
8.08
8.57
8.52
7.98
7.14
6.14
5.06
3.87
2.53
1.02
-0.67
-2.46
-4.30
-6.10
-7.82
-9.42
-10.94
-12.43
-13.97
-15.62
-17.42
-19.33
-21.29
-23.15
-24.73
-25.74
-25.83
-24.68
-22.10
-18.15
-13.14
-7.55
-1.81
3.73
8.86
13.37
17.05
19.62
20.93
21.00
20.04
18.44
16.53
14.56
12.67
10.90
9.35
8.14
7.43
7.27
7.61
8.29
9.09
9.77
10.15
10.09
9.52
8.48
7.01
5.29
3.44
1.56
-0.33
-2.28
-4.31
-6.35
-8.25
-9.87
-11.12
-12.11
-13.09
-14.33
-16.03
-18.19
-20.55
-22.73
-24.29
-24.87
-24.25
-22.33
-19.16
-14.87
-9.71
-4.01
1.81
7.31
12.12
15.92
18.58
20.10
20.61
20.35
19.51
18.22
