1679581878.00
64.000000
-0.00
-0.00
-0.00
-0.00
-0.00
-0.00
-0.00
-0.00
-0.00
-0.00
0.00
0.01
0.01
-0.00
-0.03
-0.05
-0.05
0.00
0.13
0.36
0.66
1.01
1.37
1.72
2.06
2.40
2.79
3.24
3.80
4.42
5.06
5.66
6.20
6.68
7.15
7.68
8.31
9.14
10.09
11.04
11.88
12.56
13.14
13.76
14.65
15.96
17.91
20.32
22.90
25.38
27.58
29.57
31.68
34.32
37.81
42.54
48.15
54.10
59.83
64.97
69.58
74.14
79.34
85.71
93.76
103.00
112.62
121.73
129.77
136.75
143.30
150.75
157.77
166.64
177.95
191.79
206.97
220.57
228.25
225.36
208.53
176.87
132.76
80.05
23.07
-34.94
-92.44
-149.16
-205.23
-260.37
-313.74
-363.87
-409.83
-450.91
-486.50
-515.74
-537.23
-549.22
-549.96
-538.37
-514.21
-478.67
-433.88
-382.45
-327.02
-269.84
-212.63
-156.66
-102.95
-52.38
-5.91
35.58
71.43
101.36
125.51
144.40
158.73
169.20
176.44
180.85
182.71
182.24
179.72
175.50
169.97
163.55
156.57
149.29
141.84
134.30
126.69
119.07
111.50
104.04
96.77
89.73
82.97
76.49
70.31
64.43
58.87
53.64
48.75
44.19
39.97
36.08
32.52
29.28
26.35
23.74
21.43
19.43
17.73
16.32
15.19
14.32
13.71
13.33
13.18
13.22
13.45
13.86
14.41
15.11
15.93
16.87
17.92
19.09
20.36
21.74
23.22
24.75
26.31
27.82
29.18
30.27
30.95
31.06
30.48
29.10
26.85
23.74
19.83
15.20
10.06
4.62
-0.87
-6.14
-10.95
-15.12
-18.49
-20.98
-22.58
-23.30
-23.24
-22.53
-21.28
-19.65
-17.74
-15.68
-13.53
-11.34
-9.12
-6.92
-4.74
-2.59
-0.44
1.72
3.92
6.20
8.60
11.18
13.89
16.73
19.66
22.71
25.85
29.12
32.52
36.09
39.91
43.86
47.90
52.02
56.24
60.59
65.14
69.94
75.09
80.70
86.59
92.64
98.77
104.93
111.07
117.21
123.36
129.57
135.95
142.18
148.02
153.27
157.67
160.90
162.51
161.85
157.98
152.61
146.25
139.24
131.74
123.90
115.83
107.67
99.57
91.76
84.51
77.64
71.10
64.84
58.81
52.98
47.37
42.04
37.12
32.77
28.87
25.30
21.98
18.80
15.64
12.47
9.30
6.27
3.53
1.00
-1.39
-3.85
-6.60
-9.86
-13.69
-17.98
-22.42
-26.65
-30.47
-33.92
-37.29
-41.06
-45.72
-51.50
-58.31
-65.70
-73.09
-80.07
-86.61
-93.15
-100.42
-109.13
-119.68
-131.89
-145.16
-158.66
-171.76
-184.25
-196.39
-208.88
-222.67
-238.85
-258.45
-281.85
-308.23
-334.99
-358.01
-372.65
-375.29
-364.76
-342.81
-313.47
-281.42
-250.42
-222.43
-197.71
-175.67
-155.73
-137.80
-121.98
-108.24
-96.13
-84.85
-73.70
-62.44
-51.39
-41.28
-32.92
-26.76
-22.77
-20.53
-19.43
-18.91
-18.65
-18.49
-18.28
-17.77
-16.53
-14.08
-10.07
-4.41
2.59
10.40
18.38
26.02
33.09
39.60
45.72
51.61
57.31
62.67
67.40
71.19
73.83
75.27
75.62
75.11
74.01
72.59
71.13
69.82
68.78
67.96
67.11
65.96
64.26
61.98
59.25
56.31
53.38
50.51
47.59
44.45
40.89
36.84
32.33
27.49
22.48
17.48
12.72
8.37
4.57
1.36
-1.28
-3.47
-5.38
-7.23
-9.30
-11.84
-15.00
-18.76
-22.88
-26.99
-30.63
-33.49
-35.48
-36.77
-37.77
-38.93
-40.63
-42.97
-45.73
-48.32
-49.88
-49.50
-46.41
-40.30
-31.47
-20.82
-9.69
0.54
8.79
14.53
17.89
19.47
20.10
20.54
21.27
22.52
24.23
26.20
28.21
30.10
31.86
33.55
35.34
37.37
39.69
42.20
44.75
47.10
49.13
50.75
51.93
52.73
53.14
53.13
52.71
51.91
50.85
49.73
48.75
48.05
47.71
47.63
47.72
47.81
47.75
47.37
46.49
44.95
42.72
39.89
36.73
33.64
30.95
28.86
27.18
25.51
23.30
20.27
16.59
12.99
10.50
10.04
12.01
16.05
21.12
25.90
29.16
30.24
29.07
26.09
21.96
17.41
12.99
9.06
5.76
3.06
0.83
-1.09
-2.85
-4.58
-6.41
-8.52
-11.08
-14.22
-17.94
-22.08
-26.38
-30.54
-34.36
-37.77
-40.78
-43.43
-45.70
-47.49
-48.62
-48.90
-48.24
-46.61
-44.07
-40.67
-36.48
-31.51
-25.85
-19.67
-13.22
-6.84
-0.81
4.64
9.40
13.49
16.82
19.28
20.60
20.44
18.50
14.71
9.35
3.14
-2.90
-7.56
-9.93
-9.60
-6.86
-2.64
1.83
5.39
7.26
7.20
5.39
2.26
-1.68
-6.03
-10.38
-14.39
-17.76
-20.26
-21.90
-22.90
-23.65
-24.51
-25.65
-26.93
-27.89
-27.96
-26.63
-23.73
-19.48
-14.44
-9.30
-4.63
-0.75
2.37
4.96
7.29
9.55
11.77
13.89
15.96
18.07
20.46
23.33
26.68
30.24
33.44
35.65
36.29
35.12
32.27
28.15
23.25
17.95
12.35
6.35
-0.30
-7.81
-16.18
-25.20
-34.39
-42.99
-50.05
-54.52
-55.53
-52.69
-46.30
-37.34
-27.25
-17.54
-9.31
-3.14
0.97
3.34
4.41
4.63
4.36
3.97
3.77
4.02
4.83
6.15
7.87
9.84
12.01
14.36
16.92
19.68
22.59
25.50
28.26
30.68
32.63
34.08
35.08
35.80
36.44
37.09
37.77
38.38
38.80
38.96
38.93
38.91
39.13
39.76
40.78
41.93
42.71
42.55
40.91
37.56
32.52
26.10
18.69
10.63
2.09
-6.90
-16.40
-26.41
-36.83
-47.41
-57.63
-66.77
-73.94
-78.40
-79.81
-78.44
-75.09
-70.88
-66.75
-63.15
-59.96
-56.66
-52.66
-47.66
-41.72
-35.19
-28.55
-22.16
-16.19
-10.63
-5.39
-0.37
4.43
8.97
13.11
16.73
19.71
21.91
23.19
23.36
22.32
20.05
16.71
12.62
8.16
3.72
-0.42
-4.12
-7.25
-9.71
-11.39
-12.21
-12.17
-11.42
-10.08
-8.22
-5.80
-2.83
0.55
3.86
6.42
7.61
7.08
4.96
1.71
-2.12
-6.10
-9.96
-13.36
-15.77
-16.40
-14.55
-9.92
-2.92
5.37
13.58
20.49
25.42
28.30
29.49
29.51
28.77
27.53
25.93
24.09
22.10
20.13
18.29
16.66
15.25
14.00
12.83
11.62
10.27
8.75
7.06
5.31
3.60
2.03
0.61
-0.77
-2.28
-4.13
-6.49
-9.33
-12.50
-15.69
-18.54
-20.82
-22.55
-24.01
-25.64
-27.92
-31.09
-35.07
-39.40
-43.38
-46.25
-47.41
-46.58
-43.88
-39.85
-35.36
-31.38
-28.65
-27.37
-27.05
-26.52
-24.39
-19.57
-11.76
-1.66
9.33
19.60
27.92
33.74
37.20
38.82
39.23
38.92
38.22
37.35
36.47
35.70
35.03
34.32
33.42
32.27
30.97
29.89
29.45
29.97
31.53
33.94
36.81
39.62
41.94
43.48
44.08
43.81
42.83
41.40
39.78
38.18
36.67
35.19
33.55
31.50
28.86
25.53
21.58
17.12
12.32
7.28
2.10
-3.13
-8.29
-13.25
-18.01
-22.68
-27.57
-33.04
-39.34
-46.40
-53.73
-60.53
-65.78
-68.57
-68.33
-65.01
-59.13
-51.62
-43.61
-36.04
-29.44
-23.84
-18.95
-14.33
-9.66
-4.81
0.20
5.34
10.65
16.19
21.91
27.63
33.01
37.76
41.76
45.12
48.09
50.96
53.88
56.82
59.61
62.06
63.99
65.28
65.92
66.03
65.90
65.91
66.43
67.62
69.25
70.76
71.33
70.20
66.86
61.20
53.50
44.25
34.07
23.57
13.33
3.92
-4.19
-10.63
-15.27
-18.23
-19.93
-21.02
-22.19
-23.99
-26.65
-29.89
-32.97
-34.84
-34.44
-31.10
-24.85
-16.54
-7.63
0.10
5.13
6.62
4.59
-0.06
-5.85
-11.21
-14.91
-16.39
-15.92
-14.41
-13.07
-13.00
-14.79
-18.31
-22.80
-27.01
-29.61
-29.55
-26.40
-20.47
-12.82
-4.97
1.56
5.68
7.01
5.91
3.21
-0.20
-3.57
-6.55
-9.05
-11.17
-13.08
-14.98
-17.17
-20.00
-23.80
-28.75
-34.85
-41.87
-49.48
-57.31
-65.11
-72.74
-80.18
-87.49
-94.75
-101.99
-109.18
-116.10
-122.26
-126.91
-129.11
-128.04
-123.31
-115.26
-104.94
-93.80
-83.30
-74.40
-67.40
-62.00
-57.52
-53.13
-48.11
-41.92
-34.22
-24.94
-14.38
-3.08
8.20
18.70
27.85
35.41
41.43
46.27
50.39
54.32
58.38
62.67
66.93
70.68
73.43
74.92
75.23
74.80
74.13
73.67
73.56
73.66
73.59
72.95
71.41
68.81
65.21
60.88
56.18
51.55
47.25
43.36
39.74
36.12
32.26
28.01
23.53
19.21
15.62
13.36
12.81
14.01
16.54
19.64
22.45
24.30
24.83
24.12
22.36
19.75
16.29
11.94
6.74
1.01
-4.60
-9.32
-12.43
-13.56
-12.72
-10.32
-6.97
-3.26
0.37
3.61
6.23
8.00
8.65
7.94
5.77
2.24
-2.30
-7.32
-12.33
-16.96
-21.06
-24.77
-28.37
-32.15
-36.29
-40.70
-45.04
-48.76
-51.42
-52.79
-53.03
-52.60
-51.99
-51.52
-51.10
-50.26
-48.29
-44.47
-38.44
-30.31
-20.74
-10.81
-1.75
5.37
9.87
11.67
11.20
9.22
6.54
3.82
1.38
-0.72
-2.57
-4.29
-5.87
-7.18
-8.08
-8.53
-8.64
-8.69
-8.98
-9.71
-10.90
-12.29
-13.39
-13.64
-12.58
-10.06
-6.32
-1.98
2.21
5.57
7.70
8.60
8.58
8.05
7.48
7.20
7.42
8.12
9.16
10.17
10.65
10.10
8.27
5.35
2.06
-0.44
-0.87
1.72
7.59
16.15
26.08
35.78
43.89
49.69
53.25
55.28
56.78
58.61
61.27
64.74
68.62
72.29
75.01
76.09
74.88
71.02
64.51
55.84
45.98
36.08
27.19
19.94
14.37
10.07
6.39
2.85
-0.77
-4.37
-7.70
-10.62
-13.19
-15.76
-18.80
-22.66
-27.42
-32.75
-38.07
-42.74
-46.32
-48.68
-50.15
-51.28
-52.71
-54.86
-57.88
-61.42
-64.69
-66.60
-66.06
-62.37
-55.44
-45.95
-35.07
-24.18
-14.40
-6.40
-0.28
4.23
7.62
10.39
12.96
15.62
18.51
21.60
24.73
27.61
30.00
31.72
32.79
33.37
33.70
33.97
34.29
34.59
34.63
34.10
32.62
29.94
25.96
20.80
14.86
8.66
2.76
-2.41
-6.64
-9.98
-12.60
-14.66
-16.36
-17.77
-18.96
-20.02
-21.05
-22.20
-23.70
-25.83
-28.92
-33.25
-38.81
-45.14
-51.26
-55.85
-57.72
-56.20
-51.50
-44.57
-36.86
-29.70
-24.02
-20.13
-17.88
-16.79
-16.32
-15.99
-15.37
-14.19
-12.29
-9.75
-6.81
-3.82
-1.05
1.40
3.63
5.94
8.65
11.99
15.99
20.44
24.88
28.80
31.75
33.53
34.22
34.16
33.75
33.33
32.97
32.55
31.82
30.59
28.83
26.70
24.38
21.92
19.18
15.82
11.41
5.62
-1.62
-9.96
-18.61
-26.46
-32.21
-34.78
-33.56
-28.66
-20.95
-11.84
-2.90
4.61
10.01
13.27
14.89
15.61
16.19
17.15
18.70
20.76
23.04
25.21
26.99
28.23
28.90
29.07
28.87
28.42
27.87
27.39
27.07
26.92
26.77
26.28
25.10
22.93
19.71
15.51
10.51
4.86
-1.27
-7.69
-14.13
-20.25
-25.73
-30.32
-33.87
-36.32
-37.68
-37.97
-37.33
-36.13
-34.97
-34.64
-35.78
-38.62
-42.76
-47.14
-50.45
-51.54
-49.82
-45.44
-39.11
-31.91
-24.83
-18.69
-13.88
-10.44
-8.04
-6.15
-4.22
-1.89
0.82
3.58
5.89
7.41
8.14
8.51
9.22
10.96
14.18
18.97
25.10
32.13
39.53
46.79
53.48
59.26
63.91
67.41
69.88
71.63
73.05
74.55
76.33
78.29
80.03
80.87
80.14
77.38
72.50
65.86
58.12
49.97
41.98
34.43
27.26
20.18
12.72
4.38
-5.27
-16.39
-28.72
-41.45
-53.21
-62.39
-67.44
-67.42
-62.33
-53.10
-41.42
-29.13
-17.78
-8.25
-0.66
5.41
10.64
15.54
20.38
25.10
29.49
33.32
36.48
39.01
40.97
42.40
43.22
43.20
42.07
39.59
35.67
30.38
23.96
16.75
9.22
1.91
-4.50
-9.33
-11.99
-12.21
-10.18
-6.50
-2.09
2.10
5.30
7.06
7.27
6.10
4.00
1.48
-0.86
-2.61
-3.62
-4.08
-4.47
-5.40
-7.37
-10.68
-15.24
-20.57
-25.87
-30.16
-32.39
-31.85
-28.32
-22.32
-14.99
-7.84
-2.24
0.98
1.78
0.80
-0.99
-2.72
-3.96
-4.75
-5.44
-6.39
-7.75
-9.36
-11.00
-12.50
-13.87
-15.29
-16.97
-18.94
-20.95
-22.47
-22.86
-21.59
-18.46
-13.69
-7.89
-1.89
3.55
7.94
11.13
13.22
14.48
15.15
15.39
15.34
15.09
14.70
14.16
13.39
12.26
10.61
8.40
5.63
2.36
-1.32
-5.37
-9.75
-14.46
-19.42
-24.44
-29.06
-32.59
-34.15
-32.89
-28.35
-20.74
-10.95
-0.32
9.78
18.39
25.13
30.23
34.24
37.81
41.41
45.25
49.25
53.05
56.19
58.18
58.74
57.82
55.65
52.62
49.14
45.47
41.78
38.12
34.55
31.16
28.02
25.12
22.40
19.76
17.16
14.66
12.40
10.47
8.86
7.37
5.71
3.63
1.04
-1.98
-5.21
-8.45
-11.63
-14.86
-18.33
-22.18
-26.41
-30.82
-35.11
-38.98
-42.26
-45.00
-47.48
-50.13
-53.38
-57.56
-62.61
-67.99
-72.71
-75.52
-75.24
-71.22
-63.56
-53.12
-41.26
-29.40
-18.66
-9.55
-2.04
4.31
10.03
15.51
20.94
26.19
31.04
35.32
38.93
42.00
44.66
46.98
48.87
50.17
50.70
50.47
49.60
48.33
46.83
45.11
43.02
40.36
37.09
33.35
29.50
25.94
22.93
20.58
18.72
17.07
15.36
13.38
11.05
8.44
5.70
2.99
0.49
-1.77
-3.88
-6.10
-8.79
-12.24
-16.54
-21.50
-26.71
-31.66
-35.98
-39.53
-42.51
-45.34
-48.51
-52.43
-57.21
-62.52
-67.58
-71.33
-72.68
-70.92
-65.93
-58.30
-49.09
-39.61
-30.97
-23.85
-18.40
-14.25
-10.73
-7.13
-2.93
2.08
7.66
13.30
18.47
22.79
26.20
28.91
31.24
33.42
35.50
37.38
38.91
39.96
40.52
40.57
40.05
38.84
36.84
34.09
30.85
27.56
24.68
22.40
20.68
19.14
17.36
15.08
12.35
9.53
7.05
5.18
3.83
2.54
0.82
-1.71
-5.05
-8.86
-12.63
-15.91
-18.56
-20.77
-22.93
-25.55
-28.98
-33.41
-38.77
-44.67
-50.44
-55.13
-57.67
-57.17
-53.23
-46.13
-36.82
-26.73
-17.25
-9.41
-3.60
0.46
3.46
6.19
9.21
12.76
16.81
21.06
25.21
29.04
32.42
35.32
37.78
39.86
41.67
43.34
45.05
46.95
49.13
51.48
53.76
55.55
56.50
56.43
55.39
53.67
51.61
49.47
47.32
45.07
42.55
39.71
36.59
33.31
30.00
26.70
23.37
20.01
16.69
13.54
10.69
8.21
6.01
3.95
1.89
-0.27
-2.50
-4.77
-7.02
-9.27
-11.54
-13.85
-16.12
-18.25
-20.05
-21.29
-21.72
-21.15
-19.50
-17.00
-14.08
-11.30
-9.04
-7.34
-5.82
-3.92
-1.24
2.18
5.76
8.67
10.20
10.04
8.41
5.81
2.83
-0.09
-2.67
-4.70
-6.00
-6.37
-5.76
-4.28
-2.31
-0.29
1.34
2.34
2.72
2.65
2.34
1.88
1.26
0.32
-1.15
-3.35
-6.30
-9.88
-13.85
-17.91
-21.83
-25.56
-29.24
-33.02
-37.01
-41.08
-44.92
-48.10
-50.35
-51.64
-52.23
-52.58
-53.19
-54.41
-56.43
-59.22
-62.54
-65.89
-68.51
-69.47
-67.89
-63.26
-55.76
-46.27
-36.09
-26.48
-18.27
-11.68
-6.43
-2.03
1.94
5.68
9.27
12.74
16.17
19.57
22.80
25.64
27.78
29.11
29.83
30.32
30.98
31.99
33.21
34.24
34.65
34.16
32.82
30.94
28.89
26.97
25.31
23.82
22.32
20.65
18.77
16.74
14.66
12.61
10.59
8.50
6.21
3.64
0.78
-2.27
-5.41
-8.52
-11.60
-14.65
-17.70
-20.80
-24.01
-27.40
-31.13
-35.23
-39.51
-43.46
-46.20
-46.79
-44.56
-39.43
-32.03
-23.62
-15.59
-9.02
-4.39
-1.51
0.22
1.39
2.44
3.54
4.65
5.77
6.88
8.05
9.26
10.43
11.36
11.91
12.03
11.82
11.46
11.15
10.93
10.80
10.61
10.26
9.68
8.86
7.81
6.56
5.13
3.58
2.04
0.69
-0.31
-0.88
-1.05
-1.02
-1.07
-1.48
-2.44
-4.01
-6.09
-8.49
-10.94
-13.21
-15.10
-16.57
-17.77
-19.02
-20.80
-23.50
-27.23
-31.60
-35.76
-38.54
-38.96
-36.51
-31.48
-24.77
-17.59
-11.00
-5.67
-1.73
0.99
2.82
4.07
5.00
5.75
6.45
7.23
8.18
9.38
10.85
12.51
14.24
15.86
17.26
18.41
19.37
20.29
21.24
22.18
22.90
23.13
22.67
21.49
19.76
17.76
15.77
13.97
12.44
11.14
9.98
8.77
7.35
5.53
3.24
0.52
-2.44
-5.37
-8.07
-10.49
-12.83
-15.42
-18.62
-22.70
-27.68
-33.29
-38.90
-43.61
-46.40
-46.43
-43.37
-37.58
-30.02
-22.00
-14.75
-9.00
-4.92
-2.17
-0.15
1.69
3.75
6.17
8.87
11.60
14.11
16.20
17.77
18.90
19.71
20.33
20.81
21.09
21.11
20.87
20.52
20.25
20.23
20.43
20.66
20.56
19.83
18.31
16.13
13.58
11.02
8.73
6.82
5.20
3.68
2.05
0.13
-2.09
-4.58
-7.17
-9.66
-11.94
-13.99
-15.98
-18.15
-20.79
-24.16
-28.37
-33.33
-38.69
-43.82
-47.81
-49.69
-48.71
-44.61
-37.89
-29.60
-21.17
-13.82
-8.30
-4.65
-2.43
-0.89
0.59
2.43
4.68
7.24
9.87
12.34
14.49
16.26
17.68
18.85
19.93
21.04
22.28
23.68
25.16
26.56
27.63
28.12
27.84
26.77
25.10
23.12
21.13
19.30
17.65
16.04
14.33
12.46
10.48
8.47
6.50
4.52
2.37
-0.08
-2.85
-5.83
-8.76
-11.41
-13.66
-15.56
-17.30
-19.15
-21.39
-24.32
-28.15
-32.96
-38.46
-43.92
-48.24
-50.21
-48.98
-44.46
-37.37
-29.06
-20.95
-14.07
-8.81
-4.99
-2.13
0.27
2.54
4.85
7.28
9.91
12.78
15.86
18.98
21.92
24.49
26.62
28.37
29.86
31.22
32.47
33.57
34.43
34.94
35.02
34.60
33.67
32.21
30.26
27.86
25.09
22.11
19.11
16.36
14.06
12.30
10.98
9.79
8.36
6.44
3.99
1.26
-1.45
-3.87
-5.99
-8.07
-10.50
-13.69
-17.86
-22.95
-28.55
-33.95
-38.19
-40.26
-39.40
-35.33
-28.45
-19.80
-10.76
-2.63
3.69
7.99
10.61
12.21
13.44
14.74
16.21
17.75
19.22
20.53
21.73
22.91
24.11
25.38
26.70
28.02
29.28
30.40
31.26
31.74
31.71
31.16
30.13
28.74
27.10
25.26
23.21
20.90
18.30
15.45
12.48
9.59
6.96
4.72
2.93
1.48
0.18
-1.22
-2.95
-5.17
-7.85
-10.82
-13.84
-16.66
-19.21
-21.63
-24.22
-27.32
-31.21
-35.79
-40.62
-44.88
-47.55
-47.73
-44.93
-39.32
-31.74
-23.54
-16.06
-10.22
-6.31
-3.94
-2.35
-0.74
1.37
4.09
7.23
10.46
13.54
16.27
18.63
20.56
22.02
23.04
23.67
24.07
24.46
25.03
25.82
26.69
27.28
27.20
26.19
24.29
21.84
19.31
17.12
15.38
13.88
12.24
10.12
7.48
4.55
1.76
-0.52
-2.14
-3.25
-4.23
-5.50
-7.38
-9.93
-12.99
-16.18
-19.11
-21.50
-23.27
-24.58
-25.84
-27.52
-30.07
-33.68
-38.14
-42.82
-46.71
-48.72
-48.02
-44.35
-38.17
-30.58
-22.89
-16.24
-11.21
-7.79
-5.53
-3.79
-2.04
0.03
2.51
5.34
8.34
11.31
14.02
16.29
18.02
19.22
19.99
20.49
20.88
21.30
21.76
22.23
22.61
22.78
22.59
22.03
21.13
20.10
19.18
18.55
18.31
18.34
18.37
18.12
17.35
16.03
14.30
12.43
10.66
9.17
7.91
6.68
5.18
3.16
0.55
-2.51
-5.72
-8.69
-11.17
-13.11
-14.73
-16.48
-18.88
-22.29
-26.70
-31.61
-36.08
-38.94
-39.23
-36.49
-30.99
-23.63
-15.61
-8.05
-1.70
3.19
6.79
9.45
11.58
13.44
15.20
16.90
18.55
20.14
21.66
23.13
24.54
25.93
27.25
28.49
29.56
30.38
30.88
30.99
30.67
29.90
28.74
27.25
25.55
23.71
21.79
19.80
17.76
15.66
13.56
11.50
9.47
7.45
5.43
3.37
1.36
-0.51
-2.20
-3.74
-5.34
-7.21
-9.50
-12.22
-15.26
-18.58
-22.26
-26.54
-31.63
-37.40
-43.20
-47.91
-50.31
-49.52
-45.42
-38.73
-30.69
-22.66
-15.62
-10.03
-5.85
-2.75
-0.31
1.80
3.85
5.95
8.15
10.36
12.45
14.28
15.78
17.01
18.06
19.08
20.16
21.32
22.53
23.66
24.57
25.03
24.80
23.71
21.72
19.02
15.97
12.99
10.42
8.42
6.95
5.84
4.94
4.14
3.37
2.60
1.76
0.73
-0.61
-2.34
-4.48
-6.98
-9.72
-12.57
-15.42
-18.20
-20.86
-23.44
-26.06
-28.93
-32.23
-36.03
-39.99
-43.42
-45.33
-44.78
-41.29
-35.05
-26.99
-18.43
-10.60
-4.32
0.16
3.12
5.06
6.50
7.84
9.31
11.00
12.88
14.80
16.61
18.16
19.39
20.30
20.98
21.50
21.93
22.32
22.76
23.30
23.96
24.65
25.16
25.23
24.73
23.67
22.24
20.71
19.29
17.99
16.67
15.13
13.20
10.93
8.49
6.15
4.07
2.24
0.46
-1.55
-4.05
-7.10
-10.55
-14.09
-17.36
-20.13
-22.37
-24.31
-26.31
-28.82
-32.14
-36.33
-41.04
-45.55
-48.88
-50.06
-48.42
-43.89
-37.05
-29.00
-20.98
-14.02
-8.68
-4.92
-2.31
-0.28
1.63
3.63
5.74
7.89
10.03
12.16
14.30
16.33
18.08
19.33
19.98
20.13
20.07
20.10
20.39
20.92
21.51
21.90
21.95
21.60
20.88
19.81
18.37
16.52
14.34
11.95
9.59
7.40
5.47
3.72
2.04
0.31
-1.49
-3.33
-5.15
-6.92
-8.63
-10.31
-11.99
-13.72
-15.55
-17.56
-19.89
-22.72
-26.14
-30.03
-33.94
-37.10
-38.59
-37.69
-34.10
-28.17
-20.79
-13.13
-6.19
-0.64
3.40
6.15
8.04
9.43
10.58
11.59
12.50
13.39
14.32
15.37
16.53
17.72
18.78
19.57
20.03
20.22
20.34
20.58
21.07
21.74
22.37
22.61
22.13
20.74
18.54
15.84
13.09
10.67
8.73
7.15
5.59
3.67
1.18
-1.86
-5.19
-8.47
-11.38
-13.78
-15.73
-17.43
-19.22
-21.48
-24.54
-28.56
-33.36
-38.38
-42.64
-45.04
-44.67
-41.15
-34.86
-26.84
-18.47
-10.95
-4.99
-0.70
2.30
4.52
6.41
8.21
9.93
11.55
13.02
14.32
15.43
16.31
16.90
17.20
17.28
17.26
17.25
17.37
17.70
18.25
18.99
19.82
20.54
20.91
20.70
19.75
18.06
15.86
13.44
11.12
9.09
7.29
5.54
3.54
1.10
-1.82
-5.02
-8.13
-10.82
-12.82
-14.12
-14.99
-15.89
-17.34
-19.81
-23.51
-28.30
-33.67
-38.73
-42.40
-43.65
-41.90
-37.15
-30.10
-21.91
-13.88
-7.03
-1.88
1.59
3.80
5.32
6.59
7.87
9.26
10.68
12.08
13.42
14.70
15.93
17.09
18.15
19.03
19.67
20.09
20.34
20.48
20.52
20.39
19.95
19.02
17.51
15.44
12.96
10.35
7.91
5.83
4.18
2.84
1.57
0.14
-1.62
-3.70
-5.97
-8.25
-10.45
-12.52
-14.58
-16.69
-18.97
-21.47
-24.31
-27.68
-31.78
-36.67
-42.07
-47.26
-51.11
-52.52
-50.71
-45.63
-38.00
-29.11
-20.37
-12.91
-7.30
-3.49
-1.02
0.73
2.25
3.81
5.51
7.33
9.22
11.15
13.08
14.88
16.39
17.46
18.04
18.29
18.49
18.96
19.88
21.20
22.63
23.76
24.24
23.91
22.82
21.18
19.29
17.38
15.56
13.80
11.93
9.79
7.33
4.58
1.72
-1.06
-3.64
-6.00
-8.23
-10.51
-13.00
-15.86
-19.22
-23.13
-27.44
-31.70
-35.17
-36.90
-36.09
-32.38
-26.06
-18.06
-9.69
-2.13
3.85
8.06
10.85
12.77
14.33
15.81
17.22
18.45
19.41
20.09
20.59
21.00
21.36
21.64
21.77
21.70
21.49
21.22
21.01
20.92
20.89
20.73
20.17
19.00
17.08
14.46
11.34
7.95
4.47
0.99
-2.61
-6.50
-10.88
-15.82
-21.21
-26.73
-31.97
-36.58
-40.34
-43.29
-45.68
-47.88
-50.24
-52.97
-56.04
-59.10
-61.47
-62.25
-60.48
-55.50
-47.31
-36.74
-25.33
-14.78
-6.41
-0.58
3.36
6.67
10.64
15.95
22.42
29.24
35.39
40.17
43.43
45.55
47.15
48.83
50.92
53.39
55.77
57.19
56.46
52.34
43.98
31.33
15.39
-2.01
-18.61
-32.33
-41.69
-46.00
-45.23
-39.95
-31.15
-20.18
-8.65
1.83
10.03
15.42
18.20
19.17
19.28
19.30
19.59
20.05
20.17
19.26
16.67
12.09
5.82
-1.14
-7.29
-11.11
-11.58
-8.55
-2.82
4.31
11.59
18.21
23.86
28.39
31.44
32.32
30.37
25.43
18.24
10.25
3.16
-1.83
-4.51
-5.51
-5.98
-6.90
-8.76
-11.48
-14.69
-18.01
-21.23
-24.39
-27.53
-30.63
-33.58
-36.14
-38.11
-39.45
-40.34
-41.07
-41.86
-42.61
-42.80
-41.58
-38.04
-31.61
-22.38
-11.19
0.54
11.06
18.82
22.82
22.94
19.88
15.09
10.27
7.03
6.47
9.06
14.52
22.00
30.29
38.10
44.34
48.32
49.95
49.57
47.83
45.42
42.82
40.20
37.51
34.70
31.85
29.24
27.24
26.11
25.71
25.61
25.23
24.28
23.06
22.49
23.72
27.61
34.27
42.93
52.30
61.17
68.82
75.23
80.73
85.56
89.55
92.01
92.15
89.43
83.97
76.46
67.92
59.22
50.70
42.18
33.12
23.11
12.25
1.30
-8.53
-16.06
-20.62
-22.40
-22.29
-21.62
-21.53
-22.61
-24.80
-27.58
-30.32
-32.57
-34.20
-35.31
-36.09
-36.68
-37.10
-37.29
-37.14
-36.49
-35.21
-33.19
-30.44
-27.13
-23.61
-20.34
-17.73
-16.01
-15.15
-14.85
-14.73
-14.53
-14.16
-13.84
-13.84
-14.36
-15.39
-16.66
-17.91
-18.97
-20.08
-21.65
-24.12
-27.60
-31.80
-36.14
-40.05
-43.22
-45.62
-47.37
-48.38
-48.28
-46.51
-42.64
-36.73
-29.44
-21.87
-15.07
-9.66
-5.64
-2.52
0.36
3.47
6.89
10.40
13.61
16.24
18.22
19.71
20.92
22.02
23.08
24.02
24.78
25.28
25.50
25.40
24.89
23.90
22.39
20.39
18.02
15.48
12.96
10.57
8.32
6.11
3.81
1.35
-1.29
-4.03
-6.72
-9.22
-11.49
-13.62
-15.84
-18.39
-21.38
-24.61
-27.50
-29.27
-29.15
-26.77
-22.29
-16.42
-10.16
-4.48
0.01
3.14
5.13
6.43
7.44
8.43
9.48
10.61
11.73
12.74
13.50
13.88
13.82
13.43
13.03
13.10
14.04
16.00
18.73
21.61
23.83
24.77
24.14
22.13
19.24
16.08
13.11
10.59
8.51
6.61
4.62
2.28
-0.49
-3.62
-6.88
-10.04
-12.97
-15.72
-18.47
-21.52
-24.99
-28.83
-32.69
-35.98
-38.05
-38.44
-36.96
-33.84
-29.65
-25.06
-20.70
-16.93
-13.82
-11.23
-8.92
-6.71
-4.47
-2.21
0.06
2.32
4.62
7.04
9.62
12.32
15.02
17.48
19.51
20.99
21.88
22.20
21.99
21.19
19.76
17.70
15.10
12.18
9.18
6.28
3.49
0.72
-2.14
-5.16
-8.26
-11.32
-14.21
-16.87
-19.37
-21.89
-24.65
-27.86
-31.57
-35.55
-39.31
-42.14
-43.34
-42.51
-39.67
-35.29
-30.14
-24.99
-20.46
-16.87
-14.23
-12.35
-10.92
-9.67
-8.36
-6.89
-5.24
-3.43
-1.56
0.31
2.13
3.80
5.29
6.60
7.83
9.13
10.63
12.30
13.92
15.11
15.48
14.84
13.23
10.97
8.42
5.89
3.55
1.39
-0.67
-2.70
-4.72
-6.72
-8.60
-10.31
-11.74
-12.87
-13.77
-14.63
-15.83
-17.73
-20.67
-24.61
-29.05
-33.08
-35.58
-35.63
-32.79
-27.33
-20.14
-12.41
-5.27
0.58
4.98
8.27
10.93
13.40
15.80
18.02
19.81
20.99
21.52
21.54
21.32
21.15
21.24
21.71
22.52
23.59
24.68
25.54
25.92
25.74
25.03
23.92
22.53
20.93
19.10
17.06
14.97
13.06
11.55
10.45
9.51
8.28
6.33
3.46
-0.19
-4.19
-7.98
-11.10
-13.30
-14.55
-15.03
-14.99
-14.73
-14.59
-14.91
-16.04
-18.18
-21.28
-24.83
-27.94
-29.48
-28.49
-24.54
-17.99
-9.97
-1.95
4.68
9.10
11.18
11.40
10.59
9.56
8.93
9.01
9.87
11.36
13.21
15.02
16.41
17.02
16.55
14.90
12.14
8.60
4.76
1.24
-1.40
-2.82
-3.04
-2.52
-1.98
-2.25
-3.92
-7.17
-11.69
-16.83
-21.87
-26.26
-29.84
-32.76
-35.28
-37.58
-39.62
-41.10
-41.58
-40.69
-38.29
-34.58
-30.07
-25.60
-22.16
-20.63
-21.57
-24.88
-29.76
-34.81
-38.47
-39.50
-37.40
-32.53
-25.94
-18.98
-12.87
-8.46
-6.07
-5.64
-6.79
-8.94
-11.44
-13.61
-14.84
-14.69
-12.93
-9.56
-4.84
0.82
6.82
12.49
17.22
20.57
22.44
23.09
23.04
22.82
22.76
22.85
22.82
22.34
21.27
19.78
18.24
17.04
16.38
16.16
16.11
15.91
15.37
14.48
13.32
11.96
10.42
8.67
6.68
4.42
1.88
-1.06
-4.54
-8.76
-13.91
-19.98
-26.69
-33.45
-39.33
-43.31
-44.52
-42.53
-37.58
-30.55
-22.74
-15.45
-9.64
-5.67
-3.35
-2.09
-1.29
-0.45
0.65
2.05
3.62
5.23
6.75
8.13
9.32
10.28
11.00
11.46
11.73
11.87
11.95
12.01
11.95
11.63
10.86
9.54
7.70
5.51
3.24
1.08
-0.86
-2.69
-4.62
-6.91
-9.70
-12.94
-16.38
-19.69
-22.62
-25.19
-27.68
-30.59
-34.37
-39.23
-44.98
-50.95
-56.16
-59.51
-60.04
-57.18
-50.94
-41.95
-31.35
-20.46
-10.42
-1.89
5.06
10.78
15.77
20.37
24.65
28.45
31.63
34.17
36.25
38.13
40.01
41.88
43.59
44.85
45.44
45.33
44.64
43.61
42.43
41.15
39.63
37.62
34.92
31.53
27.73
23.98
20.68
18.04
15.90
13.89
11.62
8.93
5.95
2.98
0.33
-1.89
-3.77
-5.55
-7.55
-10.10
-13.51
-18.05
-23.77
-30.38
-37.04
-42.45
-45.18
-44.23
-39.41
-31.52
-22.09
-12.83
-5.04
0.72
4.63
7.40
9.79
12.31
15.12
18.10
21.03
23.69
25.97
27.85
29.35
30.52
31.40
32.05
32.57
33.09
33.74
34.58
35.50
36.30
36.67
36.29
34.91
32.48
29.15
25.28
21.37
17.87
15.10
13.09
11.60
10.16
8.31
5.77
2.52
-1.18
-4.92
-8.34
-11.20
-13.53
-15.50
-17.43
-19.70
-22.74
-26.92
-32.41
-38.98
-45.83
-51.64
-54.82
-54.12
-49.10
-40.34
-29.34
-17.94
-7.74
0.39
6.44
10.97
14.75
18.44
22.35
26.52
30.77
34.84
38.48
41.49
43.78
45.32
46.23
46.64
46.77
46.77
46.79
46.90
47.15
47.44
47.57
47.25
46.26
44.49
42.08
39.37
36.71
34.38
32.53
31.17
30.28
29.81
29.66
29.52
28.87
27.07
23.55
18.09
10.90
2.60
-6.04
-14.36
-21.95
-28.75
-34.95
-40.89
-46.96
-53.46
-60.51
-67.85
-74.83
-80.43
-83.48
-83.09
-78.99
-71.75
-62.61
-53.15
-44.73
-38.10
-33.30
-29.82
-26.90
-23.92
-20.51
-16.55
-12.12
-7.38
-2.60
1.86
5.60
8.26
9.70
10.15
10.18
10.68
12.46
16.07
21.50
28.06
34.64
40.04
43.42
44.53
43.71
41.61
38.77
35.39
31.36
26.48
20.72
14.46
8.35
3.23
-0.29
-1.84
-1.37
0.81
4.16
7.92
11.32
13.77
15.14
15.83
16.69
18.57
21.98
26.76
32.21
37.28
41.03
42.92
42.81
40.94
37.65
33.30
28.26
22.95
17.87
13.52
10.31
8.36
7.48
7.20
6.97
6.37
5.24
3.72
2.04
0.40
-1.20
-3.00
-5.35
-8.49
-12.41
-16.79
-21.07
-24.70
-27.27
-28.70
-29.25
-29.36
-29.43
-29.62
-29.84
-29.83
-29.33
-28.34
-27.15
-26.27
-26.29
-27.61
-30.37
-34.24
-38.53
-42.26
-44.38
-44.07
-40.96
-35.34
-28.05
-20.22
-12.93
-6.90
-2.31
1.10
3.81
6.27
8.72
11.14
13.36
15.17
16.48
17.36
18.04
18.77
19.76
21.06
22.58
24.15
25.59
26.79
27.68
28.19
28.18
27.50
26.03
23.80
21.08
18.26
15.80
14.01
12.94
12.39
12.01
11.40
10.28
8.60
6.48
4.25
2.18
0.45
-1.04
-2.60
-4.75
-8.00
-12.59
-18.36
-24.53
-29.97
-33.36
-33.75
-30.79
-24.92
-17.22
-8.97
-1.27
5.30
10.72
15.35
19.74
24.34
29.43
35.05
41.06
47.18
53.01
58.27
62.81
66.73
70.25
73.55
76.57
78.98
80.23
79.83
77.56
73.62
68.56
63.13
57.97
53.49
49.79
46.68
43.75
40.58
36.81
32.29
27.12
21.55
15.91
10.44
5.28
0.46
-4.01
-8.13
-11.88
-15.31
-18.53
-21.82
-25.50
-29.88
-35.11
-41.14
-47.61
-53.88
-59.10
-62.38
-63.02
-60.78
-56.02
-49.63
-42.74
-36.44
-31.37
-27.67
-25.06
-23.06
-21.20
-19.22
-17.02
-14.66
-12.21
-9.76
-7.39
-5.18
-3.23
-1.60
-0.35
0.52
1.10
1.49
1.89
2.46
3.29
4.29
5.24
5.85
5.91
5.38
4.43
3.30
2.23
1.35
0.66
0.09
-0.40
-0.79
-1.11
-1.39
-1.71
-2.14
-2.67
-3.23
-3.74
-4.15
-4.49
-4.88
-5.44
-6.31
-7.62
-9.58
-12.37
-16.02
-20.16
-24.00
-26.51
-26.84
-24.80
-21.11
-17.17
-14.58
-14.52
-17.33
-22.44
-28.70
-34.71
-39.24
-41.43
-40.87
-37.56
-32.02
-25.05
-17.66
-10.87
-5.35
-1.41
1.09
2.55
3.45
4.22
5.07
6.06
7.17
8.32
9.47
10.60
11.72
12.85
14.01
15.28
16.68
18.16
19.59
20.75
21.47
21.62
21.15
20.08
18.46
16.32
13.70
10.63
7.15
3.32
-0.83
-5.30
-10.02
-14.93
-19.97
-25.08
-30.19
-35.14
-39.66
-43.32
-45.67
-46.43
-45.55
-43.35
-40.33
-37.09
-34.15
-31.84
-30.37
-29.74
-29.81
-30.15
-30.12
-28.99
-26.25
-21.84
-16.22
-10.23
-4.74
-0.35
2.82
4.95
6.45
7.64
8.68
9.59
10.36
11.00
11.57
12.22
13.05
14.10
15.38
16.80
18.25
19.60
20.76
21.68
22.37
22.79
22.92
22.60
21.68
20.03
17.66
14.76
11.68
8.88
6.76
5.54
5.17
5.28
5.34
4.78
3.21
0.48
-3.28
-7.79
-12.74
-17.94
-23.29
-28.72
-34.03
-38.74
-42.17
-43.50
-42.12
-37.85
-31.01
-22.39
-13.04
-3.96
4.04
10.48
15.12
17.84
18.64
17.61
15.00
11.29
7.10
3.05
-0.35
-2.78
-4.10
-4.26
-3.24
-1.13
1.92
5.66
9.77
13.95
18.03
21.95
25.65
29.02
31.87
34.03
35.46
36.33
36.99
37.77
38.78
39.83
40.43
40.07
38.43
35.52
31.74
27.67
23.81
20.41
17.42
14.63
11.75
8.65
5.32
1.92
-1.33
-4.05
-5.78
-6.02
-4.39
-0.96
3.71
8.53
12.26
13.92
13.11
10.13
5.76
0.89
-3.86
-8.17
-12.02
-15.46
-18.42
-20.72
-22.17
-22.69
-22.41
-21.64
-20.72
-19.87
-19.12
-18.32
-17.29
-15.90
-14.24
-12.53
-11.14
-10.38
-10.43
-11.19
-12.41
-13.70
-14.65
-14.99
-14.65
-13.70
-12.37
-10.87
-9.30
-7.69
-6.00
-4.23
-2.54
-1.16
-0.43
-0.59
-1.82
-4.10
-7.26
-10.96
-14.61
-17.45
-18.64
-17.59
-14.18
-8.87
-2.60
3.58
8.79
12.67
15.23
16.81
17.80
18.46
18.93
19.23
19.31
19.16
18.73
17.99
16.91
15.46
13.64
11.44
8.83
5.91
2.78
-0.33
-3.18
-5.57
-7.44
-8.84
-9.89
-10.71
-11.35
-11.75
-11.80
-11.38
-10.45
-9.16
-7.80
-6.75
-6.39
-6.88
-8.21
-10.16
-12.41
-14.63
-16.65
-18.40
-20.03
-21.73
-23.74
-26.24
-29.23
-32.46
-35.44
-37.51
-38.01
-36.53
-33.11
-28.25
-22.79
-17.63
-13.50
-10.76
-9.36
-8.97
-9.10
-9.28
-9.15
-8.49
-7.28
-5.61
-3.74
-1.91
-0.34
0.92
1.93
2.86
3.84
4.93
6.06
7.04
7.63
7.57
6.70
4.98
2.56
-0.15
-2.63
-4.30
-4.71
-3.76
-1.71
0.77
2.85
3.78
3.17
1.11
-1.85
-5.00
-7.70
-9.65
-10.88
-11.73
-12.62
-13.88
-15.60
-17.69
-19.87
-21.66
-22.56
-22.07
-19.95
-16.25
-11.44
-6.30
-1.66
1.78
3.69
4.16
3.64
2.74
2.06
2.05
2.90
4.59
6.97
9.81
12.97
16.44
20.27
24.49
29.05
33.82
38.54
42.93
46.71
49.70
51.84
53.14
53.73
53.77
53.43
52.82
51.95
50.78
49.21
47.20
44.84
42.30
39.76
37.29
34.78
31.95
28.42
23.95
18.49
12.32
5.95
0.06
-4.71
-7.95
-9.57
-9.81
-9.21
-8.47
-8.16
-8.67
-10.06
-12.13
-14.56
-17.09
-19.59
-22.02
-24.38
-26.56
-28.38
-29.64
-30.24
-30.25
-29.82
-29.20
-28.48
-27.68
-26.67
-25.44
-24.10
-22.90
-22.17
-22.05
-22.50
-23.26
-24.04
-24.67
-25.10
-25.44
-25.82
-26.30
-26.90
-27.58
-28.35
-29.24
-30.31
-31.64
-33.33
-35.47
-38.15
-41.35
-44.76
-47.82
-49.68
-49.59
-47.08
-42.25
-35.74
-28.52
-21.55
-15.46
-10.42
-6.20
-2.37
1.51
5.72
10.32
15.22
20.14
24.76
28.82
32.15
34.77
36.82
38.47
39.80
40.79
41.33
41.32
40.73
39.61
37.95
35.72
32.81
29.19
24.98
20.47
16.07
12.13
8.82
6.04
3.49
0.78
-2.43
-6.29
-10.74
-15.49
-20.11
-24.23
-27.64
-30.41
-32.89
-35.63
-39.11
-43.57
-48.84
-54.24
-58.77
-61.29
-60.84
-56.92
-49.70
-39.96
-28.92
-17.87
-7.97
0.05
5.92
9.80
12.16
13.63
14.87
16.37
18.35
20.76
23.34
25.77
27.81
29.32
30.38
31.16
31.86
32.71
33.85
35.36
37.13
38.90
40.27
40.82
40.23
38.41
35.46
31.69
27.44
23.02
18.63
14.28
9.84
5.13
0.05
-5.37
-10.91
-16.21
-20.92
-24.82
-27.94
-30.54
-33.03
-35.84
-39.24
-43.27
-47.67
-51.94
-55.30
-56.92
-56.04
-52.30
-45.86
-37.48
-28.30
-19.49
-11.91
-5.89
-1.21
2.61
6.04
9.29
12.27
14.78
16.65
17.91
18.88
20.00
21.68
24.16
27.44
31.35
35.71
40.45
45.68
51.60
58.27
65.41
72.36
78.16
81.86
82.80
80.88
76.58
70.77
64.35
58.05
52.21
46.76
41.39
35.62
29.08
21.55
13.09
4.02
-5.17
-14.01
-22.10
-29.22
-35.35
-40.68
-45.58
-50.47
-55.69
-61.26
-66.75
-71.29
-73.83
-73.50
-70.03
-63.85
-56.00
-47.75
-40.13
-33.71
-28.52
-24.24
-20.42
-16.71
-12.89
-8.90
-4.71
-0.36
4.14
8.72
13.28
17.67
21.77
25.51
28.87
31.86
34.54
36.94
39.06
40.86
42.23
43.03
43.15
42.57
41.42
40.01
38.72
37.91
37.77
38.22
38.97
39.66
39.92
39.59
38.70
37.46
36.15
35.03
34.22
33.56
32.69
30.98
27.82
22.69
15.29
5.69
-5.70
-18.04
-30.16
-40.65
-48.20
-51.92
-51.64
-48.06
-42.46
-36.31
-30.87
-26.78
-24.05
-22.26
-20.84
-19.35
-17.65
-15.82
-14.05
-12.50
-11.19
-9.99
-8.75
-7.37
-5.85
-4.34
-2.97
-1.93
-1.31
-1.24
-1.86
-3.33
-5.72
-8.97
-12.89
-17.20
-21.65
-26.02
-30.09
-33.69
-36.58
-38.63
-39.84
-40.47
-40.96
-41.83
-43.45
-45.97
-49.25
-52.89
-56.40
-59.28
-61.14
-61.75
-61.10
-59.42
-57.11
-54.63
-52.27
-50.01
-47.41
-43.74
-38.19
-30.23
-19.77
-7.30
6.33
20.13
33.24
45.07
55.34
64.00
71.14
76.98
81.76
85.82
89.46
92.91
96.28
99.55
102.54
105.04
106.83
107.76
107.79
107.02
105.58
103.61
101.07
97.68
93.02
86.51
77.79
66.78
53.83
39.66
25.20
11.38
-1.12
-11.91
-20.89
-28.18
-33.99
-38.50
-41.91
-44.40
-46.22
-47.67
-49.11
-50.89
-53.40
-56.92
-61.64
-67.43
-73.76
-79.70
-84.10
-86.01
-85.08
-81.67
-76.78
-71.52
-66.73
-62.68
-59.20
-55.89
-52.47
-48.83
-45.01
-41.04
-36.88
-32.47
-27.81
-23.00
-18.17
-13.42
-8.73
-3.98
0.88
5.81
10.61
14.99
18.70
21.55
23.47
24.55
24.89
24.67
24.08
23.33
22.54
21.77
20.90
19.70
17.95
15.61
12.87
10.22
8.20
7.17
7.08
7.42
7.33
6.00
3.05
-1.14
-5.36
-7.99
-7.47
-3.07
4.85
14.79
24.63
32.20
35.84
34.69
28.93
19.73
9.23
-0.04
-5.83
-6.82
-3.07
4.20
13.21
22.11
29.45
34.02
34.79
30.83
21.66
7.65
-9.73
-28.10
-44.80
-57.51
-64.82
-66.33
-62.54
-54.77
-44.86
-34.82
-26.37
-20.46
-17.20
-16.04
-16.30
-17.61
-19.95
-23.56
-28.52
-34.60
-41.21
-47.65
-53.29
-57.60
-60.10
-60.35
-58.07
-53.38
-46.93
-39.79
-33.15
-27.83
-24.00
-21.18
-18.55
-15.27
-10.81
-5.01
1.98
9.76
17.82
25.61
32.63
38.68
43.83
48.45
53.04
57.93
63.20
68.57
73.52
77.48
79.94
80.58
79.35
76.48
72.47
67.94
63.56
59.81
56.93
54.81
53.03
51.05
48.39
44.73
40.09
34.68
28.82
22.75
16.51
9.93
2.69
-5.42
-14.32
-23.50
-31.97
-38.50
-41.94
-41.64
-37.71
-31.00
-22.80
-14.46
-6.92
-0.61
4.49
8.63
12.10
15.10
17.68
19.83
21.45
22.45
22.69
22.13
20.85
19.05
17.04
15.17
13.67
12.71
12.41
12.82
14.01
15.87
18.16
20.47
22.30
23.26
23.21
22.29
20.90
19.43
18.14
17.03
15.92
14.68
13.28
12.00
11.22
11.26
12.16
13.53
14.72
15.02
13.87
11.00
6.41
0.40
-6.47
-13.39
-19.31
-23.19
-24.23
-22.21
-17.63
-11.59
-5.44
-0.32
3.17
5.01
5.64
5.65
5.52
5.51
5.69
6.01
6.44
6.94
7.53
8.24
9.07
10.02
11.01
11.96
12.74
13.19
13.19
12.70
11.84
10.80
9.79
8.90
8.05
7.07
5.78
4.15
2.34
0.62
-0.70
-1.46
-1.72
-1.70
-1.76
-2.22
-3.31
-5.08
-7.36
-9.83
-12.19
-14.18
-15.72
-16.95
-18.15
-19.66
-21.87
-25.11
-29.51
-34.90
-40.64
-45.67
-48.68
-48.56
-44.79
-37.77
-28.73
-19.36
-11.24
-5.29
-1.59
0.48
1.92
3.63
6.09
9.30
12.86
16.25
19.05
21.08
22.42
23.32
24.00
24.60
25.12
25.49
25.65
25.60
25.40
25.06
24.57
23.82
22.69
21.14
19.24
17.16
15.05
13.04
11.13
9.24
7.27
5.09
2.66
-0.04
-3.02
-6.31
-9.96
-13.97
-18.25
-22.56
-26.66
-30.40
-33.81
-37.20
-41.09
-45.98
-52.12
-59.28
-66.59
-72.77
-76.51
-76.96
-73.98
-68.29
-61.10
-53.66
-46.90
-41.13
-36.27
-31.98
-27.97
-24.16
-20.58
-17.40
-14.78
-12.92
-11.98
-12.07
-13.18
-15.17
-17.75
-20.62
-23.49
-26.20
-28.69
-30.96
-33.03
-34.90
-36.47
-37.61
-38.13
-37.80
-36.34
-33.47
-28.91
-22.47
-14.17
-4.30
6.60
17.70
28.19
37.33
44.63
49.83
52.94
54.15
53.73
52.04
49.46
46.28
42.63
38.48
33.61
27.74
20.65
12.33
3.03
-6.57
-15.44
-22.45
-26.55
-27.20
-24.53
-19.31
-12.73
-5.93
0.27
5.58
10.09
14.06
17.72
21.11
24.16
26.77
28.94
30.75
32.37
33.90
35.31
36.45
37.17
37.41
37.30
37.10
37.08
37.31
37.62
37.66
37.13
35.92
34.20
32.34
30.65
29.22
27.89
26.34
24.29
21.67
18.61
15.43
12.42
9.76
7.43
5.26
2.98
0.38
-2.67
-6.16
-9.95
-13.80
-17.40
-20.50
-22.97
-24.91
-26.66
-28.65
-31.34
-34.88
-39.05
-43.19
-46.35
-47.58
-46.21
-42.19
-36.05
-28.80
-21.59
-15.31
-10.42
-6.79
-4.01
-1.52
1.11
4.01
7.10
10.14
12.94
15.34
17.32
18.87
20.03
20.85
21.43
21.94
22.54
23.35
24.36
25.43
26.23
26.53
26.09
24.83
22.82
20.20
17.22
14.20
11.43
9.18
7.55
6.46
5.68
5.03
4.41
3.91
3.62
3.50
3.26
2.42
0.55
-2.47
-6.34
-10.41
-14.00
-16.72
-18.60
-20.13
-21.91
-24.47
-27.99
-32.24
-36.67
-40.46
-42.69
-42.54
-39.52
-33.66
-25.64
-16.60
-7.84
-0.45
5.07
8.76
11.15
12.87
14.45
16.20
18.11
20.09
22.01
23.74
25.26
26.58
27.76
28.84
29.88
30.92
31.95
32.99
33.97
34.73
34.99
34.48
32.98
30.49
27.24
23.65
20.22
17.34
15.18
13.69
12.61
11.66
10.54
9.06
7.15
4.78
2.02
-0.99
-4.06
-7.00
-9.72
-12.27
-14.91
-18.08
-22.20
-27.46
-33.63
-39.98
-45.40
-48.73
-49.18
-46.60
-41.55
-35.13
-28.60
-22.96
-18.76
-16.00
-14.31
-13.13
-11.91
-10.23
-7.89
-4.89
-1.49
1.93
5.00
7.43
9.12
10.15
10.66
10.86
10.95
11.16
11.71
12.79
14.42
16.44
18.51
20.18
21.05
20.93
19.87
18.18
16.27
14.55
13.22
12.30
11.54
10.59
9.10
6.92
4.12
0.97
-2.14
-4.90
-7.16
-9.01
-10.70
-12.59
-15.01
-18.20
-22.24
-27.00
-32.01
-36.45
-39.29
-39.52
-36.54
-30.49
-22.23
-13.17
-4.78
1.89
6.47
9.27
11.03
12.52
14.32
16.71
19.63
22.92
26.26
29.39
32.10
34.21
35.66
36.51
36.93
37.19
37.52
38.06
38.78
39.45
39.74
39.33
37.96
35.58
32.27
28.30
23.93
19.50
15.31
11.58
8.41
5.74
3.43
1.19
-1.26
-4.11
-7.50
-11.39
-15.65
-20.07
-24.42
-28.49
-32.16
-35.42
-38.39
-41.30
-44.47
-48.15
-52.42
-57.03
-61.28
-64.23
-64.86
-62.51
-57.14
-49.44
-40.62
-32.01
-24.64
-18.96
-14.79
-11.51
-8.44
-5.09
-1.32
2.67
6.59
10.14
13.15
15.59
17.51
18.99
20.14
21.06
21.87
22.68
23.55
24.43
25.23
25.85
26.16
26.04
25.39
24.12
22.24
19.89
17.28
14.71
12.34
10.21
8.24
6.29
4.29
2.21
0.07
-2.17
-4.54
-7.07
-9.67
-12.16
-14.34
-16.15
-17.79
-19.72
-22.44
-26.35
-31.47
-37.43
-43.46
-48.50
-51.52
-51.75
-48.95
-43.55
-36.52
-29.16
-22.61
-17.51
-13.93
-11.38
-9.19
-6.83
-4.06
-0.97
2.17
5.09
7.64
9.79
11.59
13.10
14.32
15.25
15.88
16.27
16.45
16.53
16.53
16.45
16.16
15.50
14.27
12.36
9.82
6.82
3.62
0.48
-2.54
-5.52
-8.72
-12.31
-16.29
-20.43
-24.31
-27.50
-29.73
-30.96
-31.45
-31.63
-32.03
-33.15
-35.29
-38.51
-42.46
-46.45
-49.48
-50.52
-48.81
-44.17
-37.06
-28.48
-19.67
-11.69
-5.14
-0.05
3.97
7.47
10.90
14.42
17.90
21.02
23.53
25.27
26.37
27.10
27.80
28.68
29.80
30.99
31.99
32.61
32.74
32.46
31.88
31.09
30.06
28.68
26.80
24.37
21.45
18.23
14.96
11.91
9.23
7.02
5.28
3.95
2.89
1.95
0.94
-0.23
-1.58
-3.06
-4.55
-5.98
-7.37
-8.89
-10.80
-13.41
-16.86
-21.07
-25.53
-29.47
-31.90
-31.98
-29.27
-23.97
-16.88
-9.23
-2.25
3.22
6.94
9.24
10.77
12.26
14.13
16.47
19.15
21.86
24.33
26.36
27.84
28.71
28.98
28.69
28.03
27.23
26.55
26.21
26.26
26.58
26.87
26.86
26.31
25.19
23.64
21.91
20.24
18.71
17.26
15.74
14.01
12.04
9.96
7.95
6.15
4.61
3.28
2.03
0.71
-0.73
-2.36
-4.17
-6.21
-8.47
-10.95
-13.51
-16.02
-18.40
-20.81
-23.56
-27.02
-31.26
-35.85
-39.85
-42.10
-41.68
-38.33
-32.62
-25.69
-18.82
-12.98
-8.56
-5.42
-3.11
-1.14
0.91
3.20
5.83
8.80
12.01
15.28
18.40
21.15
23.42
25.21
26.62
27.80
28.81
29.70
30.39
30.80
30.82
30.34
29.29
27.65
25.56
23.25
21.00
19.06
17.58
16.52
15.66
14.74
13.52
11.92
10.05
8.16
6.54
5.35
4.44
3.51
2.16
0.12
-2.60
-5.76
-8.92
-11.73
-13.96
-15.64
-17.02
-18.51
-20.57
-23.57
-27.62
-32.42
-37.24
-41.08
-42.92
-42.09
-38.49
-32.67
-25.65
-18.61
-12.45
-7.62
-3.97
-1.02
1.88
5.18
9.00
13.14
17.22
20.91
24.03
26.65
28.94
31.15
33.36
35.50
37.30
38.47
38.81
38.28
37.10
35.62
34.16
32.96
32.02
31.22
30.38
29.43
28.46
27.71
27.38
27.48
27.82
28.08
27.85
26.88
25.07
22.54
19.52
16.26
12.93
9.61
6.27
2.81
-0.91
-5.03
-9.69
-14.90
-20.52
-26.12
-31.00
-34.36
-35.50
-34.12
-30.45
-25.30
-19.67
-14.55
-10.56
-7.87
-6.29
-5.38
-4.66
-3.80
-2.70
-1.44
-0.24
0.70
1.28
1.58
1.80
2.14
2.73
3.56
4.49
5.32
5.89
6.09
5.87
5.30
4.48
3.56
2.69
1.94
1.34
0.77
0.16
-0.61
-1.53
-2.51
-3.42
-4.09
-4.46
-4.63
-4.86
-5.47
-6.67
-8.41
-10.40
-12.23
-13.60
-14.55
-15.43
-16.75
-18.95
-22.26
-26.53
-31.28
-35.78
-39.10
-40.32
-38.78
-34.28
-27.31
-18.97
-10.66
-3.61
1.57
4.95
7.14
8.92
10.88
13.21
15.80
18.38
20.67
22.51
23.83
24.61
24.89
24.73
24.22
23.53
22.84
22.33
22.07
22.04
22.03
21.74
20.88
19.28
16.97
14.21
11.40
8.85
6.73
4.93
3.18
1.21
-1.12
-3.78
-6.54
-9.12
-11.31
-13.03
-14.37
-15.54
-16.83
-18.44
-20.49
-22.92
-25.55
-28.17
-30.64
-32.88
-35.00
-37.20
-39.73
-42.75
-46.14
-49.49
-52.02
-52.88
-51.39
-47.35
-41.15
-33.71
-26.17
-19.55
-14.44
-10.90
-8.49
-6.57
-4.54
-2.04
0.90
4.01
6.91
9.31
11.17
12.68
14.09
15.58
17.12
18.54
19.64
20.34
20.71
20.91
21.02
20.96
20.52
19.48
17.76
15.48
12.94
10.47
8.34
6.64
5.30
4.06
2.59
0.62
-1.96
-5.00
-8.12
-10.87
-12.89
-14.13
-14.88
-15.67
-17.04
-19.34
-22.56
-26.36
-30.08
-32.87
-33.91
-32.63
-28.90
-23.16
-16.34
-9.50
-3.58
0.92
3.96
5.88
7.11
8.04
8.89
9.76
10.66
11.56
12.46
13.33
14.20
15.12
16.16
17.38
18.73
20.09
21.32
22.36
23.19
23.86
24.34
24.48
23.99
22.64
20.38
17.43
14.20
11.18
8.70
6.78
5.18
3.52
1.43
-1.29
-4.56
-8.17
-11.76
-14.99
-17.64
-19.65
-21.17
-22.53
-24.13
-26.32
-29.34
-33.08
-37.10
-40.62
-42.65
-42.35
-39.32
-33.86
-26.86
-19.55
-13.08
-8.12
-4.73
-2.44
-0.58
1.41
3.83
6.66
9.70
12.67
15.36
17.61
19.38
20.70
21.66
22.39
23.03
23.65
24.29
24.94
25.52
25.95
26.11
25.90
25.28
24.27
22.95
21.50
20.10
18.89
17.88
17.00
16.10
15.04
13.74
12.22
10.53
8.71
6.75
4.63
2.34
-0.13
-2.69
-5.28
-7.80
-10.24
-12.63
-15.07
-17.75
-20.93
-24.84
-29.53
-34.71
-39.68
-43.47
-45.08
-43.85
-39.66
-33.08
-25.15
-17.12
-10.07
-4.64
-0.96
1.38
3.01
4.58
6.50
8.86
11.46
13.98
16.16
17.92
19.33
20.49
21.44
22.16
22.60
22.78
22.85
23.05
23.51
24.25
25.05
25.57
25.49
24.61
22.98
20.86
18.69
16.85
15.56
14.83
14.43
13.96
13.04
11.42
9.07
6.24
3.28
0.59
-1.63
-3.40
-4.99
-6.73
-8.88
-11.43
-14.13
-16.63
-18.66
-20.16
-21.42
-22.85
-24.88
-27.80
-31.62
-36.02
-40.38
-43.83
-45.42
-44.44
-40.66
-34.47
-26.88
-19.16
-12.41
-7.26
-3.72
-1.30
0.65
2.68
5.03
7.66
10.33
12.82
15.01
16.93
18.72
20.51
22.30
24.03
25.53
26.68
27.49
28.04
28.52
29.03
29.54
29.87
29.79
29.10
27.81
26.09
24.36
23.00
22.37
22.55
23.33
24.34
25.17
25.52
25.31
24.57
23.48
22.31
21.35
20.89
21.01
21.41
21.44
20.19
16.95
11.53
4.43
-3.31
-10.62
-16.82
-21.88
-26.24
-30.47
-34.89
-39.38
-43.45
-46.44
-47.79
-47.18
-44.72
-40.88
-36.37
-31.92
-28.09
-25.10
-22.84
-21.01
-19.25
-17.28
-14.98
-12.34
-9.37
-6.18
-2.92
0.22
3.01
5.32
7.13
8.58
9.88
11.22
12.66
14.15
15.54
16.67
17.39
17.60
17.25
16.33
14.90
13.11
11.19
9.30
7.58
5.97
4.37
2.66
0.88
-0.85
-2.36
-3.59
-4.66
-5.80
-7.24
-9.03
-11.01
-12.96
-14.68
-16.17
-17.57
-19.18
-21.28
-24.11
-27.80
-32.30
-37.35
-42.30
-46.19
-47.93
-46.66
-42.15
-34.99
-26.42
-17.94
-10.78
-5.53
-2.12
-0.01
1.38
2.50
3.53
4.52
5.54
6.73
8.22
9.99
11.85
13.50
14.75
15.62
16.34
17.26
18.56
20.17
21.74
22.87
23.22
22.74
21.59
20.09
18.50
16.92
15.26
13.39
11.25
8.94
6.74
4.94
3.69
2.91
2.31
1.49
0.20
-1.62
-3.85
-6.29
-8.82
-11.37
-13.98
-16.68
-19.49
-22.36
-25.29
-28.31
-31.50
-34.87
-38.22
-41.03
-42.53
-41.94
-38.80
-33.21
-25.91
-18.07
-10.97
-5.55
-2.23
-0.77
-0.53
-0.71
-0.69
-0.13
1.04
2.66
4.48
6.32
8.07
9.71
11.26
12.70
14.02
15.14
16.07
16.83
17.47
18.08
18.65
19.12
19.33
19.12
18.39
17.18
15.65
14.05
12.60
11.37
10.32
9.26
8.03
6.53
4.77
2.84
0.85
-1.17
-3.26
-5.45
-7.72
-9.95
-12.00
-13.81
-15.48
-17.29
-19.64
-22.88
-27.12
-32.05
-37.00
-40.96
-42.92
-42.14
-38.35
-32.00
-24.03
-15.76
-8.38
-2.74
0.96
2.99
4.04
4.77
5.63
6.76
7.99
9.14
10.08
10.92
11.81
12.92
14.20
15.48
16.49
17.06
17.20
17.15
17.20
17.54
18.15
18.79
19.12
18.82
17.82
16.25
14.43
12.74
11.39
10.39
9.58
8.62
7.22
5.17
2.42
-0.84
-4.30
-7.60
-10.40
-12.54
-14.09
-15.30
-16.56
-18.27
-20.74
-24.13
-28.26
-32.65
-36.47
-38.77
-38.68
-35.81
-30.45
-23.53
-16.38
-10.26
-6.03
-3.91
-3.57
-4.26
-5.27
-6.01
-6.21
-5.90
-5.32
-4.83
-4.85
-5.71
-7.53
-10.17
-13.08
-15.38
-16.05
-14.21
-9.45
-2.09
6.89
16.12
24.20
30.13
33.49
34.41
33.40
31.10
28.06
24.56
20.58
15.84
9.97
2.68
-5.93
-15.29
-24.37
-32.02
-37.17
-39.15
-37.75
-33.12
-25.81
-16.61
-6.62
3.00
11.26
17.69
22.59
26.94
31.99
38.64
46.90
55.90
64.07
69.91
72.43
71.57
68.01
62.89
57.31
52.05
47.45
43.54
40.18
37.26
34.67
32.32
30.04
27.63
24.95
21.99
18.89
15.96
13.40
11.34
9.65
8.04
6.11
3.57
0.31
-3.54
-7.59
-11.36
-14.39
-16.42
-17.51
-18.01
-18.39
-19.15
-20.55
-22.53
-24.88
-27.19
-29.15
-30.60
-31.69
-32.79
-34.42
-37.08
-41.02
-46.11
-51.67
-56.59
-59.61
-59.66
-56.31
-49.88
-41.41
-32.36
-24.13
-17.72
-13.47
-11.14
-10.11
-9.66
-9.19
-8.40
-7.22
-5.77
-4.21
-2.65
-1.20
0.11
1.26
2.19
2.89
3.47
4.10
5.01
6.38
8.21
10.28
12.20
13.53
13.95
13.37
11.94
10.03
8.02
6.19
4.71
3.50
2.40
1.18
-0.32
-2.14
-4.12
-6.03
-7.67
-8.96
-10.07
-11.34
-13.23
-16.07
-19.99
-24.68
-29.42
-33.18
-34.91
-33.87
-29.94
-23.67
-16.15
-8.66
-2.28
2.37
5.24
6.72
7.35
7.63
7.84
8.05
8.15
8.06
7.74
7.31
6.88
6.57
6.31
5.96
5.32
4.34
3.13
1.90
0.87
0.11
-0.46
-1.01
-1.72
-2.64
-3.68
-4.71
-5.59
-6.29
-6.81
-7.17
-7.24
-6.83
-5.65
-3.56
-0.67
2.62
5.66
7.72
8.23
7.05
4.56
1.71
-0.26
-0.12
2.97
9.19
17.94
28.20
38.67
48.26
56.21
62.14
66.01
67.98
68.40
67.68
66.27
64.57
62.77
60.90
58.77
56.07
52.50
47.84
42.06
35.40
28.36
21.59
15.69
10.99
7.43
4.54
1.72
-1.49
-5.18
-9.05
-12.51
-14.87
-15.61
-14.48
-11.49
-6.99
-1.55
4.10
9.22
13.21
15.73
16.65
16.07
14.12
10.94
6.74
1.86
-3.15
-7.49
-10.30
-10.92
-9.18
-5.52
-0.90
3.46
6.49
7.57
6.68
4.31
1.22
-1.85
-4.33
-6.00
-6.84
-6.99
-6.67
-6.12
-5.55
-5.17
-5.15
-5.59
-6.51
-7.76
-9.13
-10.35
-11.18
-11.53
-11.50
-11.32
-11.31
-11.70
-12.54
-13.63
-14.66
-15.35
-15.67
-15.90
-16.54
-18.14
-20.98
-25.01
-29.79
-34.74
-39.32
-43.25
-46.61
-49.70
-52.94
-56.65
-60.92
-65.49
-69.78
-73.01
-74.39
-73.33
-69.67
-63.71
-56.14
-47.78
-39.43
-31.61
-24.55
-18.17
-12.19
-6.25
-0.01
6.71
13.88
21.32
28.68
35.61
41.91
47.44
52.16
56.00
58.88
60.78
61.76
61.98
61.69
61.01
59.91
58.16
55.49
51.73
46.93
41.37
35.46
29.58
23.97
18.69
13.68
8.83
4.08
-0.65
-5.38
-10.09
-14.75
-19.22
-23.33
-26.91
-29.85
-32.24
-34.35
-36.57
-39.26
-42.46
-45.89
-48.86
-50.48
-49.94
-46.79
-41.13
-33.66
-25.39
-17.36
-10.34
-4.67
-0.27
3.17
6.01
8.47
10.62
12.48
14.07
15.49
16.93
18.54
20.35
22.28
24.14
25.74
26.97
27.87
28.52
28.99
29.25
29.16
28.55
27.31
25.48
23.19
20.75
18.39
16.27
14.44
12.79
11.16
9.36
7.26
4.79
1.98
-1.06
-4.23
-7.43
-10.69
-14.14
-18.07
-22.80
-28.54
-35.16
-42.08
-48.28
-52.51
-53.71
-51.27
-45.31
-36.56
-26.15
-15.30
-5.07
3.86
11.16
16.87
21.27
24.76
27.74
30.48
33.09
35.54
37.72
39.45
40.61
41.12
40.95
40.07
38.55
36.48
33.96
31.09
27.83
24.12
19.83
14.98
9.72
4.47
-0.25
-4.00
-6.54
-8.04
-8.93
-9.77
-10.97
-12.66
-14.63
-16.58
-18.24
-19.55
-20.65
-21.82
-23.31
-25.31
-27.90
-31.05
-34.52
-37.80
-40.11
-40.59
-38.63
-34.07
-27.43
-19.77
-12.34
-6.15
-1.73
1.06
2.79
4.18
5.80
7.91
10.44
13.10
15.58
17.66
19.28
20.48
21.38
22.09
22.68
23.21
23.70
24.15
24.54
24.77
24.75
24.36
23.51
22.22
20.55
18.69
16.82
15.10
13.62
12.35
11.21
10.09
8.91
7.65
6.34
5.02
3.71
2.33
0.78
-1.04
-3.13
-5.40
-7.70
-9.91
-12.04
-14.25
-16.83
-20.10
-24.24
-29.14
-34.28
-38.81
-41.73
-42.19
-39.78
-34.76
-28.02
-20.77
-14.20
-9.05
-5.48
-3.13
-1.44
0.18
2.01
4.13
6.44
8.78
11.04
13.12
14.96
16.51
17.77
18.76
19.55
20.21
20.75
21.17
21.46
21.68
21.91
22.19
22.45
22.47
22.05
21.05
19.63
18.08
16.77
15.89
15.34
14.76
13.75
12.10
9.88
7.45
5.20
3.43
2.16
1.18
0.15
-1.23
-3.11
-5.46
-8.08
-10.72
-13.19
-15.39
-17.38
-19.25
-21.14
-23.17
-25.46
-28.17
-31.38
-35.06
-38.89
-42.21
-44.18
-44.02
-41.38
-36.53
-30.35
-23.99
-18.44
-14.22
-11.25
-9.02
-6.91
-4.47
-1.55
1.69
4.93
7.87
10.33
12.29
13.87
15.18
16.27
17.10
17.56
17.58
17.16
16.41
15.49
14.52
13.48
12.30
10.89
9.29
7.65
6.23
5.25
4.85
4.95
5.35
5.76
5.93
5.70
5.10
4.27
3.45
2.76
2.27
1.87
1.45
0.87
0.09
-0.86
-1.95
-3.17
-4.53
-6.00
-7.53
-9.02
-10.39
-11.64
-12.83
-14.03
-15.27
-16.38
-17.04
-16.71
-14.87
-11.17
-5.57
1.54
9.42
17.16
23.90
29.04
32.31
33.85
34.06
33.45
32.55
31.67
30.97
30.39
29.83
29.21
28.50
27.72
26.91
26.04
25.10
24.12
23.24
22.59
22.23
22.07
21.86
21.34
20.32
18.82
17.04
15.26
13.76
12.63
11.80
11.09
10.23
9.04
7.41
5.38
3.02
0.43
-2.29
-5.05
-7.72
-10.15
-12.23
-13.87
-15.07
-15.89
-16.41
-16.79
-17.20
-17.94
-19.25
-21.31
-24.02
-26.97
-29.54
-30.99
-30.72
-28.47
-24.41
-19.12
-13.40
-8.14
-3.94
-1.11
0.50
1.30
1.84
2.60
3.80
5.44
7.37
9.31
11.03
12.32
13.08
13.28
13.00
12.39
11.67
11.08
10.80
10.87
11.18
11.48
11.45
10.87
9.71
8.12
6.37
4.70
3.22
1.90
0.63
-0.71
-2.15
-3.65
-5.10
-6.45
-7.64
-8.76
-9.89
-11.13
-12.54
-14.09
-15.67
-17.14
-18.35
-19.31
-20.10
-21.00
-22.29
-24.26
-27.04
-30.57
-34.54
-38.37
-41.30
-42.55
-41.52
-38.11
-32.75
-26.37
-20.10
-14.89
-11.29
-9.28
-8.45
-8.22
-8.06
-7.66
-6.88
-5.81
-4.66
-3.63
-2.95
-2.75
-3.06
-3.77
-4.70
-5.61
-6.33
-6.73
-6.76
-6.46
-5.94
-5.33
-4.79
-4.36
-3.97
-3.44
-2.53
-1.00
1.20
3.97
6.98
9.86
12.30
14.15
15.46
16.41
17.12
17.54
17.46
16.54
14.54
11.45
7.54
3.25
-1.03
-5.07
-8.83
-12.43
-16.04
-19.86
-24.04
-28.74
-33.93
-39.29
-44.08
-47.29
-47.92
-45.42
-40.00
-32.64
-24.74
-17.69
-12.40
-9.09
-7.47
-6.96
-6.97
-7.09
-7.05
-6.68
-5.88
-4.58
-2.81
-0.62
1.94
4.91
8.37
12.45
17.17
22.44
28.01
33.58
38.84
43.52
47.39
50.25
52.03
52.79
52.75
52.36
52.12
52.51
53.77
55.81
58.25
60.46
61.87
62.11
61.15
59.15
56.30
52.65
48.00
42.06
34.62
25.77
15.89
5.60
-4.42
-13.45
-20.60
-24.94
-25.52
-21.81
-14.08
-3.59
7.49
16.81
22.55
24.07
21.96
17.70
12.95
8.87
5.86
3.71
1.95
0.31
-1.18
-2.27
-2.77
-2.73
-2.49
-2.52
-3.20
-4.63
-6.60
-8.78
-10.81
-12.49
-13.77
-14.77
-15.63
-16.45
-17.22
-17.92
-18.48
-18.88
-19.16
-19.41
-19.74
-20.23
-20.86
-21.63
-22.46
-23.30
-24.11
-24.83
-25.46
-25.94
-26.26
-26.45
-26.68
-27.21
-28.33
-30.28
-33.08
-36.52
-40.01
-42.84
-44.35
-44.14
-42.22
-38.97
-35.03
-31.05
-27.53
-24.78
-22.84
-21.64
-21.03
-20.78
-20.58
-20.02
-18.57
-15.72
-11.02
-4.31
4.22
14.01
24.25
34.01
42.55
49.41
54.45
57.77
59.54
59.84
58.71
56.18
52.44
47.80
42.74
37.64
32.74
28.03
23.38
18.66
13.88
9.18
4.85
1.10
-1.98
-4.52
-6.70
-8.77
-10.87
-13.07
-15.35
-17.67
-20.00
-22.36
-24.83
-27.57
-30.78
-34.61
-38.99
-43.53
-47.50
-49.98
-50.12
-47.52
-42.43
-35.69
-28.51
-22.01
-16.98
-13.59
-11.55
-10.28
-9.18
-7.83
-6.08
-4.00
-1.75
0.44
2.49
4.37
6.12
7.77
9.25
10.46
11.34
11.93
12.35
12.82
13.49
14.37
15.29
16.04
16.35
16.09
15.30
14.13
12.79
11.44
10.19
9.04
7.89
6.59
4.97
2.91
0.39
-2.51
-5.62
-8.71
-11.56
-14.04
-16.07
-17.71
-19.21
-20.97
-23.42
-26.93
-31.47
-36.55
-41.16
-44.10
-44.37
-41.60
-36.25
-29.38
-22.42
-16.59
-12.62
-10.57
-10.00
-10.21
-10.54
-10.58
-10.27
-9.80
-9.47
-9.48
-9.79
-10.09
-9.97
-9.10
-7.35
-4.77
-1.54
2.20
6.38
10.95
15.75
20.44
24.53
27.52
29.15
29.41
28.61
27.21
25.63
24.09
22.58
20.97
19.07
16.82
14.26
11.59
9.04
6.81
5.02
3.56
2.17
0.44
-2.07
-5.68
-10.49
-16.21
-22.20
-27.52
-31.17
-32.34
-30.68
-26.45
-20.46
-13.82
-7.59
-2.46
1.42
4.34
6.82
9.36
12.20
15.29
18.36
21.10
23.33
25.03
26.35
27.57
28.94
30.69
32.93
35.68
38.84
42.24
45.66
48.88
51.69
53.97
55.61
56.60
56.95
56.74
56.02
54.88
53.37
51.54
49.40
46.99
44.33
41.38
38.08
34.29
29.82
24.57
18.56
12.01
5.31
-1.12
-7.01
-12.31
-17.20
-22.01
-27.13
-32.81
-38.95
-45.16
-50.73
-54.79
-56.62
-55.83
-52.62
-47.73
-42.25
-37.30
-33.66
-31.60
-30.82
-30.68
-30.47
-29.70
-28.22
-26.18
-23.91
-21.69
-19.68
-17.85
-16.07
-14.29
-12.43
-10.48
-8.40
-6.10
-3.49
-0.50
2.80
6.17
9.28
11.84
13.65
14.71
15.24
15.51
15.80
16.23
16.76
17.15
17.14
16.56
15.47
14.12
12.87
12.02
11.66
11.61
11.53
11.04
9.86
8.00
5.67
3.18
0.81
-1.29
-3.20
-5.12
-7.35
-10.16
-13.76
-18.20
-23.34
-28.77
-33.77
-37.44
-38.92
-37.70
-33.90
-28.24
-21.90
-16.07
-11.57
-8.71
-7.23
-6.59
-6.23
-5.74
-4.96
-3.84
-2.41
-0.68
1.27
3.28
5.07
6.29
6.63
5.99
4.58
2.81
1.21
0.12
-0.39
-0.58
-0.91
-1.84
-3.62
-6.21
-9.28
-12.22
-14.26
-14.63
-12.67
-8.07
-1.10
7.46
16.37
24.38
30.62
34.78
37.10
38.05
38.08
37.42
36.20
34.60
33.01
31.94
31.79
32.63
34.09
35.50
36.12
35.41
33.12
29.40
24.77
20.03
16.08
13.70
13.26
14.50
16.64
18.57
19.29
18.29
15.62
11.84
7.71
3.98
1.18
-0.47
-0.99
-0.63
0.32
1.60
3.04
4.56
6.10
7.55
8.83
9.85
10.67
11.46
12.39
13.53
14.69
15.56
15.83
15.39
14.38
13.21
12.30
11.86
11.84
11.86
11.50
10.41
8.53
6.11
3.53
1.14
-0.90
-2.65
-4.31
-6.06
-7.95
-9.89
-11.71
-13.31
-14.69
-15.96
-17.25
-18.73
-20.58
-22.97
-26.00
-29.58
-33.26
-36.33
-37.86
-37.11
-33.81
-28.37
-21.77
-15.26
-9.91
-6.28
-4.34
-3.56
-3.23
-2.73
-1.71
-0.17
1.71
3.65
5.48
7.09
8.41
9.40
9.98
10.16
10.05
9.87
9.90
10.31
11.11
12.07
12.85
13.10
12.64
11.57
10.15
8.73
7.59
6.83
6.38
6.08
5.73
5.22
4.50
3.61
2.59
1.50
0.37
-0.81
-2.06
-3.45
-5.06
-6.91
-8.99
-11.14
-13.20
-15.02
-16.57
-17.91
-19.21
-20.65
-22.42
-24.61
-27.21
-30.05
-32.73
-34.70
-35.32
-34.14
-31.03
-26.33
-20.77
-15.32
-10.79
-7.71
-6.08
-5.56
-5.60
-5.66
-5.34
-4.47
-3.06
-1.24
0.83
3.02
5.21
7.30
9.17
10.62
11.50
11.74
11.42
10.84
10.36
10.24
10.51
10.96
11.24
11.02
10.21
9.00
7.73
6.72
6.11
5.80
5.50
4.92
3.85
2.28
0.33
-1.77
-3.83
-5.74
-7.53
-9.38
-11.55
-14.27
-17.60
-21.40
-25.31
-28.96
-32.04
-34.47
-36.38
-37.99
-39.58
-41.43
-43.75
-46.52
-49.43
-51.77
-52.47
-50.50
-45.24
-36.80
-26.11
-14.61
-3.78
5.28
12.11
16.84
19.96
22.08
23.69
25.11
26.39
27.44
28.11
28.32
28.14
27.74
27.31
27.03
26.94
27.02
27.17
27.30
27.29
27.03
26.40
25.33
23.80
21.89
19.76
17.57
15.44
13.44
11.52
9.58
7.48
5.13
2.58
-0.03
-2.54
-4.82
-6.98
-9.21
-11.75
-14.64
-17.63
-20.30
-22.17
-22.94
-22.64
-21.60
-20.30
-19.24
-18.72
-18.71
-18.93
-18.81
-17.74
-15.22
-11.11
-5.66
0.50
6.57
11.85
15.90
18.65
20.35
21.40
22.08
22.50
22.49
21.83
20.36
18.13
15.42
12.63
10.15
8.21
6.88
6.10
5.78
5.86
6.25
6.86
7.48
7.90
7.90
7.43
6.58
5.52
4.45
3.45
2.52
1.57
0.56
-0.51
-1.59
-2.56
-3.40
-4.15
-4.92
-5.81
-6.84
-8.00
-9.21
-10.44
-11.70
-13.04
-14.51
-16.15
-17.97
-20.03
-22.46
-25.36
-28.70
-32.15
-34.97
-36.25
-35.30
-31.94
-26.75
-20.84
-15.47
-11.54
-9.33
-8.55
-8.52
-8.58
-8.31
-7.55
-6.38
-5.00
-3.63
-2.45
-1.56
-0.99
-0.63
-0.35
-0.05
0.28
0.61
0.85
0.99
1.09
1.17
1.17
1.00
0.53
-0.14
-0.83
-1.21
-1.03
-0.32
0.64
1.39
1.58
1.06
-0.03
-1.37
-2.63
-3.67
-4.49
-5.30
-6.32
-7.75
-9.65
-11.95
-14.47
-16.95
-19.22
-21.28
-23.30
-25.59
-28.51
-32.27
-36.82
-41.77
-46.39
-49.74
-50.90
-49.26
-44.71
-37.76
-29.44
-20.97
-13.39
-7.23
-2.49
1.20
4.32
7.28
10.21
13.10
15.91
18.65
21.44
24.44
27.75
31.33
34.96
38.32
41.12
43.20
44.58
45.40
45.78
45.76
45.31
44.33
42.82
40.86
38.66
36.41
34.29
32.36
30.68
29.24
28.01
26.92
25.90
24.83
23.61
22.16
20.39
18.22
15.63
12.62
9.35
6.07
2.99
0.16
-2.57
-5.62
-9.45
-14.45
-20.70
-27.83
-35.09
-41.45
-45.87
-47.58
-46.41
-42.83
-37.85
-32.69
-28.42
-25.59
-24.22
-23.88
-23.97
-23.96
-23.51
-22.47
-20.84
-18.71
-16.18
-13.41
-10.54
-7.74
-5.10
-2.66
-0.35
2.02
4.68
7.82
11.47
15.43
19.27
22.46
24.54
25.28
24.73
23.20
21.14
19.05
17.30
16.02
15.08
14.13
12.82
10.93
8.53
5.98
3.75
2.19
1.36
1.03
0.74
-0.02
-1.68
-4.52
-8.67
-14.01
-20.09
-26.07
-30.87
-33.46
-33.17
-30.01
-24.64
-18.19
-11.85
-6.49
-2.49
0.29
2.30
4.06
5.95
8.16
10.63
13.23
15.81
18.27
20.55
22.69
24.72
26.73
28.82
31.07
33.48
35.95
38.26
40.17
41.47
42.04
41.80
40.76
39.00
36.65
33.93
31.09
28.38
25.89
23.57
21.23
18.72
15.96
13.05
10.13
7.35
4.75
2.29
-0.10
-2.43
-4.65
-6.74
-8.67
-10.64
-12.90
-15.83
-19.73
-24.71
-30.53
-36.58
-41.89
-45.38
-46.22
-44.00
-39.07
-32.38
-25.16
-18.60
-13.44
-9.84
-7.45
-5.71
-4.04
-2.08
0.24
2.83
5.49
8.04
10.32
12.28
13.94
15.40
16.79
18.18
19.56
20.86
21.98
22.88
23.57
24.06
24.34
24.33
23.92
23.06
21.85
20.47
19.14
17.95
16.77
15.31
13.23
10.31
6.57
2.28
-2.10
-6.15
-9.55
-12.22
-14.29
-16.03
-17.70
-19.49
-21.44
-23.45
-25.35
-27.00
-28.40
-29.74
-31.37
-33.70
-37.09
-41.68
-47.23
-53.06
-58.12
-61.26
-61.48
-58.28
-51.91
-43.27
-33.71
-24.59
-16.91
-11.04
-6.75
-3.41
-0.22
3.40
7.71
12.60
17.69
22.56
26.88
30.49
33.38
35.70
37.63
39.34
40.97
42.61
44.32
46.01
47.52
48.56
48.82
48.11
46.46
44.12
41.55
39.23
37.51
36.50
35.99
35.58
34.85
33.48
31.41
28.84
26.13
23.63
21.59
20.07
18.89
17.71
16.18
14.03
11.20
7.84
4.30
0.96
-1.97
-4.50
-6.87
-9.52
-12.84
-17.10
-22.31
-28.14
-33.94
-38.77
-41.61
-41.68
-38.70
-33.13
-25.98
-18.57
-12.09
-7.20
-3.95
-1.90
-0.39
1.13
3.01
5.35
8.08
11.03
13.97
16.67
18.92
20.63
21.84
22.68
23.36
24.01
24.66
25.26
25.67
25.78
25.48
24.72
23.44
21.62
19.31
16.65
13.84
11.08
8.48
5.96
3.38
0.51
-2.73
-6.30
-10.01
-13.63
-16.99
-20.05
-22.82
-25.39
-27.73
-29.80
-31.50
-32.78
-33.74
-34.56
-35.58
-37.14
-39.52
-42.84
-46.93
-51.25
-54.86
-56.65
-55.67
-51.47
-44.38
-35.45
-26.10
-17.65
-10.88
-5.91
-2.31
0.63
3.55
6.88
10.73
15.02
19.53
23.98
28.11
31.78
34.90
37.50
39.65
41.38
42.73
43.71
44.31
44.55
44.41
43.89
42.99
41.73
40.14
38.36
36.52
34.75
33.07
31.46
29.78
27.96
26.02
24.05
22.23
20.64
19.21
17.70
15.85
13.43
10.46
7.15
3.84
0.82
-1.77
-4.06
-6.39
-9.14
-12.73
-17.32
-22.79
-28.64
-33.97
-37.74
-39.01
-37.23
-32.53
-25.71
-18.00
-10.75
-4.97
-1.15
0.77
1.28
1.00
0.46
-0.01
-0.24
-0.22
-0.03
0.25
0.56
0.83
1.03
1.09
0.99
0.71
0.27
-0.25
-0.75
-1.13
-1.30
-1.24
-1.05
-0.86
-0.72
-0.67
-0.58
-0.28
0.39
1.44
2.74
4.02
5.02
5.57
5.73
5.72
5.85
6.35
7.23
8.26
9.07
9.32
8.82
7.63
5.98
4.12
2.21
0.23
-1.94
-4.47
-7.43
-10.79
-14.53
-18.66
-23.16
-27.90
-32.45
-36.02
-37.70
-36.75
-32.99
-26.94
-19.65
-12.31
-5.90
-0.91
2.62
4.93
6.33
7.13
7.61
8.07
8.83
10.14
12.13
14.76
17.85
21.22
24.72
28.26
31.76
35.05
37.91
40.10
41.50
42.12
42.10
41.62
40.85
39.86
38.74
37.61
36.63
35.96
35.62
35.48
35.20
34.50
33.21
31.39
29.27
27.15
25.16
23.27
21.23
18.74
15.59
11.84
7.76
3.81
0.37
-2.35
-4.49
-6.39
-8.54
-11.32
-14.98
-19.53
-24.78
-30.33
-35.51
-39.48
-41.38
-40.61
-37.11
-31.47
-24.78
-18.30
-13.00
-9.36
-7.32
-6.42
-6.10
-5.87
-5.47
-4.77
-3.81
-2.68
-1.49
-0.33
0.75
1.76
2.71
3.61
4.44
5.18
5.79
6.25
6.52
6.56
6.34
5.87
5.17
4.25
3.13
1.85
0.50
-0.82
-1.97
-2.88
-3.60
-4.30
-5.20
-6.44
-7.96
-9.51
-10.82
-11.73
-12.33
-12.86
-13.64
-14.92
-16.75
-19.01
-21.49
-24.01
-26.42
-28.81
-31.41
-34.51
-38.32
-42.69
-47.06
-50.46
-51.86
-50.57
-46.53
-40.40
-33.33
-26.55
-20.94
-16.89
-14.29
-12.74
-11.76
-10.94
-10.02
-8.85
-7.39
-5.71
-3.97
-2.39
-1.15
-0.38
-0.05
0.01
-0.02
0.02
0.18
0.38
0.49
0.36
-0.17
-1.17
-2.67
-4.58
-6.68
-8.54
-9.67
-9.62
-8.19
-5.56
-2.17
1.32
4.37
6.69
8.23
9.12
9.48
9.31
8.55
7.11
5.06
2.59
0.01
-2.33
-4.16
-5.37
-6.15
-6.93
-8.26
-10.74
-14.71
-20.10
-26.28
-32.20
-36.57
-38.28
-36.76
-32.16
-25.28
-17.38
-9.69
-3.26
1.40
4.23
5.59
6.01
6.05
6.16
6.53
7.19
7.99
8.81
9.54
10.25
11.05
12.10
13.50
15.29
17.44
19.86
22.39
24.87
27.07
28.78
29.87
30.27
30.02
29.27
28.20
27.04
25.98
25.17
24.68
24.45
24.33
24.17
23.82
23.17
22.19
20.80
18.99
16.75
14.18
11.44
8.67
5.94
3.20
0.31
-2.86
-6.33
-9.96
-13.51
-16.77
-19.66
-22.29
-24.91
-27.78
-31.09
-34.82
-38.74
-42.37
-45.09
-46.28
-45.47
-42.55
-37.73
-31.66
-25.21
-19.26
-14.50
-11.25
-9.40
-8.52
-8.10
-7.66
-6.89
-5.67
-4.00
-1.89
0.63
3.51
6.72
10.16
13.68
17.13
20.32
23.14
25.51
27.40
28.84
29.81
30.29
30.21
29.52
28.25
26.63
24.94
23.53
22.61
22.23
22.26
22.52
22.79
22.91
22.73
22.17
21.17
19.78
18.10
16.30
14.51
12.73
10.82
8.51
5.58
2.01
-1.95
-5.88
-9.31
-11.95
-13.86
-15.40
-17.12
-19.55
-22.91
-27.07
-31.49
-35.39
-37.92
-38.37
-36.32
-31.80
-25.20
-17.25
-8.83
-0.75
6.44
12.55
17.76
22.47
27.11
31.88
36.78
41.62
46.13
50.18
53.81
57.20
60.58
64.06
67.48
70.52
72.69
73.55
72.81
70.45
66.62
61.64
55.78
49.26
42.23
34.86
27.36
19.94
12.73
5.63
-1.65
-9.47
-18.00
-26.95
-35.45
-42.27
-46.17
-46.47
-43.28
-37.58
-30.84
-24.55
-19.76
-16.91
-15.95
-16.54
-18.36
-21.15
-24.63
-28.44
-32.12
-35.23
-37.45
-38.57
-38.43
-36.91
-33.80
-29.01
-22.68
-15.20
-7.27
0.38
7.11
12.52
16.41
18.83
19.91
19.85
18.91
17.31
15.34
13.22
11.14
9.26
7.63
6.21
4.87
3.47
1.92
0.22
-1.50
-3.10
-4.46
-5.57
-6.52
-7.34
-7.97
-8.18
-7.72
-6.42
-4.33
-1.82
0.58
2.26
2.77
1.89
-0.30
-3.57
-7.51
-11.74
-15.89
-19.71
-23.11
-26.15
-29.05
-32.12
-35.59
-39.61
-44.10
-48.73
-52.95
-56.04
-57.33
-56.33
-52.97
-47.61
-40.98
-34.06
-27.72
-22.62
-19.12
-17.18
-16.56
-16.87
-17.75
-18.88
-20.16
-21.57
-23.17
-24.99
-26.98
-29.02
-30.99
-32.76
-34.20
-35.16
-35.38
-34.62
-32.71
-29.75
-26.02
-21.88
-17.50
-12.71
-7.12
-0.41
7.34
15.50
23.09
29.07
32.85
34.39
34.17
32.88
31.14
29.30
27.45
25.53
23.37
20.81
17.58
13.38
7.89
0.91
-7.46
-16.72
-25.91
-33.81
-39.19
-41.22
-39.74
-35.40
-29.47
-23.37
-18.29
-14.83
-12.88
-11.90
-11.18
-10.17
-8.67
-6.80
-4.77
-2.82
-1.03
0.62
2.18
3.64
4.98
6.12
7.10
8.09
9.33
11.11
13.60
16.83
20.65
24.82
29.04
32.97
36.26
38.54
39.51
38.94
36.71
32.88
27.66
21.49
14.93
8.59
2.98
-1.59
-5.12
-7.84
-10.04
-11.98
-13.75
-15.37
-16.85
-18.29
-19.91
-22.02
-24.89
-28.69
-33.39
-38.70
-44.02
-48.45
-50.98
-50.75
-47.38
-41.23
-33.24
-24.72
-16.83
-10.28
-5.27
-1.51
1.38
3.73
5.68
7.37
8.98
10.84
13.40
17.01
21.82
27.72
34.33
41.06
47.17
51.98
55.02
56.23
56.09
55.42
55.11
55.68
57.04
58.49
59.01
57.74
54.26
48.79
42.03
34.91
28.35
23.03
19.18
16.64
14.80
12.85
9.98
5.67
-0.17
-7.16
-14.61
-21.80
-28.17
-33.43
-37.61
-41.02
-44.13
-47.42
-51.30
-55.87
-60.89
-65.71
-69.42
-71.05
-69.89
-65.72
-58.88
-50.19
-40.64
-31.19
-22.55
-15.10
-8.96
-4.07
-0.28
2.64
4.87
6.57
7.77
8.45
8.61
8.40
8.12
8.11
8.60
9.61
10.95
12.41
13.90
15.49
17.33
19.37
21.32
22.71
23.10
22.43
21.04
19.64
18.96
19.42
20.89
22.82
24.41
24.95
24.14
22.16
19.68
17.67
17.20
19.10
23.62
30.16
37.29
42.99
45.34
43.31
37.39
29.70
23.45
21.90
27.14
39.20
55.89
73.48
87.83
95.68
95.38
87.08
72.25
53.04
31.68
10.20
-9.71
-26.64
-39.65
-48.25
-52.56
-53.15
-50.95
-47.04
-42.53
-38.40
-35.39
-33.83
-33.61
-34.21
-35.00
-35.51
-35.63
-35.51
-35.37
-35.28
-35.06
-34.36
-32.83
-30.31
-26.83
-22.60
-17.94
-13.22
-8.74
-4.76
-1.40
1.39
3.63
5.26
6.00
5.45
3.26
-0.66
-6.07
-12.48
-19.29
-25.92
-31.77
-36.20
-38.52
-38.16
-34.86
-28.95
-21.32
-13.18
-5.72
0.29
4.59
7.44
9.38
10.98
12.64
14.55
16.74
19.12
21.61
24.14
26.64
29.04
31.23
33.08
34.50
35.41
35.91
36.12
36.18
36.18
36.10
35.76
34.92
33.39
31.15
28.40
25.50
22.80
20.49
18.55
16.78
14.90
12.69
9.99
6.79
3.15
-0.79
-4.82
-8.73
-12.33
-15.54
-18.44
-21.29
-24.40
-28.11
-32.65
-38.04
-43.95
-49.70
-54.31
-56.68
-55.98
-51.87
-44.79
-35.81
-26.34
-17.68
-10.65
-5.47
-1.85
0.79
2.98
5.10
7.31
9.64
12.06
14.54
17.01
19.40
21.60
23.56
25.22
26.66
27.94
29.13
30.23
31.18
31.90
32.28
32.22
31.67
30.68
29.35
27.83
26.24
24.58
22.77
20.68
18.21
15.44
12.59
9.91
7.58
5.56
3.63
1.45
-1.19
-4.34
-7.79
-11.26
-14.51
-17.42
-20.12
-22.87
-26.03
-29.96
-34.80
-40.47
-46.43
-51.85
-55.63
-56.76
-54.62
-49.18
-41.12
-31.63
-22.13
-13.81
-7.39
-2.94
-0.05
1.99
3.84
5.84
8.01
10.20
12.22
14.05
15.86
17.85
20.14
22.59
24.92
26.77
27.92
28.35
28.23
27.81
27.24
26.53
25.50
23.95
21.73
18.88
15.63
12.34
9.37
6.88
4.83
2.99
1.09
-1.06
-3.49
-6.06
-8.53
-10.70
-12.47
-13.87
-15.06
-16.36
-18.11
-20.71
-24.43
-29.33
-35.09
-41.08
-46.34
-49.84
-50.66
-48.32
-42.92
-35.12
-26.06
-16.96
-8.86
-2.32
2.61
6.20
8.90
11.05
12.85
14.32
15.44
16.25
16.89
17.57
18.44
19.63
21.05
22.51
23.77
24.64
25.11
25.30
25.41
25.50
25.48
25.08
24.06
22.29
19.86
17.03
14.13
11.37
8.87
6.66
4.70
2.95
1.37
-0.12
-1.65
-3.41
-5.52
-8.06
-10.97
-14.07
-17.14
-20.00
-22.62
-25.21
-28.20
-32.00
-36.83
-42.42
-48.01
-52.44
-54.51
-53.36
-48.82
-41.50
-32.62
-23.66
-15.87
-9.96
-5.97
-3.37
-1.46
0.38
2.46
4.79
7.22
9.63
12.00
14.36
16.68
18.85
20.72
22.18
23.28
24.19
25.13
26.24
27.46
28.55
29.17
29.05
28.07
26.35
24.17
21.93
19.94
18.35
17.06
15.85
14.42
12.58
10.33
7.79
5.14
2.53
-0.02
-2.62
-5.42
-8.51
-11.88
-15.42
-18.91
-22.16
-25.06
-27.63
-30.03
-32.56
-35.53
-39.10
-43.13
-47.06
-50.02
-51.03
-49.34
-44.75
-37.73
-29.31
-20.79
-13.29
-7.51
-3.63
-1.36
-0.21
0.34
0.66
1.01
1.44
1.94
2.40
2.68
2.79
2.86
3.30
4.63
7.30
11.42
16.67
22.42
27.95
32.73
36.60
39.54
41.55
42.47
42.01
40.01
36.63
32.29
27.56
22.72
17.72
12.23
6.05
-0.77
-7.78
-14.45
-20.40
-25.52
-29.89
-33.51
-36.13
-37.31
-36.75
-34.58
-31.48
-28.49
-26.58
-26.18
-27.02
-28.14
-28.23
-26.12
-21.16
-13.48
-3.95
6.10
15.20
22.09
25.94
26.40
23.62
18.23
11.21
3.80
-2.77
-7.58
-10.19
-10.68
-9.41
-6.84
-3.28
1.05
5.91
10.94
15.55
19.18
21.43
22.27
21.97
21.02
19.84
18.74
17.88
17.31
17.09
17.28
17.95
19.08
20.60
22.38
24.26
26.09
27.70
28.88
29.40
29.08
27.82
25.68
22.83
19.44
15.63
11.25
6.04
-0.38
-8.25
-17.50
-27.62
-37.71
-46.58
-53.08
-56.40
-56.32
-53.20
-47.95
-41.68
-35.46
-30.13
-26.17
-23.71
-22.59
-22.42
-22.71
-22.93
-22.72
-21.90
-20.56
-18.96
-17.38
-15.92
-14.45
-12.61
-10.04
-6.55
-2.32
2.14
6.23
9.55
12.02
13.95
15.70
17.50
19.28
20.78
21.79
22.31
22.58
22.93
23.53
24.31
24.99
25.29
25.12
24.53
23.66
22.51
20.91
18.50
14.96
10.15
4.22
-2.42
-9.25
-15.81
-21.85
-27.35
-32.49
-37.37
-41.94
-45.75
-48.19
-48.57
-46.52
-42.11
-35.98
-29.05
-22.30
-16.47
-11.94
-8.74
-6.64
-5.34
-4.53
-3.97
-3.46
-2.88
-2.09
-1.01
0.39
2.12
4.07
6.16
8.26
10.29
12.19
13.94
15.52
16.91
18.03
18.86
19.38
19.68
19.85
19.91
19.88
19.68
19.31
18.82
18.36
18.07
17.98
17.99
17.89
17.48
16.57
15.06
12.97
10.32
7.22
3.84
0.41
-2.88
-5.95
-8.91
-12.05
-15.70
-20.16
-25.43
-31.14
-36.53
-40.60
-42.34
-41.12
-36.91
-30.33
-22.56
-14.94
-8.62
-4.22
-1.79
-0.89
-0.94
-1.39
-1.88
-2.28
-2.56
-2.70
-2.67
-2.40
-1.81
-0.90
0.27
1.59
3.00
4.49
6.07
7.78
9.56
11.32
12.86
14.03
14.74
14.98
14.82
14.31
13.56
12.67
11.74
10.91
10.26
9.78
9.34
8.73
7.70
6.10
3.93
1.44
-1.04
-3.17
-4.79
-5.99
-7.08
-8.50
-10.67
-13.86
-18.16
-23.32
-28.72
-33.42
-36.34
-36.57
-33.68
-27.93
-20.27
-11.97
-4.30
1.84
6.11
8.58
9.65
9.81
9.50
9.06
8.71
8.53
8.51
8.58
8.64
8.65
8.59
8.53
8.51
8.63
8.98
9.64
10.69
12.09
13.71
15.28
16.57
17.42
17.90
18.21
18.60
19.19
19.85
20.27
20.14
19.36
18.15
16.90
16.00
15.59
15.44
15.14
14.26
12.61
10.27
7.54
4.76
2.16
-0.23
-2.47
-4.75
-7.34
-10.55
-14.70
-19.91
-25.92
-32.03
-37.08
-39.79
-39.21
-35.07
-27.96
-19.15
-10.20
-2.39
3.56
7.61
10.18
11.89
13.31
14.81
16.57
18.58
20.72
22.81
24.74
26.42
27.81
28.93
29.84
30.62
31.40
32.33
33.45
34.68
35.72
36.13
35.56
33.81
31.04
27.63
24.05
20.63
17.49
14.50
11.41
7.98
4.08
-0.28
-4.99
-9.84
-14.66
-19.43
-24.29
-29.43
-34.87
-40.36
-45.31
-48.97
-50.73
-50.37
-48.17
-44.77
-40.97
-37.47
-34.78
-33.15
-32.61
-32.84
-33.16
-32.63
-30.28
-25.50
-18.29
-9.41
-0.03
8.66
15.87
21.42
25.58
28.82
31.54
33.87
35.78
37.22
38.19
38.85
39.37
39.94
40.63
41.44
42.28
43.08
43.76
44.26
44.53
44.50
44.12
43.34
42.17
40.62
38.77
36.68
34.41
32.01
29.52
26.98
24.45
22.04
19.86
17.97
16.22
14.36
12.05
9.01
5.17
0.75
-3.94
-8.54
-12.81
-16.70
-20.35
-23.97
-27.81
-32.08
-36.85
-41.95
-46.84
-50.71
-52.60
-51.75
-47.94
-41.61
-33.80
-25.73
-18.48
-12.66
-8.34
-5.21
-2.83
-0.83
0.95
2.59
4.12
5.63
7.27
9.20
11.44
13.84
16.17
18.21
19.90
21.41
23.00
24.82
26.71
28.29
29.09
28.78
27.38
25.26
22.97
20.91
19.26
17.86
16.44
14.78
12.79
10.60
8.39
6.23
4.14
1.98
-0.38
-3.05
-6.00
-9.16
-12.42
-15.72
-19.00
-22.21
-25.30
-28.33
-31.37
-34.69
-38.50
-42.79
-47.19
-50.92
-52.96
-52.41
-48.82
-42.46
-34.27
-25.61
-17.84
-11.91
-8.17
-6.35
-5.68
-5.37
-4.74
-3.51
-1.79
0.09
1.80
3.09
3.84
4.06
3.80
3.13
2.12
0.91
-0.25
-1.12
-1.43
-1.12
-0.26
0.94
2.33
3.89
5.76
8.17
11.16
14.54
17.80
20.33
21.62
21.50
20.28
18.67
17.56
17.65
19.26
22.12
25.56
28.63
30.60
31.04
29.96
27.70
24.74
21.53
18.38
15.44
12.63
9.72
6.33
2.13
-2.89
-8.20
-12.76
-15.35
-15.09
-11.87
-6.49
-0.36
5.05
8.84
10.90
11.82
12.54
13.89
16.33
19.91
24.34
29.15
33.81
37.83
40.73
42.15
41.81
39.61
35.58
29.93
22.93
14.97
6.42
-2.42
-11.30
-20.13
-28.81
-37.28
-45.42
-53.10
-60.25
-66.93
-73.26
-79.21
-84.48
-88.33
-89.81
-88.08
-82.80
-74.35
-63.79
-52.49
-41.70
-32.31
-24.61
-18.45
-13.49
-9.35
-5.76
-2.59
0.16
2.35
3.71
3.95
2.92
0.74
-2.01
-4.37
-5.24
-3.72
0.61
7.42
15.78
24.44
32.13
37.99
41.66
43.32
43.41
42.53
41.14
39.52
37.80
36.00
34.14
32.30
30.58
29.09
27.87
26.89
26.04
25.28
24.61
24.11
23.83
23.69
23.53
23.11
22.24
20.82
18.90
16.61
14.08
11.38
8.54
5.56
2.41
-0.88
-4.26
-7.68
-11.14
-14.64
-18.19
-21.74
-25.21
-28.43
-31.26
-33.55
-35.31
-36.73
-38.19
-40.20
-43.16
-47.10
-51.58
-55.69
-58.29
-58.42
-55.68
-50.32
-43.27
-35.71
-28.77
-23.20
-19.20
-16.53
-14.68
-13.12
-11.48
-9.68
-7.90
-6.35
-5.19
-4.33
-3.51
-2.40
-0.84
1.13
3.25
5.19
6.81
8.11
9.22
10.23
11.08
11.63
11.74
11.40
10.75
10.02
9.34
8.73
8.12
7.39
6.55
5.71
4.99
4.41
3.90
3.23
2.13
0.44
-1.92
-4.80
-7.93
-10.97
-13.64
-15.87
-17.83
-19.94
-22.67
-26.37
-31.03
-36.14
-40.73
-43.61
-43.67
-40.26
-33.42
-23.93
-13.13
-2.52
6.66
13.69
18.55
21.73
24.04
26.25
28.91
32.27
36.26
40.69
45.24
49.64
53.67
57.26
60.32
62.90
65.00
66.69
67.97
68.83
69.14
68.68
67.18
64.48
60.61
55.83
50.62
45.45
40.57
35.91
31.12
25.76
19.52
12.37
4.63
-3.25
-10.80
-17.77
-24.15
-30.15
-36.14
-42.41
-49.05
-55.83
-62.21
-67.46
-70.96
-72.43
-72.10
-70.67
-69.05
-68.10
-68.35
-69.73
-71.57
-72.70
-71.76
-67.72
-60.19
-49.65
-37.28
-24.57
-12.79
-2.63
5.88
13.13
19.56
25.38
30.58
34.93
38.20
40.38
41.59
42.06
42.03
41.69
41.16
40.52
39.87
39.24
38.64
37.98
37.19
36.15
34.78
33.04
30.94
28.56
25.94
23.20
20.43
17.68
14.94
12.09
8.99
5.59
1.98
-1.65
-5.07
-8.29
-11.45
-14.84
-18.66
-22.83
-27.09
-31.01
-34.35
-37.08
-39.50
-42.12
-45.45
-49.84
-55.28
-61.39
-67.29
-71.75
-73.48
-71.46
-65.45
-56.11
-44.92
-33.61
-23.69
-15.90
-10.21
-6.00
-2.53
0.74
4.03
7.25
10.29
13.06
15.64
18.15
20.70
23.34
26.04
28.72
31.22
33.34
34.88
35.75
35.98
35.75
35.27
34.61
33.77
32.62
31.13
29.36
27.54
25.87
24.39
22.94
21.28
19.24
16.81
14.12
11.31
8.39
5.24
1.72
-2.16
-6.21
-10.10
-13.58
-16.64
-19.56
-22.82
-26.91
-32.18
-38.71
-46.15
-53.73
-60.26
-64.34
-64.77
-60.99
-53.37
-43.16
-32.15
-22.00
-13.78
-7.72
-3.37
0.06
3.26
6.61
10.22
14.00
17.82
21.56
25.10
28.28
30.91
32.85
34.10
34.84
35.36
35.98
36.88
38.06
39.38
40.55
41.29
41.41
40.78
39.42
37.47
35.17
32.71
30.25
27.79
25.25
22.51
19.55
16.49
13.59
11.06
8.93
6.99
4.84
2.11
-1.41
-5.62
-10.19
-14.74
-19.05
-23.15
-27.32
-31.95
-37.41
-43.77
-50.77
-57.65
-63.24
-66.27
-65.62
-60.90
-52.55
-41.88
-30.54
-20.08
-11.41
-4.76
0.34
4.53
8.43
12.33
16.27
20.12
23.68
26.84
29.55
31.81
33.68
35.20
36.44
37.46
38.24
38.73
38.85
38.49
37.55
36.03
34.04
31.82
29.73
28.11
27.23
27.11
27.50
27.94
27.92
27.09
25.42
23.22
20.97
19.11
17.82
16.90
15.91
14.34
11.87
8.46
4.42
0.21
-3.68
-6.94
-9.58
-11.94
-14.54
-18.01
-22.71
-28.55
-34.87
-40.45
-43.82
-43.66
-39.32
-31.13
-20.34
-8.74
1.91
10.41
16.36
20.10
22.40
24.09
25.72
27.50
29.38
31.18
32.81
34.27
35.68
37.21
38.88
40.62
42.21
43.47
44.36
45.07
45.97
47.41
49.53
52.23
55.17
57.93
60.21
61.86
62.91
63.41
63.27
62.19
59.72
55.35
48.83
40.29
30.32
19.81
9.63
0.30
-8.22
-16.50
-25.38
-35.65
-47.83
-61.99
-77.68
-94.03
-109.74
-123.32
-133.36
-138.87
-139.63
-136.18
-129.71
-121.59
-112.89
-104.13
-95.27
-85.91
-75.66
-64.44
-52.55
-40.58
-29.16
-18.77
-9.64
-1.74
5.11
11.09
16.35
20.99
25.11
28.86
32.34
35.62
38.59
41.02
42.61
43.12
42.53
41.06
39.09
37.12
35.49
34.34
33.47
32.51
30.96
28.43
24.73
19.97
14.55
8.97
3.70
-0.98
-5.01
-8.64
-12.27
-16.39
-21.41
-27.46
-34.31
-41.26
-47.27
-51.12
-51.78
-48.81
-42.54
-34.03
-24.72
-16.02
-8.85
-3.51
0.25
2.95
5.13
7.20
9.35
11.64
14.04
16.52
19.02
21.48
23.82
25.99
27.92
29.51
30.68
31.41
31.79
31.93
31.94
31.78
31.30
30.28
28.57
26.24
23.55
20.85
18.44
16.50
14.90
13.32
11.37
8.71
5.22
1.08
-3.21
-7.06
-9.95
-11.64
-12.32
-12.53
-13.00
-14.46
-17.43
-22.03
-27.85
-33.96
-39.03
-41.68
-40.93
-36.59
-29.37
-20.70
-12.19
-5.07
0.17
3.88
6.94
10.37
14.93
20.93
28.09
35.81
43.36
50.05
55.42
59.19
61.27
61.71
60.67
58.50
55.72
52.88
50.44
48.59
47.23
46.04
44.77
43.34
41.93
40.78
40.13
39.93
39.92
39.70
38.84
37.04
34.16
30.25
25.47
20.05
14.20
8.05
1.64
-5.12
-12.39
-20.38
-29.17
-38.53
-47.81
-55.93
-61.64
-63.92
-62.42
-57.59
-50.65
-43.08
-36.15
-30.52
-26.18
-22.68
-19.47
-16.19
-12.76
-9.28
-5.97
-2.97
-0.30
2.05
4.15
6.03
7.72
9.27
10.71
12.08
13.37
14.52
15.44
16.06
16.33
16.20
15.63
14.57
12.97
10.92
8.64
6.47
4.74
3.60
2.88
2.19
1.00
-1.09
-4.22
-8.18
-12.52
-16.73
-20.42
-23.50
-26.15
-28.74
-31.72
-35.43
-39.98
-45.16
-50.37
-54.67
-56.94
-56.13
-51.68
-43.82
-33.63
-22.79
-13.04
-5.58
-0.78
1.83
3.17
4.14
5.29
6.75
8.40
10.06
11.66
13.25
14.83
16.40
17.80
18.84
19.40
19.48
19.22
18.83
18.45
18.07
17.47
16.38
14.55
11.98
8.92
5.78
2.99
0.75
-1.00
-2.51
-4.13
-6.05
-8.26
-10.57
-12.70
-14.45
-15.79
-16.88
-18.09
-19.85
-22.56
-26.45
-31.48
-37.18
-42.68
-46.75
-48.22
-46.23
-40.71
-32.43
-22.80
-13.47
-5.72
-0.14
3.46
5.78
7.62
9.52
11.62
13.73
15.63
17.20
18.49
19.68
20.86
22.01
22.93
23.45
23.49
23.23
22.96
22.93
23.14
23.30
22.90
21.47
18.78
15.00
10.66
6.44
2.96
0.49
-1.10
-2.28
-3.64
-5.66
-8.41
-11.63
-14.84
-17.57
-19.62
-21.11
-22.46
-24.18
-26.75
-30.45
-35.30
-40.90
-46.42
-50.63
-52.22
-50.19
-44.35
-35.51
-25.22
-15.33
-7.29
-1.73
1.60
3.54
5.06
6.88
9.25
12.03
14.89
17.50
19.70
21.48
22.89
23.97
24.71
25.08
25.14
24.99
24.80
24.68
24.61
24.42
23.84
22.66
20.82
18.46
15.85
13.25
10.85
8.74
6.92
5.29
3.77
2.19
0.38
-1.82
-4.54
-7.74
-11.29
-14.92
-18.35
-21.43
-24.17
-26.76
-29.53
-32.82
-36.87
-41.73
-47.13
-52.44
-56.75
-59.03
-58.39
-54.38
-47.25
-37.90
-27.74
-18.23
-10.42
-4.70
-0.73
2.27
5.15
8.39
12.04
15.75
19.05
21.56
23.11
23.76
23.65
22.94
21.77
20.34
18.95
17.88
17.35
17.38
17.72
18.01
17.91
17.26
16.19
14.94
13.76
12.74
11.78
10.73
9.52
8.29
7.23
6.51
6.07
5.64
4.89
3.62
1.89
-0.02
-1.71
-2.88
-3.45
-3.48
-3.15
-2.59
-1.94
-1.37
-1.03
-1.01
-1.18
-1.05
0.14
3.17
8.44
15.73
24.16
32.48
39.46
44.38
47.11
48.03
47.75
46.79
45.43
43.76
41.76
39.55
37.32
35.32
33.68
32.28
30.85
28.99
26.47
23.22
19.38
15.16
10.65
5.84
0.54
-5.38
-11.93
-18.83
-25.57
-31.49
-36.10
-39.20
-41.05
-42.31
-43.83
-46.35
-50.20
-55.20
-60.79
-66.20
-70.79
-74.16
-76.15
-76.82
-76.39
-75.14
-73.41
-71.40
-69.03
-65.84
-61.14
-54.28
-45.08
-34.01
-22.14
-10.83
-1.17
6.35
11.86
16.05
19.69
23.36
27.29
31.37
35.34
38.86
41.77
44.02
45.68
46.84
47.56
47.81
47.56
46.84
45.83
44.79
43.91
43.19
42.39
41.07
38.86
35.58
31.44
26.91
22.59
18.96
16.15
13.97
11.96
9.70
6.92
3.62
0.03
-3.56
-6.91
-9.90
-12.60
-15.20
-18.01
-21.34
-25.45
-30.39
-35.82
-41.10
-45.27
-47.38
-46.82
-43.52
-38.05
-31.39
-24.64
-18.67
-13.95
-10.55
-8.13
-6.27
-4.56
-2.75
-0.82
1.11
2.83
4.18
5.16
5.83
6.31
6.67
6.91
6.98
6.83
6.46
5.91
5.26
4.50
3.60
2.47
1.09
-0.53
-2.24
-3.93
-5.48
-6.84
-8.02
-9.05
-9.97
-10.86
-11.83
-13.01
-14.50
-16.30
-18.28
-20.20
-21.85
-23.08
-23.91
-24.59
-25.44
-26.79
-28.91
-31.88
-35.52
-39.29
-42.33
-43.63
-42.41
-38.39
-31.97
-24.14
-16.14
-9.07
-3.59
0.22
2.67
4.32
5.69
7.15
8.85
10.76
12.74
14.60
16.16
17.35
18.15
18.65
18.96
19.16
19.35
19.58
19.87
20.24
20.61
20.78
20.63
20.01
18.83
17.16
15.18
13.15
11.37
10.08
9.34
8.97
8.62
7.92
6.56
4.49
1.89
-0.93
-3.58
-5.86
-7.75
-9.48
-11.35
-13.76
-17.02
-21.27
-26.37
-31.83
-36.80
-40.25
-41.25
-39.21
-34.18
-26.83
-18.28
-9.77
-2.35
3.41
7.40
9.90
11.40
12.35
13.17
14.09
15.18
16.39
17.62
18.75
19.69
20.40
20.87
21.10
21.09
20.85
20.41
19.87
19.32
18.80
18.23
17.40
16.06
14.09
11.61
8.98
6.68
5.10
4.28
3.93
3.54
2.56
0.76
-1.78
-4.66
-7.37
-9.54
-11.03
-12.02
-12.89
-14.09
-16.02
-18.87
-22.63
-26.98
-31.31
-34.78
-36.49
-35.73
-32.26
-26.47
-19.28
-11.87
-5.28
-0.10
3.61
6.22
8.23
10.05
11.86
13.64
15.32
16.84
18.22
19.50
20.66
21.65
22.33
22.63
22.56
22.22
21.78
21.33
20.92
20.46
19.81
18.73
17.07
14.72
11.78
8.53
5.36
2.65
0.63
-0.72
-1.64
-2.44
-3.41
-4.74
-6.40
-8.28
-10.15
-11.81
-13.11
-14.02
-14.63
-15.17
-15.96
-17.33
-19.53
-22.69
-26.72
-31.19
-35.40
-38.41
-39.32
-37.55
-33.11
-26.70
-19.47
-12.66
-7.21
-3.44
-1.08
0.56
2.16
4.22
6.79
9.60
12.27
14.50
16.22
17.52
18.59
19.54
20.40
21.14
21.74
22.23
22.71
23.27
23.90
24.49
24.79
24.63
23.95
22.81
21.39
19.87
18.40
17.00
15.66
14.34
13.03
11.73
10.46
9.13
7.62
5.75
3.45
0.83
-1.86
-4.21
-5.86
-6.71
-6.93
-6.95
-7.28
-8.26
-9.93
-12.05
-14.15
-15.68
-16.06
-14.75
-11.36
-5.81
1.43
9.33
16.44
21.32
22.96
21.10
16.21
9.21
1.12
-7.23
-15.23
-22.33
-27.87
-31.08
-31.36
-28.65
-23.72
-18.02
-13.29
-10.92
-11.40
-14.26
-18.34
-22.25
-24.89
-25.67
-24.43
-21.25
-16.28
-9.82
-2.36
5.50
13.00
19.50
24.63
28.27
30.51
31.57
31.68
31.08
29.94
28.39
26.46
24.14
21.35
18.06
14.30
10.14
5.65
0.84
-4.30
-9.75
-15.32
-20.65
-25.25
-28.69
-30.69
-31.32
-30.89
-29.94
-29.04
-28.64
-29.04
-30.19
-31.66
-32.72
-32.41
-29.94
-24.96
-17.69
-8.95
0.15
8.60
15.75
21.41
25.75
29.13
31.90
34.30
36.52
38.68
40.85
43.12
45.52
48.04
50.65
53.26
55.72
57.87
59.56
60.73
61.40
61.61
61.37
60.53
58.88
56.24
52.53
47.97
42.96
38.01
33.57
29.86
26.84
24.25
21.69
18.79
15.28
11.14
6.59
2.08
-1.92
-5.05
-7.28
-8.96
-10.69
-13.14
-16.78
-21.62
-27.19
-32.54
-36.45
-37.81
-35.99
-31.10
-24.00
-16.09
-8.90
-3.61
-0.81
-0.47
-2.19
-5.49
-9.95
-15.39
-21.62
-28.36
-35.13
-41.28
-46.08
-48.89
-49.28
-47.08
-42.40
-35.62
-27.31
-18.18
-8.97
-0.45
6.69
11.94
14.98
15.78
14.54
11.68
7.73
3.26
-1.25
-5.49
-9.33
-12.84
-16.18
-19.51
-22.98
-26.64
-30.43
-34.29
-38.06
-41.59
-44.68
-47.16
-48.96
-50.14
-50.93
-51.63
-52.54
-53.64
-54.56
-54.49
-52.42
-47.47
-39.20
-27.78
-14.01
0.94
15.79
29.36
40.72
49.21
54.60
57.09
57.32
56.30
55.08
54.50
54.99
56.48
58.61
60.95
63.17
65.10
66.58
67.43
67.26
65.50
61.56
55.01
45.75
34.14
20.99
7.45
-5.31
-16.30
-25.02
-31.52
-36.39
-40.47
-44.63
-49.41
-54.81
-60.31
-65.01
-68.04
-68.80
-67.21
-63.61
-58.62
-52.82
-46.71
-40.66
-35.06
-30.36
-27.04
-25.49
-25.83
-27.80
-30.81
-34.00
-36.41
-37.14
-35.49
-31.24
-24.67
-16.56
-8.01
-0.06
6.51
11.43
14.85
17.14
18.64
19.58
20.03
20.00
19.51
18.69
17.75
16.90
16.31
15.99
15.90
15.85
15.67
15.29
14.77
14.23
13.80
13.47
13.08
12.35
11.05
9.13
6.77
4.35
2.25
0.70
-0.32
-1.12
-2.18
-3.91
-6.55
-10.00
-13.84
-17.55
-20.63
-22.93
-24.63
-26.25
-28.33
-31.24
-35.00
-39.31
-43.63
-47.32
-49.72
-50.18
-48.10
-43.13
-35.32
-25.33
-14.26
-3.38
6.32
14.43
21.22
27.36
33.58
40.40
47.91
55.98
64.40
73.09
82.12
91.60
101.41
111.04
119.61
126.06
129.53
129.58
126.34
120.35
112.33
102.96
92.80
82.32
72.00
62.38
53.90
46.84
41.14
36.41
32.11
27.68
22.84
17.56
12.14
7.02
2.59
-0.94
-3.58
-5.50
-7.04
-8.42
-9.90
-11.67
-13.90
-16.79
-20.49
-25.05
-30.26
-35.56
-40.13
-42.98
-43.36
-40.98
-36.26
-30.14
-23.81
-18.30
-14.12
-11.28
-9.38
-8.01
-6.90
-6.00
-5.43
-5.21
-5.23
-5.26
-5.15
-4.96
-5.03
-5.87
-7.90
-11.21
-15.53
-20.24
-24.76
-28.65
-31.88
-34.68
-37.39
-40.23
-43.19
-46.02
-48.44
-50.21
-51.28
-51.75
-51.79
-51.56
-51.22
-50.82
-50.36
-49.72
-48.83
-47.55
-45.92
-44.09
-42.32
-40.73
-39.26
-37.60
-35.40
-32.46
-28.90
-25.24
-22.17
-20.38
-20.32
-22.10
-25.38
-29.42
-33.05
-34.92
-33.77
-28.87
-20.38
-9.34
2.64
13.88
23.21
30.12
34.91
38.20
40.71
42.97
45.20
47.47
49.71
51.90
54.07
56.21
58.32
60.32
62.05
63.43
64.34
64.74
64.60
63.89
62.58
60.69
58.26
55.42
52.39
49.39
46.66
44.38
42.67
41.56
41.07
41.11
41.60
42.38
43.32
44.29
45.13
45.64
45.46
44.11
40.98
35.60
27.76
17.67
5.94
-6.56
-18.98
-30.71
-41.50
-51.45
-60.75
-69.59
-78.03
-86.01
-93.41
-100.17
-106.17
-111.14
-114.59
-115.79
-114.13
-109.36
-101.86
-92.71
-83.30
-74.87
-68.06
-62.75
-58.33
-54.12
-49.82
-45.62
-42.01
-39.41
-37.89
-37.04
-36.15
-34.53
-31.77
-27.81
-22.86
-17.23
-11.16
-4.85
1.55
7.81
13.70
18.99
23.55
27.45
30.85
33.93
36.71
39.04
40.69
41.52
41.68
41.53
41.46
41.64
41.85
41.56
40.19
37.33
32.95
27.35
20.96
14.20
7.32
0.51
-6.10
-12.37
-18.20
-23.67
-28.96
-34.24
-39.45
-44.06
-47.13
-47.56
-44.60
-38.22
-29.29
-19.34
-10.13
-2.92
1.77
4.31
5.63
6.81
8.63
11.43
15.10
19.28
23.58
27.71
31.55
35.12
38.53
41.80
44.89
47.70
50.04
51.83
53.05
53.76
54.06
53.93
53.21
51.72
49.31
46.10
42.46
38.92
35.96
33.82
32.34
31.10
29.57
27.36
24.38
20.83
17.10
13.60
10.58
8.03
5.62
2.83
-0.92
-6.19
-13.42
-22.79
-34.19
-47.11
-60.53
-73.05
-83.05
-89.22
-90.82
-88.02
-81.77
-73.38
-64.16
-55.05
-46.58
-38.94
-32.12
-26.09
-20.77
-15.98
-11.48
-6.92
-1.98
3.47
9.33
15.26
20.77
25.40
28.92
31.45
33.29
34.92
36.66
38.58
40.52
42.20
43.43
44.23
44.74
45.16
45.64
46.15
46.53
46.62
46.28
45.60
44.80
44.12
43.69
43.33
42.60
40.87
37.68
32.86
26.66
19.67
12.51
5.73
-0.44
-6.07
-11.46
-17.00
-23.08
-29.86
-37.13
-44.20
-49.93
-53.02
-52.49
-48.10
-40.59
-31.53
-22.78
-15.88
-11.61
-9.81
-9.74
-10.47
-11.36
-12.17
-13.05
-14.21
-15.71
-17.43
-19.12
-20.53
-21.54
-22.15
-22.38
-22.20
-21.45
-19.88
-17.30
-13.73
-9.47
-5.09
-1.23
1.67
3.49
4.53
5.28
6.18
7.40
8.81
10.01
10.65
10.58
9.93
9.01
8.16
7.57
7.18
6.73
5.82
4.06
1.25
-2.57
-7.08
-11.80
-16.22
-19.99
-22.93
-25.11
-26.74
-28.19
-29.84
-32.00
-34.67
-37.34
-39.06
-38.66
-35.21
-28.46
-19.12
-8.53
1.72
10.48
17.30
22.43
26.51
30.13
33.58
36.78
39.42
41.11
41.61
40.84
38.87
35.91
32.28
28.30
24.35
20.67
17.38
14.35
11.28
7.81
3.62
-1.46
-7.35
-13.69
-19.92
-25.44
-29.74
-32.58
-34.01
-34.36
-34.09
-33.57
-33.05
-32.61
-32.23
-31.93
-31.72
-31.58
-31.39
-30.92
-29.99
-28.58
-26.92
-25.47
-24.76
-25.23
-27.15
-30.48
-34.97
-40.07
-45.05
-48.91
-50.65
-49.49
-45.13
-37.95
-28.88
-19.16
-9.85
-1.57
5.64
12.12
18.24
24.17
29.80
34.84
39.09
42.54
45.44
48.17
51.03
54.16
57.51
60.91
64.18
67.14
69.70
71.67
72.85
72.89
71.50
68.45
63.80
57.87
51.22
44.55
38.48
33.44
29.59
26.81
24.80
23.20
21.73
20.19
18.56
16.94
15.49
14.32
13.46
12.85
12.28
11.52
10.30
8.34
5.36
1.18
-4.20
-10.41
-16.67
-21.92
-25.02
-25.19
-22.29
-16.90
-10.12
-3.18
2.92
7.75
11.38
14.22
16.72
19.20
21.70
24.09
26.16
27.77
28.86
29.52
29.83
29.89
29.66
29.11
28.23
27.09
25.86
24.74
23.84
23.11
22.42
21.60
20.57
19.31
17.86
16.23
14.40
12.31
9.96
7.44
4.90
2.48
0.25
-1.85
-3.94
-6.19
-8.74
-11.61
-14.70
-17.81
-20.81
-23.58
-26.12
-28.55
-31.11
-34.05
-37.63
-41.95
-46.84
-51.73
-55.69
-57.60
-56.56
-52.15
-44.75
-35.40
-25.52
-16.44
-9.01
-3.40
0.70
3.80
6.37
8.60
10.50
12.04
13.22
14.20
15.23
16.48
18.02
19.81
21.76
23.78
25.81
27.85
29.86
31.73
33.29
34.29
34.51
33.81
32.19
29.89
27.24
24.56
22.10
19.87
17.72
15.44
12.92
10.18
7.34
4.52
1.69
-1.26
-4.46
-7.89
-11.42
-14.84
-17.97
-20.74
-23.25
-25.65
-28.12
-30.86
-34.02
-37.81
-42.34
-47.55
-52.95
-57.65
-60.50
-60.47
-57.12
-50.78
-42.54
-33.87
-26.10
-20.05
-15.85
-13.15
-11.34
-9.90
-8.52
-7.08
-5.61
-4.20
-2.95
-1.97
-1.29
-0.89
-0.70
-0.67
-0.73
-0.81
-0.82
-0.65
-0.21
0.43
1.09
1.43
1.19
0.39
-0.63
-1.33
-1.21
-0.12
1.73
3.78
5.48
6.43
6.58
6.15
5.51
4.93
4.52
4.11
3.29
1.45
-1.94
-7.27
-14.49
-23.10
-32.20
-40.91
-48.68
-55.56
-62.13
-69.12
-76.86
-84.89
-91.93
-96.17
-95.95
-90.37
-79.75
-65.83
-51.48
-39.98
-34.15
-35.46
-43.40
-55.48
-67.76
-75.86
-76.14
-66.82
-48.55
-24.39
0.97
22.48
36.10
39.96
34.70
22.98
8.42
-5.69
-17.18
-25.12
-29.47
-30.51
-28.60
-24.14
-17.81
-10.65
-3.78
1.98
6.46
10.21
14.17
19.19
25.54
32.73
39.70
45.30
48.74
49.88
49.28
47.94
46.85
46.65
47.38
48.58
49.46
49.43
48.21
45.94
43.00
39.74
36.43
33.13
29.93
26.99
24.63
23.21
23.04
24.23
26.70
30.20
34.43
39.07
43.77
48.15
51.78
54.33
55.62
55.73
54.92
53.60
52.17
50.93
50.01
49.35
48.77
47.96
46.66
44.66
41.98
38.95
36.09
34.02
33.16
33.47
34.38
35.01
34.51
32.48
29.16
25.28
21.71
19.04
17.38
16.30
15.16
13.38
10.67
7.10
2.98
-1.21
-5.03
-8.11
-10.27
-11.57
-12.40
-13.31
-14.94
-17.68
-21.48
-25.76
-29.51
-31.60
-31.14
-27.81
-21.94
-14.45
-6.56
0.53
6.02
9.68
11.85
13.27
14.66
16.37
18.24
19.71
20.26
19.68
18.30
16.75
15.67
15.36
15.66
16.07
15.99
14.94
12.68
9.27
5.07
0.59
-3.46
-6.47
-8.01
-8.06
-6.97
-5.30
-3.70
-2.71
-2.67
-3.71
-5.76
-8.55
-11.69
-14.81
-17.68
-20.35
-23.09
-26.22
-29.89
-33.95
-37.96
-41.41
-43.96
-45.63
-46.71
-47.65
-48.84
-50.49
-52.69
-55.37
-58.33
-61.21
-63.53
-64.82
-64.79
-63.56
-61.63
-59.69
-58.35
-57.94
-58.49
-59.84
-61.87
-64.56
-67.76
-71.02
-73.38
-73.58
-70.51
-63.69
-53.59
-41.49
-28.98
-17.46
-7.70
0.21
6.57
11.82
16.21
19.93
23.12
25.98
28.69
31.28
33.47
34.90
35.26
34.60
33.23
31.63
30.14
28.73
27.08
24.80
21.68
17.85
13.67
9.54
5.62
1.72
-2.58
-7.77
-14.13
-21.64
-29.80
-37.75
-44.39
-48.67
-49.88
-47.85
-43.02
-36.33
-28.88
-21.68
-15.46
-10.50
-6.78
-3.98
-1.70
0.41
2.59
4.93
7.36
9.78
12.06
14.15
16.06
17.72
19.06
19.96
20.41
20.53
20.60
20.93
21.72
22.93
24.29
25.38
25.82
25.37
24.01
21.96
19.50
16.93
14.49
12.36
10.58
9.11
7.80
6.37
4.58
2.18
-0.87
-4.43
-8.16
-11.61
-14.39
-16.33
-17.59
-18.63
-20.15
-22.89
-27.27
-33.20
-39.94
-46.14
-50.26
-51.00
-47.77
-40.89
-31.52
-21.26
-11.60
-3.57
2.55
7.08
10.70
14.07
17.58
21.32
25.12
28.68
31.75
34.13
35.74
36.54
36.61
36.13
35.38
34.75
34.57
34.96
35.81
36.80
37.51
37.63
37.08
35.98
34.60
33.17
31.80
30.41
28.82
26.87
24.49
21.77
18.89
16.02
13.26
10.54
7.70
4.58
1.13
-2.57
-6.30
-9.78
-12.80
-15.32
-17.50
-19.63
-22.11
-25.31
-29.46
-34.55
-40.17
-45.51
-49.46
-50.86
-48.90
-43.41
-35.04
-25.06
-15.03
-6.33
0.31
4.85
7.86
10.20
12.60
15.41
18.65
22.01
25.20
28.05
30.53
32.78
34.88
36.79
38.39
39.57
40.28
40.63
40.81
40.94
41.00
40.84
40.25
39.08
37.36
35.24
32.90
30.50
28.04
25.50
22.88
20.27
17.85
15.86
14.38
13.36
12.55
11.55
10.04
7.79
4.81
1.31
-2.42
-6.10
-9.61
-12.95
-16.38
-20.22
-24.85
-30.48
-37.01
-43.83
-49.86
-53.80
-54.43
-51.23
-44.49
-35.43
-25.65
-16.65
-9.34
-3.89
0.14
3.40
6.43
9.54
12.85
16.34
19.97
23.62
27.15
30.35
33.02
35.07
36.52
37.49
38.13
38.60
38.97
39.31
39.65
39.91
40.00
39.70
38.88
37.58
35.97
34.32
32.82
31.42
29.94
28.17
26.04
23.72
21.53
19.81
18.66
17.96
17.34
16.45
15.02
12.99
10.51
7.84
5.27
3.02
1.24
-0.13
-1.31
-2.69
-4.75
-7.78
-11.71
-15.94
-19.37
-20.75
-19.08
-14.10
-6.36
2.87
12.06
19.89
25.57
28.91
30.21
29.94
28.59
26.58
24.22
21.81
19.58
17.67
16.18
15.10
14.41
14.07
14.08
14.31
14.66
14.91
14.92
14.61
13.94
12.90
11.38
9.25
6.41
2.92
-0.96
-4.78
-8.12
-10.73
-12.61
-14.02
-15.34
-16.96
-19.23
-22.54
-27.26
-33.79
-42.32
-52.74
-64.54
-76.90
-88.83
-99.44
-108.05
-114.20
-117.52
-117.75
-114.79
-108.86
-100.62
-91.14
-81.48
-72.29
-63.43
-54.04
-42.99
-29.57
-14.06
2.28
17.58
30.24
39.45
45.40
49.00
51.28
52.96
54.28
55.21
55.61
55.48
54.96
54.26
53.53
52.73
51.74
50.42
48.72
46.69
44.47
42.27
40.23
38.40
36.64
34.72
32.34
29.31
25.63
21.52
17.35
13.56
10.46
8.14
6.44
5.01
3.43
1.36
-1.31
-4.48
-7.82
-10.99
-13.69
-15.84
-17.58
-19.27
-21.30
-23.98
-27.46
-31.59
-35.90
-39.68
-42.05
-42.22
-39.70
-34.52
-27.26
-18.96
-10.82
-3.87
1.31
4.68
6.67
7.94
9.13
10.60
12.39
14.29
16.02
17.42
18.57
19.66
20.91
22.38
23.90
25.17
25.92
26.03
25.64
25.07
24.58
24.23
23.86
23.16
21.87
19.91
17.51
15.05
12.93
11.37
10.31
9.43
8.34
6.75
4.56
1.89
-0.95
-3.67
-6.10
-8.25
-10.29
-12.46
-15.02
-18.20
-22.23
-27.22
-33.14
-39.59
-45.78
-50.55
-52.75
-51.58
-46.92
-39.55
-30.79
-22.21
-15.01
-9.73
-6.18
-3.69
-1.44
1.22
4.56
8.50
12.71
16.83
20.61
23.96
26.97
29.74
32.40
34.94
37.32
39.46
41.36
43.07
44.68
46.28
47.90
49.50
51.00
52.29
53.27
53.84
53.93
53.53
52.71
51.65
50.62
49.86
49.54
49.62
49.86
49.77
48.80
46.42
42.27
36.33
28.87
20.46
11.71
3.02
-5.49
-14.04
-22.95
-32.31
-41.71
-50.19
-56.49
-59.46
-58.51
-53.99
-47.11
-39.62
-33.25
-29.12
-27.44
-27.43
-27.76
-27.05
-24.41
-19.75
-13.66
-7.15
-1.25
3.32
6.28
7.67
7.77
6.99
5.87
5.01
4.96
6.06
8.26
11.14
13.96
16.02
16.88
16.50
15.13
13.06
10.51
7.56
4.31
1.00
-1.87
-3.72
-4.13
-3.09
-1.04
1.27
3.10
3.96
3.70
2.39
0.19
-2.79
-6.57
-11.22
-16.81
-23.30
-30.59
-38.40
-46.27
-53.53
-59.31
-62.75
-63.24
-60.72
-55.76
-49.48
-43.18
-37.83
-33.85
-30.97
-28.46
-25.53
-21.66
-16.76
-11.09
-5.05
1.06
6.91
12.16
16.18
18.18
17.32
13.18
6.01
-3.20
-12.97
-21.71
-28.04
-30.97
-29.97
-25.01
-16.66
-6.21
4.33
12.49
15.91
13.03
3.51
-11.51
-29.81
-48.68
-65.67
-79.15
-88.45
-93.73
-95.53
-94.48
-91.16
-86.14
-80.15
-74.10
-68.86
-64.78
-61.50
-57.98
-52.93
-45.42
-35.40
-23.84
-12.31
-2.32
5.20
10.26
13.68
16.54
19.68
23.26
26.87
29.77
31.40
31.67
30.96
29.88
29.03
28.69
28.83
29.17
29.41
29.35
28.91
28.15
27.17
26.02
24.68
23.07
21.07
18.66
15.89
12.95
10.12
7.62
5.54
3.79
2.15
0.34
-1.81
-4.30
-6.89
-9.25
-11.01
-11.99
-12.26
-12.17
-12.27
-13.16
-15.30
-18.74
-23.15
-27.71
-31.32
-32.81
-31.34
-26.65
-19.23
-10.20
-0.95
7.26
13.71
18.38
21.70
24.34
26.77
29.13
31.34
33.26
34.85
36.28
37.74
39.30
40.79
41.84
42.08
41.32
39.73
37.76
35.96
34.72
34.12
33.90
33.53
32.37
29.68
24.80
17.26
6.94
-5.79
-20.08
-34.73
-48.52
-60.53
-70.17
-77.19
-81.43
-82.65
-80.59
-75.18
-66.83
-56.40
-45.00
-33.62
-22.79
-12.67
-3.19
5.51
12.96
18.42
21.24
21.17
18.61
14.52
10.05
6.20
3.52
2.00
1.16
0.38
-0.76
-2.10
-2.77
-1.32
3.77
13.50
27.81
45.48
64.20
81.12
93.36
98.65
95.82
85.04
68.03
47.55
26.97
9.45
-2.72
-8.51
-8.13
-2.71
6.03
16.23
25.89
33.11
36.29
34.39
27.30
15.97
2.25
-11.68
-23.88
-33.23
-39.47
-42.96
-44.21
-43.53
-41.04
-36.82
-31.23
-24.93
-18.70
-13.11
-8.37
-4.36
-0.90
1.90
3.46
2.80
-1.20
-9.42
-22.06
-38.33
-56.49
-74.18
-89.12
-99.77
-105.75
-107.54
-105.87
-101.08
-92.81
-80.36
-63.37
-42.50
-19.58
2.82
22.22
37.10
47.22
53.52
57.47
60.42
63.19
65.95
68.32
69.68
69.37
66.78
61.49
53.35
42.57
29.81
16.13
2.75
-9.07
-18.29
-24.07
-25.77
-23.05
-15.88
-4.85
8.74
22.92
35.38
43.84
46.56
42.69
32.39
16.84
-2.07
-22.11
-41.24
-57.95
-71.40
-81.39
-88.03
-91.59
-92.20
-89.87
-84.55
-76.29
-65.31
-52.20
-37.93
-23.72
-10.86
-0.35
7.30
12.26
15.22
17.10
18.78
20.82
23.43
26.49
29.68
32.70
35.26
37.19
38.42
38.98
38.94
38.37
37.45
36.34
35.18
34.09
33.10
32.15
31.11
29.86
28.30
26.40
24.23
21.92
19.56
17.25
14.93
12.53
9.94
7.09
3.96
0.53
-3.23
-7.36
-11.87
-16.62
-21.29
-25.53
-29.03
-31.78
-34.16
-36.86
-40.63
-46.00
-52.91
-60.53
-67.43
-71.94
-72.63
-68.93
-61.30
-51.08
-40.05
-29.82
-21.37
-14.90
-10.04
-6.12
-2.48
1.30
5.36
9.62
13.76
17.48
20.48
22.71
24.30
25.56
26.79
28.12
29.54
30.90
32.06
32.94
33.54
33.84
33.79
33.28
32.22
30.65
28.73
26.75
24.96
23.51
22.40
21.54
20.78
19.97
18.98
17.64
15.79
13.34
10.29
6.84
3.29
-0.04
-2.92
-5.36
-7.55
-9.89
-12.80
-16.70
-21.77
-27.86
-34.35
-40.13
-43.85
-44.26
-40.66
-33.20
-22.80
-11.02
0.48
10.41
18.08
23.51
27.29
30.23
33.08
36.19
39.52
42.66
45.12
46.61
47.14
47.01
46.55
46.02
45.47
44.83
44.03
43.16
42.35
41.73
41.23
40.65
39.70
38.18
36.06
33.46
30.55
27.48
24.30
21.02
17.67
14.28
10.88
7.50
4.08
0.58
-3.01
-6.63
-10.17
-13.44
-16.30
-18.73
-20.82
-22.87
-25.32
-28.69
-33.46
-39.84
-47.53
-55.62
-62.66
-66.91
-66.93
-62.09
-52.82
-40.64
-27.56
-15.52
-5.72
1.60
6.96
11.27
15.30
19.46
23.74
27.87
31.56
34.61
36.95
38.59
39.64
40.21
40.48
40.59
40.70
40.87
41.10
41.33
41.48
41.39
40.89
39.78
37.94
35.44
32.51
29.44
26.51
23.76
21.08
18.25
15.17
11.96
8.93
6.42
4.54
3.17
1.96
0.50
-1.49
-4.09
-7.20
-10.64
-14.24
-17.88
-21.51
-25.21
-29.13
-33.56
-38.74
-44.69
-50.85
-56.10
-58.94
-57.99
-52.65
-43.42
-31.85
-19.97
-9.58
-1.65
3.84
7.56
10.41
13.02
15.71
18.49
21.30
24.03
26.66
29.15
31.41
33.35
34.94
36.13
36.98
37.55
37.94
38.24
38.57
38.98
39.36
39.51
39.19
38.18
36.55
34.54
32.57
31.00
29.95
29.32
28.77
28.02
26.96
25.73
24.64
23.91
23.60
23.44
23.02
21.91
19.84
16.82
13.07
8.95
4.85
1.05
-2.41
-5.69
-9.26
-13.64
-19.26
-26.08
-33.44
-40.03
-44.23
-44.74
-41.16
-34.26
-25.83
-18.11
-13.05
-11.76
-14.21
-19.44
-26.02
-32.51
-37.88
-41.64
-43.79
-44.67
-44.68
-44.06
-42.68
-39.94
-35.00
-27.14
-16.11
-2.44
12.56
27.20
39.91
49.68
56.26
60.02
61.47
60.95
58.39
53.46
45.91
35.95
24.24
11.81
-0.33
-11.40
-20.95
-28.80
-34.79
-38.65
-40.02
-38.67
-34.71
-28.78
-21.94
-15.37
-9.99
-6.27
-4.14
-3.24
-3.15
-3.73
-5.14
-7.69
-11.70
-17.16
-23.56
-29.91
-34.92
-37.31
-36.24
-31.60
-24.11
-15.13
-6.20
1.38
6.98
10.67
13.10
15.11
17.34
20.12
23.34
26.64
29.60
31.95
33.62
34.72
35.50
36.18
36.94
37.85
38.91
40.06
41.18
42.14
42.79
42.94
42.48
41.44
40.03
38.68
37.81
37.72
38.39
39.52
40.57
41.00
40.48
38.92
36.52
33.65
30.72
28.05
25.71
23.55
21.10
17.75
12.90
6.18
-2.34
-12.21
-22.63
-32.73
-41.84
-49.54
-55.86
-61.09
-65.67
-70.05
-74.38
-78.48
-81.61
-82.69
-80.35
-73.54
-61.90
-46.07
-27.73
-9.25
6.87
18.63
24.92
25.62
21.46
13.65
3.60
-7.37
-18.15
-27.84
-35.81
-41.59
-44.85
-45.46
-43.47
-39.19
-33.14
-25.96
-18.29
-10.62
-3.32
3.43
9.47
14.61
18.67
21.50
23.11
23.69
23.57
23.12
22.60
22.07
21.39
20.35
18.79
16.68
14.19
11.49
8.79
6.15
3.56
1.01
-1.44
-3.65
-5.45
-6.79
-7.81
-8.85
-10.32
-12.58
-15.73
-19.50
-23.29
-26.35
-28.03
-28.00
-26.32
-23.44
-19.99
-16.55
-13.65
-11.68
-10.91
-11.43
-13.12
-15.62
-18.46
-21.20
-23.69
-26.07
-28.65
-31.71
-35.31
-39.25
-43.22
-46.83
-49.69
-51.38
-51.47
-49.66
-45.99
-40.94
-35.30
-29.75
-24.59
-19.53
-13.96
-7.34
0.40
8.69
16.61
23.22
27.93
30.64
31.57
31.08
29.46
26.92
23.60
19.78
15.77
11.93
8.56
5.77
3.49
1.39
-0.98
-4.10
-8.38
-14.05
-21.05
-29.00
-37.09
-44.16
-48.86
-50.03
-47.09
-40.35
-30.99
-20.67
-11.04
-3.23
2.38
6.05
8.38
10.00
11.37
12.73
14.21
15.83
17.56
19.25
20.77
21.93
22.63
22.81
22.53
21.90
21.05
20.21
19.54
19.19
19.09
19.07
18.84
18.14
16.90
15.28
13.56
12.00
10.72
9.61
8.38
6.79
4.74
2.40
0.07
-1.93
-3.49
-4.67
-5.66
-6.57
-7.34
-7.74
-7.48
-6.45
-4.84
-3.16
-2.11
-2.39
-4.58
-9.03
-15.67
-24.02
-33.01
-41.17
-46.86
-48.65
-45.85
-38.77
-28.71
-17.60
-7.43
0.30
4.93
6.63
6.16
4.46
2.35
0.40
-1.08
-1.91
-1.97
-1.11
0.71
3.42
6.82
10.53
14.13
17.22
19.53
20.99
21.74
22.09
22.46
23.18
24.44
26.24
28.42
30.74
33.05
35.21
37.05
38.34
38.77
38.07
36.07
32.93
29.05
25.01
21.38
18.48
16.41
15.04
14.16
13.52
12.90
11.97
10.36
7.63
3.42
-2.32
-9.27
-16.62
-23.29
-28.07
-30.03
-28.71
-24.27
-17.43
-9.30
-1.19
5.68
10.28
12.00
10.64
6.60
0.90
-4.95
-9.29
-10.82
-9.13
-4.84
0.66
5.72
9.14
10.43
9.83
7.90
5.18
1.97
-1.59
-5.28
-8.71
-11.32
-12.65
-12.62
-11.57
-10.08
-8.70
-7.76
-7.20
-6.81
-6.37
-5.92
-5.82
-6.64
-9.05
-13.40
-19.71
-27.55
-36.23
-45.15
-53.91
-62.49
-71.03
-79.70
-88.41
-96.78
-104.00
-109.03
-110.81
-108.48
-101.77
-91.20
-78.08
-64.21
-51.39
-40.90
-33.18
-27.78
-23.83
-20.35
-16.64
-12.47
-7.95
-3.39
0.87
4.64
7.89
10.77
13.53
16.41
19.54
22.96
26.58
30.17
33.52
36.38
38.56
39.91
40.34
39.83
38.44
36.32
33.70
30.87
28.09
25.61
23.49
21.62
19.79
17.79
15.48
12.80
9.77
6.39
2.65
-1.43
-5.76
-10.22
-14.65
-18.98
-23.39
-28.15
-33.66
-40.19
-47.70
-55.78
-63.55
-69.85
-73.46
-73.37
-69.15
-61.19
-50.54
-38.71
-27.21
-17.05
-8.53
-1.25
5.61
12.84
20.84
29.53
38.44
46.94
54.50
60.75
65.36
67.99
68.21
65.70
60.45
52.94
44.05
34.84
26.18
18.58
12.20
7.01
3.03
0.41
-0.65
-0.05
2.03
5.15
8.72
12.15
15.03
17.11
18.30
18.63
18.14
16.85
14.77
11.95
8.50
4.67
0.73
-2.98
-6.24
-9.00
-11.42
-13.91
-16.98
-21.14
-26.62
-33.11
-39.68
-44.82
-46.84
-44.38
-36.93
-25.09
-10.44
4.91
18.83
29.72
36.74
39.86
39.62
36.85
32.38
26.85
20.75
14.43
8.35
3.11
-0.58
-2.12
-1.25
1.86
6.57
12.07
17.58
22.59
26.76
29.94
31.97
32.77
32.34
30.81
28.54
25.99
23.71
22.13
21.53
21.87
22.83
23.86
24.38
23.98
22.59
20.51
18.26
16.36
15.12
14.44
13.86
12.63
9.95
5.10
-2.23
-11.74
-22.41
-32.61
-40.41
-44.20
-43.19
-37.77
-29.53
-20.72
-13.67
-10.01
-10.33
-14.10
-20.02
-26.58
-32.51
-37.12
-40.22
-41.95
-42.43
-41.66
-39.54
-35.98
-31.05
-25.04
-18.34
-11.32
-4.26
2.64
9.24
15.28
20.44
24.36
26.83
27.84
27.63
26.64
25.36
24.21
23.36
22.79
22.29
21.57
20.35
18.47
15.91
12.75
9.20
5.45
1.64
-2.16
-5.94
-9.70
-13.39
-16.93
-20.29
-23.62
-27.27
-31.67
-37.10
-43.43
-49.91
-55.29
-58.15
-57.38
-52.68
-44.67
-34.76
-24.67
-15.82
-8.94
-3.93
-0.12
3.33
7.10
11.43
16.25
21.29
26.28
31.00
35.33
39.20
42.56
45.41
47.81
49.83
51.60
53.19
54.64
55.87
56.77
57.14
56.86
55.86
54.21
52.10
49.75
47.36
44.99
42.58
40.02
37.18
34.02
30.62
27.17
23.88
20.90
18.30
15.95
13.61
10.98
7.84
4.20
0.22
-3.78
-7.54
-10.95
-14.14
-17.49
-21.50
-26.59
-32.86
-39.84
-46.45
-51.18
-52.54
-49.62
-42.46
-32.18
-20.56
-9.52
-0.40
6.32
11.00
14.50
17.74
21.31
25.39
29.79
34.14
38.14
41.61
44.53
46.99
49.08
50.84
52.30
53.50
54.50
55.42
56.26
56.94
57.22
56.86
55.68
53.63
50.84
47.48
43.80
39.94
36.03
32.15
28.39
24.82
21.50
18.48
15.66
12.94
10.13
7.18
4.16
1.31
-1.02
-2.60
-3.47
-4.07
-5.22
-7.92
-13.02
-20.88
-31.20
-42.97
-54.59
-64.30
-70.59
-72.55
-70.13
-64.06
-55.62
-46.25
-37.18
-29.12
-22.28
-16.40
-11.02
-5.72
-0.32
5.10
10.26
14.89
18.81
21.99
24.55
26.63
28.30
29.63
30.65
31.40
31.89
32.08
31.82
30.93
29.26
26.84
23.90
20.81
17.96
15.62
13.84
12.42
10.98
9.03
6.19
2.22
-2.78
-8.48
-14.36
-19.98
-25.11
-29.82
-34.35
-38.92
-43.49
-47.69
-50.89
-52.51
-52.32
-50.62
-48.19
-46.05
-45.09
-45.81
-48.14
-51.38
-54.44
-56.01
-55.00
-50.80
-43.50
-33.93
-23.35
-13.11
-4.29
2.60
7.68
11.47
14.66
17.87
21.38
25.26
29.34
33.36
37.12
40.53
43.56
46.26
48.62
50.61
52.19
53.38
54.22
54.76
55.04
55.01
54.57
53.59
51.99
49.87
47.43
44.93
42.62
40.56
38.61
36.50
33.94
30.78
27.17
23.51
20.22
17.59
15.44
13.15
9.90
5.02
-1.68
-9.77
-18.35
-26.43
-33.28
-38.65
-42.73
-45.98
-48.89
-51.90
-55.32
-59.22
-63.25
-66.58
-67.91
-65.91
-59.76
-49.53
-36.39
-22.24
-9.08
1.56
8.98
13.17
14.53
13.64
11.06
7.34
3.06
-1.21
-5.00
-8.06
-10.37
-12.07
-13.36
-14.30
-14.67
-14.02
-11.71
-7.16
-0.14
9.05
19.57
30.19
39.58
46.53
50.20
50.14
46.30
39.03
29.02
17.26
5.02
-6.30
-15.20
-20.30
-20.52
-15.41
-5.39
8.14
22.83
35.90
44.70
47.32
43.02
32.34
16.98
-0.66
-18.03
-33.01
-44.36
-51.88
-56.17
-58.29
-59.20
-59.45
-59.03
-57.59
-54.71
-50.24
-44.48
-38.07
-31.84
-26.51
-22.49
-19.79
-18.09
-17.04
-16.38
-16.18
-16.69
-18.08
-20.13
-22.10
-22.72
-20.65
-14.88
-5.17
7.76
22.29
36.26
47.47
54.16
55.50
51.71
44.04
34.36
24.71
16.81
11.69
9.53
9.73
11.09
12.21
11.84
9.13
3.81
-3.92
-13.60
-24.69
-36.58
-48.49
-59.33
-67.86
-73.02
-74.31
-72.07
-67.49
-62.10
-57.32
-54.04
-52.50
-52.28
-52.58
-52.40
-50.75
-46.92
-40.65
-32.29
-22.68
-12.91
-3.92
3.74
9.94
14.85
18.70
21.70
23.90
25.35
26.13
26.32
25.98
25.21
24.10
22.83
21.64
20.76
20.30
20.20
20.26
20.32
20.34
20.37
20.51
20.79
21.08
21.26
21.23
20.97
20.48
19.75
18.66
17.14
15.12
12.74
10.18
7.63
5.13
2.60
-0.10
-3.08
-6.31
-9.59
-12.67
-15.35
-17.52
-19.32
-21.08
-23.26
-26.28
-30.30
-35.05
-39.76
-43.31
-44.52
-42.60
-37.44
-29.72
-20.71
-11.89
-4.39
1.28
5.36
8.57
11.76
15.52
20.10
25.40
31.26
37.62
44.63
52.52
61.42
71.15
81.18
90.68
98.65
104.18
106.54
105.40
100.98
94.12
86.23
78.91
73.43
70.31
69.03
68.36
66.85
63.41
57.72
50.09
41.22
31.85
22.50
13.55
5.22
-2.37
-9.34
-16.10
-23.24
-31.28
-40.35
-49.98
-59.29
-67.31
-73.35
-77.29
-79.55
-80.90
-82.11
-83.68
-85.54
-87.12
-87.41
-85.31
-80.04
-71.49
-60.35
-48.00
-36.00
-25.71
-17.76
-12.10
-8.10
-5.00
-2.13
0.74
3.51
5.84
7.40
8.10
8.14
7.92
7.82
7.99
8.29
8.35
7.74
6.29
4.10
1.48
-1.16
-3.62
-5.84
-7.99
-10.35
-13.18
-16.75
-21.35
-27.15
-34.15
-42.11
-50.43
-58.34
-65.10
-70.30
-74.00
-76.70
-78.93
-80.93
-82.48
-82.93
-81.73
-78.79
-74.67
-70.39
-66.84
-64.30
-62.15
-59.08
-53.64
-44.89
-32.84
-18.48
-3.44
10.48
21.84
29.88
34.59
36.66
37.15
37.19
37.66
38.98
41.14
43.81
46.54
48.86
50.45
51.11
50.81
49.69
48.03
46.17
44.42
43.01
41.94
40.98
39.71
37.62
34.24
29.34
23.15
16.38
10.11
5.44
3.10
3.16
5.02
7.63
9.94
11.23
11.25
10.17
8.41
6.38
4.37
2.45
0.45
-2.01
-5.34
-9.83
-15.43
-21.57
-27.25
-31.24
-32.50
-30.59
-25.84
-19.27
-12.22
-5.86
-0.76
3.14
6.42
9.78
13.70
18.18
22.78
26.77
29.44
30.44
29.97
28.79
28.07
28.94
32.12
37.72
45.22
53.77
62.55
71.00
78.91
86.23
92.84
98.39
102.25
103.72
102.14
97.14
88.65
76.97
62.67
46.63
29.92
13.77
-0.64
-12.39
-20.96
-26.34
-29.12
-30.31
-31.11
-32.68
-35.86
-41.03
-48.18
-56.95
-66.88
-77.41
-87.96
-97.86
-106.31
-112.40
-115.35
-114.75
-110.79
-104.34
-96.60
-88.75
-81.52
-75.01
-68.88
-62.70
-56.32
-49.92
-43.89
-38.48
-33.54
-28.57
-22.94
-16.17
-8.05
1.22
11.16
21.02
29.86
36.72
40.92
42.33
41.57
39.86
38.63
38.94
41.03
44.31
47.71
50.20
51.28
51.14
50.39
49.66
49.23
48.92
48.23
46.71
44.23
40.94
37.17
33.10
28.69
23.70
17.93
11.41
4.56
-2.06
-8.00
-13.15
-17.91
-22.96
-28.96
-36.06
-43.69
-50.57
-55.13
-56.04
-52.79
-45.92
-36.83
-27.27
-18.72
-11.91
-6.75
-2.57
1.48
5.99
11.07
16.40
21.46
25.81
29.24
31.81
33.73
35.22
36.36
37.13
37.43
37.22
36.57
35.63
34.56
33.40
32.04
30.23
27.71
24.34
20.25
15.80
11.57
8.14
5.89
4.87
4.75
4.93
4.76
3.83
1.97
-0.62
-3.59
-6.56
-9.31
-11.87
-14.47
-17.52
-21.38
-26.35
-32.41
-39.25
-46.15
-52.08
-55.84
-56.39
-53.17
-46.33
-36.78
-25.95
-15.38
-6.28
0.80
5.93
9.64
12.58
15.23
17.80
20.30
22.68
24.89
26.91
28.71
30.19
31.24
31.75
31.80
31.59
31.45
31.59
32.02
32.45
32.35
31.21
28.79
25.31
21.43
18.06
15.90
15.23
15.71
16.58
17.04
16.70
15.72
14.82
14.88
16.55
19.89
24.20
28.25
30.71
30.42
26.80
19.95
10.56
-0.22
-11.00
-20.38
-27.35
-31.55
-33.63
-35.20
-38.33
-44.67
-54.49
-66.41
-77.72
-85.57
-88.13
-85.29
-78.37
-69.13
-58.80
-47.63
-35.29
-21.77
-8.15
3.46
10.75
12.32
8.45
1.02
-7.25
-13.96
-17.87
-19.06
-18.48
-17.15
-15.59
-13.64
-10.75
-6.56
-1.24
4.48
9.53
13.04
14.71
14.85
14.23
13.66
13.56
13.87
14.08
13.63
12.20
9.91
7.29
4.99
3.53
3.05
3.32
3.81
3.97
3.42
2.02
-0.05
-2.42
-4.56
-5.93
-6.06
-4.77
-2.23
0.96
3.94
5.86
6.11
4.64
1.80
-1.73
-5.24
-8.17
-10.16
-11.00
-10.65
-9.23
-7.06
-4.67
-2.56
-1.11
-0.39
-0.14
0.00
0.40
1.20
2.35
3.68
4.99
6.12
6.97
7.46
7.57
7.34
6.87
6.33
5.87
5.62
5.64
5.83
6.05
6.13
5.93
5.41
4.61
3.65
2.67
1.77
1.01
0.40
-0.08
-0.39
-0.49
-0.45
-0.44
-0.80
-1.92
-4.08
-7.27
-11.05
-14.55
-16.73
-16.71
-14.09
-9.13
-2.73
3.89
9.61
13.74
16.15
17.23
17.62
17.90
18.36
18.80
18.66
17.13
13.57
7.84
0.52
-7.14
-13.56
-17.31
-17.67
-14.84
-9.91
-4.42
0.03
2.40
2.41
0.62
-1.79
-3.47
-3.32
-0.95
3.15
7.85
11.62
13.14
11.67
7.34
1.11
-5.34
-10.04
-11.22
-7.81
0.16
11.33
23.34
33.43
39.19
39.29
33.75
23.81
11.41
-1.30
-12.61
-21.42
-27.25
-30.18
-30.64
-29.25
-26.63
-23.31
-19.70
-16.02
-12.45
-9.11
-6.10
-3.54
-1.56
-0.18
0.69
1.28
1.95
3.09
4.94
7.51
10.54
13.53
15.93
17.36
17.72
17.17
16.05
14.68
13.26
11.78
10.12
8.13
5.75
3.11
0.59
-1.32
-2.07
-1.32
0.94
4.30
8.02
11.22
13.19
13.50
12.15
9.42
5.71
1.34
-3.49
-8.78
-14.67
-21.33
-28.86
-37.08
-45.40
-52.86
-58.28
-60.65
-59.52
-55.17
-48.57
-41.07
-33.90
-27.91
-23.38
-20.19
-17.96
-16.24
-14.69
-12.99
-10.97
-8.47
-5.46
-2.00
1.71
5.41
8.77
11.52
13.47
14.63
15.25
15.75
16.62
18.24
20.71
23.82
27.05
29.80
31.61
32.21
31.64
30.12
27.94
25.38
22.70
20.12
17.80
15.80
14.02
12.27
10.28
7.91
5.21
2.41
-0.10
-2.06
-3.38
-4.25
-5.12
-6.55
-9.04
-12.72
-17.23
-21.63
-24.61
-24.83
-21.43
-14.43
-4.71
6.23
16.77
25.70
32.55
37.52
41.26
44.55
48.00
51.89
56.06
59.89
62.31
62.02
57.94
49.61
37.54
23.12
8.26
-5.24
-16.18
-24.11
-29.29
-32.31
-33.76
-34.11
-33.81
-33.31
-33.08
-33.57
-34.92
-36.89
-38.86
-40.00
-39.54
-37.04
-32.58
-26.77
-20.63
-15.33
-11.87
-10.81
-12.19
-15.54
-20.15
-25.38
-30.84
-36.50
-42.56
-49.32
-57.03
-65.72
-75.11
-84.49
-92.70
-98.23
-99.56
-95.56
-85.99
-71.67
-54.33
-36.19
-19.36
-5.30
5.35
12.81
17.85
21.42
24.35
27.23
30.35
33.81
37.57
41.49
45.41
49.05
52.09
54.27
55.44
55.66
55.18
54.34
53.30
52.01
50.12
47.22
43.00
37.51
31.20
24.75
18.88
14.02
10.19
6.97
3.77
0.11
-4.18
-8.87
-13.46
-17.43
-20.46
-22.59
-24.16
-25.68
-27.68
-30.57
-34.50
-39.28
-44.28
-48.47
-50.63
-49.72
-45.30
-37.70
-28.02
-17.69
-7.98
0.33
7.13
12.82
17.96
23.03
28.22
33.45
38.51
43.18
47.31
50.88
53.93
56.56
58.85
60.86
62.56
63.90
64.77
65.03
64.62
63.53
61.84
59.76
57.50
55.20
52.90
50.57
48.13
45.53
42.69
39.50
35.75
31.17
25.54
18.75
10.92
2.43
-6.18
-14.32
-21.55
-27.61
-32.55
-36.66
-40.42
-44.37
-48.98
-54.50
-60.87
-67.55
-73.57
-77.69
-78.78
-76.16
-69.96
-61.08
-50.97
-41.09
-32.57
-25.88
-20.88
-17.00
-13.59
-10.07
-6.22
-2.06
2.13
6.02
9.37
12.13
14.40
16.41
18.28
20.02
21.52
22.61
23.16
23.19
22.73
21.84
20.53
18.81
16.72
14.40
12.04
9.82
7.81
5.96
4.12
2.21
0.34
-1.21
-2.01
-1.67
0.01
2.89
6.51
10.26
13.50
15.83
17.16
17.65
17.53
16.93
15.68
13.40
9.64
4.16
-2.96
-11.12
-19.31
-26.13
-30.15
-30.20
-25.84
-17.47
-6.44
5.40
16.22
24.68
30.30
33.23
34.05
33.41
31.74
29.30
26.23
22.67
18.85
15.02
11.44
8.33
5.88
4.21
3.45
3.66
4.88
7.04
9.99
13.42
16.97
20.28
23.04
25.08
26.33
26.85
26.68
25.95
24.79
23.38
21.91
20.50
19.15
17.67
15.80
13.23
9.79
5.47
0.41
-5.11
-10.80
-16.34
-21.54
-26.31
-30.74
-35.12
-39.87
-45.41
-51.86
-58.94
-65.82
-71.24
-74.00
-73.30
-69.25
-62.83
-55.55
-48.91
-43.78
-40.19
-37.49
-34.73
-31.17
-26.48
-20.81
-14.54
-8.07
-1.67
4.48
10.27
15.52
19.99
23.48
25.83
27.07
27.45
27.38
27.32
27.63
28.38
29.46
30.50
31.18
31.34
31.15
30.92
31.04
31.73
32.89
34.08
34.74
34.38
32.78
30.13
26.96
23.87
21.30
19.39
17.93
16.50
14.60
11.84
7.93
2.82
-3.22
-9.64
-15.48
-19.61
-21.04
-19.27
-14.60
-8.06
-1.06
5.05
9.49
12.09
13.23
13.52
13.48
13.41
13.43
13.47
13.47
13.37
13.20
12.95
12.65
12.25
11.69
10.91
9.89
8.67
7.39
6.20
5.18
4.34
3.59
2.78
1.78
0.55
-0.84
-2.29
-3.69
-4.96
-6.12
-7.26
-8.58
-10.30
-12.64
-15.67
-19.28
-23.16
-26.88
-30.04
-32.48
-34.29
-35.82
-37.54
-39.86
-43.00
-46.96
-51.45
-55.89
-59.45
-61.18
-60.20
-56.05
-48.89
-39.60
-29.56
-20.19
-12.58
-7.12
-3.50
-0.96
1.34
3.96
7.04
10.27
13.20
15.46
16.98
17.99
18.85
19.84
21.01
22.19
23.12
23.67
23.83
23.75
23.57
23.31
22.84
22.01
20.74
19.08
17.18
15.27
13.46
11.79
10.20
8.65
7.12
5.62
4.18
2.77
1.27
-0.50
-2.69
-5.37
-8.46
-11.73
-14.92
-17.76
-20.15
-22.14
-24.00
-26.14
-28.89
-32.36
-36.24
-39.71
-41.64
-40.93
-37.05
-30.27
-21.66
-12.72
-4.85
1.14
5.08
7.43
8.84
9.92
11.08
12.48
14.14
16.03
18.07
20.13
22.02
23.59
24.73
25.46
25.93
26.35
26.90
27.68
28.66
29.62
30.28
30.27
29.40
27.59
25.02
22.02
19.02
16.34
14.14
12.35
10.69
8.84
6.58
3.90
1.04
-1.69
-4.08
-6.12
-8.03
-10.11
-12.53
-15.26
-17.96
-20.20
-21.64
-22.25
-22.29
-22.30
-22.94
-24.70
-27.78
-31.91
-36.37
-40.12
-42.06
-41.33
-37.63
-31.27
-23.16
-14.56
-6.70
-0.44
3.89
6.53
8.08
9.24
10.57
12.33
14.48
16.78
18.99
20.94
22.60
24.05
25.38
26.60
27.65
28.39
28.71
28.56
27.98
27.08
25.95
24.57
22.84
20.64
17.96
14.97
11.93
9.18
6.86
4.98
3.31
1.58
-0.41
-2.70
-5.18
-7.64
-9.92
-11.99
-13.90
-15.77
-17.68
-19.65
-21.67
-23.82
-26.29
-29.38
-33.32
-37.99
-42.77
-46.56
-48.10
-46.40
-41.24
-33.27
-23.87
-14.64
-6.87
-1.22
2.37
4.45
5.69
6.63
7.55
8.53
9.56
10.66
11.87
13.20
14.56
15.87
16.98
17.88
18.67
19.49
20.49
21.67
22.86
23.78
24.16
23.79
22.66
20.92
18.84
16.73
14.87
13.39
12.25
11.27
10.26
9.05
7.59
5.90
3.95
1.72
-0.83
-3.69
-6.74
-9.80
-12.67
-15.25
-17.57
-19.74
-21.97
-24.45
-27.37
-30.85
-34.79
-38.82
-42.14
-43.79
-42.87
-38.95
-32.37
-24.16
-15.69
-8.27
-2.73
0.81
2.77
3.89
4.87
6.11
7.73
9.65
11.71
13.82
15.96
18.08
20.07
21.74
22.97
23.78
24.34
24.95
25.85
27.04
28.33
29.32
29.63
29.05
27.61
25.56
23.25
21.03
19.08
17.43
15.96
14.51
12.96
11.32
9.70
8.15
6.67
5.09
3.18
0.76
-2.11
-5.21
-8.20
-10.85
-13.14
-15.26
-17.53
-20.23
-23.50
-27.35
-31.63
-36.06
-40.12
-43.08
-44.10
-42.49
-38.06
-31.22
-23.03
-14.80
-7.66
-2.26
1.33
3.47
4.69
5.46
6.10
6.82
7.76
8.97
10.43
12.00
13.46
14.64
15.46
15.99
16.37
16.80
17.37
18.07
18.77
19.31
19.51
19.28
18.64
17.65
16.47
15.16
13.77
12.29
10.69
9.01
7.31
5.75
4.42
3.38
2.55
1.69
0.46
-1.41
-4.05
-7.33
-10.84
-14.16
-16.92
-19.07
-20.79
-22.53
-24.74
-27.76
-31.59
-35.86
-39.77
-42.30
-42.46
-39.69
-34.09
-26.49
-18.11
-10.27
-3.82
0.93
4.17
6.32
7.79
8.83
9.52
9.93
10.15
10.38
10.79
11.54
12.65
13.97
15.31
16.41
17.10
17.35
17.24
16.97
16.75
16.66
16.63
16.47
15.92
14.79
13.07
10.90
8.63
6.58
5.03
4.01
3.30
2.52
1.30
-0.57
-2.98
-5.60
-7.95
-9.71
-10.84
-11.64
-12.66
-14.45
-17.33
-21.31
-26.00
-30.73
-34.67
-36.97
-36.98
-34.44
-29.56
-23.06
-15.93
-9.22
-3.67
0.42
3.19
5.08
6.52
7.82
9.00
10.04
10.83
11.43
11.96
12.60
13.45
14.50
15.60
16.58
17.29
17.66
17.68
17.42
16.92
16.26
15.49
14.63
13.66
12.48
11.04
9.31
7.37
5.39
3.57
1.96
0.52
-0.97
-2.72
-4.88
-7.34
-9.83
-12.06
-13.79
-14.99
-15.86
-16.69
-17.83
-19.61
-22.25
-25.85
-30.27
-35.01
-39.21
-41.78
-41.71
-38.46
-32.22
-23.91
-14.91
-6.64
-0.08
4.34
6.80
7.85
8.12
8.20
8.45
9.06
10.02
11.27
12.65
13.98
15.13
16.02
16.64
17.04
17.32
17.60
18.00
18.55
19.27
20.05
20.75
21.18
21.18
20.64
19.53
17.89
15.83
13.50
11.03
8.52
6.04
3.61
1.19
-1.29
-3.95
-6.86
-9.94
-12.98
-15.74
-18.00
-19.77
-21.29
-22.91
-25.01
-27.87
-31.57
-35.96
-40.61
-44.78
-47.51
-47.85
-45.17
-39.46
-31.51
-22.59
-14.11
-7.07
-1.90
1.54
3.67
4.97
5.78
6.40
7.08
8.04
9.42
11.23
13.32
15.44
17.40
19.11
20.51
21.59
22.29
22.57
22.46
22.09
21.64
21.24
20.91
20.49
19.79
18.69
17.16
15.35
13.42
11.53
9.70
7.98
6.31
4.70
3.11
1.44
-0.45
-2.67
-5.28
-8.20
-11.22
-14.09
-16.57
-18.58
-20.26
-21.97
-24.21
-27.43
-31.75
-36.88
-41.95
-45.77
-47.18
-45.41
-40.41
-32.89
-24.09
-15.37
-7.84
-2.07
1.92
4.52
6.23
7.49
8.58
9.58
10.51
11.40
12.32
13.35
14.52
15.76
16.92
17.91
18.63
19.17
19.70
20.41
21.38
22.54
23.65
24.38
24.39
23.48
21.66
19.24
16.67
14.40
12.71
11.58
10.65
9.44
7.58
4.97
1.80
-1.57
-4.77
-7.61
-10.07
-12.29
-14.47
-16.82
-19.60
-23.11
-27.58
-32.96
-38.81
-44.19
-47.89
-48.70
-45.97
-39.80
-31.18
-21.61
-12.66
-5.46
-0.44
2.58
4.26
5.29
6.21
7.31
8.69
10.32
12.11
13.98
15.83
17.59
19.18
20.54
21.59
22.34
22.79
23.05
23.27
23.50
23.69
23.64
23.06
21.76
19.72
17.18
14.51
12.15
10.33
9.05
8.04
6.85
5.05
2.37
-1.13
-5.11
-9.03
-12.45
-15.18
-17.37
-19.46
-21.90
-25.10
-29.29
-34.49
-40.54
-46.97
-52.97
-57.37
-58.95
-56.88
-51.12
-42.56
-32.80
-23.53
-15.97
-10.48
-6.66
-3.72
-0.97
1.94
4.99
8.03
10.95
13.82
16.78
19.89
23.04
26.00
28.53
30.55
32.11
33.39
34.53
35.53
36.26
36.55
36.25
35.38
34.06
32.51
30.85
29.14
27.30
25.24
22.90
20.31
17.60
14.91
12.32
9.75
7.05
4.03
0.65
-2.97
-6.54
-9.80
-12.63
-15.13
-17.62
-20.49
-24.09
-28.64
-34.27
-40.91
-48.17
-55.25
-60.92
-63.80
-62.78
-57.54
-48.73
-37.83
-26.68
-16.85
-9.23
-3.87
-0.24
2.44
4.81
7.31
10.10
13.17
16.46
19.89
23.33
26.65
29.71
32.39
34.62
36.45
37.94
39.20
40.30
41.19
41.77
41.89
41.45
40.43
38.88
36.96
34.80
32.57
30.33
28.06
25.66
23.01
20.10
17.07
14.21
11.79
9.94
8.45
6.95
4.95
2.17
-1.36
-5.31
-9.29
-13.00
-16.40
-19.70
-23.21
-27.32
-32.32
-38.37
-45.35
-52.77
-59.61
-64.47
-65.97
-63.17
-56.04
-45.54
-33.35
-21.35
-10.99
-2.99
2.72
6.76
9.90
12.71
15.47
18.17
20.65
22.84
24.76
26.56
28.39
30.34
32.34
34.25
35.97
37.41
38.57
39.44
39.96
40.02
39.53
38.50
37.03
35.27
33.36
31.32
29.05
26.50
23.66
20.63
17.64
14.85
12.37
10.10
7.85
5.42
2.67
-0.40
-3.67
-6.95
-10.11
-13.10
-15.97
-18.90
-22.12
-25.93
-30.61
-36.26
-42.58
-48.78
-53.60
-55.65
-53.86
-47.95
-38.61
-27.29
-15.72
-5.31
3.12
9.50
14.17
17.64
20.29
22.33
23.84
24.92
25.73
26.49
27.43
28.66
30.13
31.71
33.15
34.25
34.93
35.24
35.34
35.41
35.53
35.58
35.29
34.31
32.36
29.41
25.64
21.43
17.19
13.24
9.72
6.59
3.69
0.78
-2.41
-6.06
-10.19
-14.62
-19.04
-23.11
-26.62
-29.60
-32.34
-35.31
-38.95
-43.65
-49.47
-56.16
-62.99
-68.79
-72.17
-71.92
-67.42
-59.01
-47.86
-35.66
-24.07
-14.25
-6.60
-0.91
3.41
7.06
10.54
14.18
18.08
22.22
26.50
30.73
34.71
38.26
41.24
43.59
45.31
46.45
47.09
47.27
46.98
46.14
44.66
42.49
39.72
36.53
33.17
29.84
26.63
23.51
20.47
17.51
14.84
12.62
10.97
9.72
8.51
6.80
4.25
0.78
-3.34
-7.67
-11.86
-15.75
-19.50
-23.39
-27.80
-32.97
-38.96
-45.64
-52.51
-58.76
-63.27
-64.85
-62.63
-56.38
-46.68
-34.86
-22.59
-11.42
-2.34
4.36
9.02
12.30
14.91
17.37
19.92
22.62
25.42
28.21
30.85
33.23
35.18
36.65
37.61
38.15
38.42
38.55
38.60
38.50
38.12
37.31
36.01
34.27
32.19
29.90
27.46
24.90
22.19
19.28
16.17
12.88
9.43
5.87
2.28
-1.29
-4.76
-8.08
-11.20
-14.12
-16.86
-19.44
-21.87
-24.18
-26.40
-28.69
-31.33
-34.69
-39.10
-44.65
-50.95
-57.09
-61.77
-63.64
-61.80
-56.12
-47.38
-37.04
-26.75
-17.83
-10.95
-6.06
-2.54
0.36
3.26
6.47
9.93
13.41
16.66
19.58
22.19
24.58
26.81
28.83
30.50
31.67
32.32
32.59
32.71
32.91
33.20
33.41
33.13
31.96
29.66
26.29
22.27
18.20
14.72
12.23
10.72
9.83
8.97
7.57
5.30
2.19
-1.47
-5.28
-8.89
-12.12
-14.98
-17.60
-20.23
-23.22
-26.93
-31.59
-37.09
-42.76
-47.45
-49.79
-48.69
-43.80
-35.73
-25.85
-15.90
-7.32
-0.95
3.22
5.79
7.62
9.51
11.84
14.64
17.67
20.63
23.39
25.97
28.50
31.02
33.44
35.54
37.07
37.94
38.25
38.22
38.05
37.72
37.02
35.65
33.38
30.19
26.29
22.06
17.92
14.17
10.99
8.34
6.01
3.66
0.97
-2.28
-6.05
-10.08
-13.95
-17.30
-19.96
-22.09
-24.06
-26.41
-29.63
-34.09
-39.86
-46.56
-53.37
-59.02
-62.19
-61.82
-57.62
-50.14
-40.65
-30.67
-21.47
-13.72
-7.45
-2.22
2.51
7.21
12.07
17.03
21.89
26.36
30.16
33.07
35.02
36.03
36.24
35.87
35.15
34.35
33.68
33.27
33.13
33.18
33.18
32.87
31.99
30.44
28.29
25.83
23.47
21.54
20.17
19.16
18.14
16.71
14.69
12.20
9.61
7.29
5.43
3.91
2.41
0.54
-1.95
-5.08
-8.61
-12.21
-15.50
-18.32
-20.70
-22.91
-25.40
-28.63
-32.96
-38.44
-44.71
-50.96
-56.06
-58.78
-58.18
-53.98
-46.74
-37.70
-28.35
-20.03
-13.38
-8.37
-4.42
-0.82
3.01
7.30
11.89
16.46
20.63
24.12
26.81
28.73
30.05
30.92
31.46
31.72
31.71
31.47
31.14
30.89
30.88
31.07
31.21
30.99
30.13
28.65
26.80
25.00
23.58
22.65
22.06
21.46
20.58
19.24
17.44
15.28
12.88
10.35
7.78
5.24
2.79
0.42
-2.00
-4.63
-7.58
-10.83
-14.16
-17.26
-19.84
-21.83
-23.35
-24.73
-26.39
-28.75
-32.13
-36.59
-41.75
-46.81
-50.59
-51.88
-49.91
-44.64
-36.87
-27.99
-19.46
-12.35
-7.06
-3.36
-0.71
1.37
3.18
4.76
6.13
7.38
8.71
10.40
12.53
14.93
17.19
18.81
19.53
19.46
19.05
18.94
19.59
20.98
22.60
23.64
23.30
21.20
17.58
13.29
9.48
7.16
6.68
7.63
8.87
9.06
7.13
2.74
-3.73
-11.38
-19.22
-26.66
-33.61
-40.46
-47.92
-56.70
-66.99
-77.99
-87.52
-92.37
-89.24
-76.00
-52.79
-22.55
9.40
36.46
52.60
54.28
41.71
18.94
-7.46
-30.66
-45.83
-51.44
-49.02
-41.75
-32.65
-23.41
-14.38
-5.50
2.75
9.20
12.56
12.52
10.15
7.50
6.59
8.48
12.87
18.24
22.73
25.02
24.78
22.77
20.29
18.58
18.28
19.26
20.76
21.88
22.06
21.21
19.73
18.17
16.98
16.25
15.77
15.15
14.11
12.60
10.80
8.99
7.35
5.89
4.45
2.85
0.93
-1.29
-3.71
-6.16
-8.53
-10.81
-13.14
-15.78
-18.96
-22.80
-27.05
-31.17
-34.41
-36.01
-35.58
-33.18
-29.32
-24.78
-20.33
-16.51
-13.54
-11.32
-9.57
-7.95
-6.18
-4.11
-1.75
0.80
3.37
5.79
8.01
10.08
12.11
14.22
16.52
19.05
21.82
24.81
27.86
30.72
33.05
34.54
35.04
34.60
33.49
32.05
30.53
29.00
27.38
25.56
23.52
21.35
19.23
17.29
15.53
13.85
12.07
10.00
7.45
4.24
0.28
-4.38
-9.41
-14.26
-18.31
-21.14
-22.69
-23.33
-23.66
-24.16
-25.06
-26.20
-27.21
-27.65
-27.20
-25.62
-22.77
-18.55
-13.13
-7.03
-1.11
3.67
6.74
8.14
8.59
9.01
9.99
11.43
12.69
13.05
12.28
10.87
9.80
10.02
11.99
15.47
19.72
23.90
27.41
29.98
31.59
32.31
32.17
31.15
29.26
26.61
23.45
20.03
16.60
13.30
10.07
6.82
3.39
-0.24
-3.95
-7.47
-10.53
-13.01
-14.94
-16.49
-17.83
-19.03
-20.04
-20.72
-21.00
-20.91
-20.61
-20.37
-20.43
-20.99
-22.22
-24.13
-26.54
-29.00
-30.79
-31.17
-29.60
-26.07
-21.06
-15.46
-10.24
-6.00
-2.97
-0.95
0.40
1.40
2.21
2.93
3.60
4.31
5.10
5.97
6.81
7.48
7.87
7.94
7.76
7.40
6.99
6.60
6.27
6.01
5.80
5.58
5.25
4.77
4.18
3.60
3.18
3.00
2.99
2.96
2.66
1.92
0.68
-0.89
-2.50
-3.86
-4.81
-5.41
-5.91
-6.60
-7.66
-9.09
-10.71
-12.23
-13.49
-14.47
-15.30
-16.22
-17.45
-19.10
-21.05
-23.01
-24.48
-24.91
-23.85
-21.15
-17.08
-12.25
-7.39
-3.12
0.23
2.65
4.31
5.47
6.33
7.05
7.72
8.41
9.15
9.93
10.73
11.58
12.51
13.61
14.90
16.41
18.08
19.84
21.59
23.33
25.03
26.66
28.16
29.45
30.48
31.27
31.86
32.32
32.73
33.20
33.84
34.76
35.97
37.45
39.07
40.61
41.83
42.48
42.38
41.51
39.97
38.04
36.13
34.56
33.48
32.75
31.95
30.58
28.21
24.75
20.39
15.59
10.85
6.61
3.11
0.32
-2.04
-4.48
-7.63
-12.04
-18.06
-25.61
-34.31
-43.49
-52.45
-60.57
-67.43
-72.72
-76.29
-78.07
-78.11
-76.52
-73.39
-68.82
-62.81
-55.42
-46.90
-37.75
-28.68
-20.34
-13.20
-7.34
-2.62
1.18
4.13
6.14
7.02
6.65
5.07
2.53
-0.62
-3.98
-7.17
-9.85
-11.82
-13.09
-13.81
-14.31
-14.89
-15.68
-16.64
-17.57
-18.35
-18.94
-19.48
-20.15
-21.06
-22.23
-23.61
-25.11
-26.61
-27.93
-28.77
-28.75
-27.54
-25.01
-21.34
-16.92
-12.30
-7.99
-4.38
-1.67
0.13
1.20
1.85
2.41
3.13
4.14
5.44
6.98
8.79
10.81
12.92
14.68
15.44
14.56
11.65
6.78
0.40
-6.95
-14.90
-23.37
-32.33
-41.53
-50.29
-57.60
-62.49
-64.54
-64.05
-61.99
-59.52
-57.55
-56.46
-56.15
-56.30
-56.76
-57.61
-59.18
-61.71
-65.14
-69.04
-72.75
-75.55
-76.98
-76.79
-74.89
-71.32
-66.16
-59.61
-51.96
-43.49
-34.34
-24.33
-13.03
-0.10
14.43
29.95
45.32
59.32
70.94
79.88
86.43
91.36
95.59
99.71
103.79
107.27
109.12
108.17
103.66
95.44
84.17
70.99
57.21
43.90
31.79
21.32
12.70
6.05
1.35
-1.74
-3.82
-5.69
-8.09
-11.40
-15.53
-19.93
-23.81
-26.52
-27.76
-27.68
-26.86
-25.98
-25.67
-26.26
-27.85
-30.29
-33.24
-36.23
-38.56
-39.53
-38.49
-35.20
-29.85
-23.16
-16.04
-9.39
-3.76
0.67
4.07
6.75
8.97
10.96
12.80
14.55
16.25
17.85
19.31
20.49
21.27
21.63
21.60
21.36
21.11
21.05
21.24
21.62
22.01
22.21
22.02
21.33
20.12
18.47
16.58
14.75
13.26
12.26
11.68
11.17
10.23
8.41
5.50
1.73
-2.43
-6.34
-9.56
-11.98
-13.96
-16.09
-19.04
-23.19
-28.50
-34.39
-39.88
-43.83
-45.25
-43.60
-38.96
-32.00
-23.79
-15.50
-8.09
-2.06
2.47
5.81
8.35
10.46
12.39
14.21
15.94
17.57
19.17
20.85
22.70
24.76
26.91
28.91
30.53
31.61
32.17
32.38
32.38
32.20
31.69
30.58
28.68
25.99
22.80
19.56
16.68
14.32
12.30
10.26
7.87
5.04
1.93
-1.14
-3.85
-6.13
-8.08
-9.98
-12.16
-14.95
-18.60
-23.23
-28.73
-34.60
-39.91
-43.47
-44.21
-41.55
-35.68
-27.55
-18.48
-9.77
-2.28
3.69
8.32
12.03
15.18
17.92
20.21
21.93
23.02
23.61
24.00
24.51
25.34
26.50
27.79
28.97
29.87
30.49
30.94
31.31
31.54
31.42
30.67
29.06
26.53
23.30
19.74
16.28
13.30
10.96
9.18
7.70
6.17
4.30
1.98
-0.68
-3.39
-5.87
-7.91
-9.61
-11.31
-13.59
-17.00
-21.88
-28.07
-34.81
-40.79
-44.50
-44.69
-40.87
-33.49
-23.77
-13.38
-3.85
3.81
9.27
12.82
15.05
16.61
17.99
19.51
21.24
23.13
25.02
26.75
28.22
29.39
30.36
31.22
32.06
32.85
33.54
34.06
34.36
34.44
34.30
33.87
33.06
31.75
29.92
27.69
25.30
22.99
20.89
19.00
17.20
15.28
13.02
10.14
6.39
1.64
-3.99
-9.99
-15.56
-19.86
-22.32
-22.99
-22.48
-21.72
-21.68
-23.06
-26.20
-31.21
-37.97
-46.03
-54.55
-62.17
-67.28
-68.47
-65.12
-57.75
-47.84
-37.43
-28.26
-21.35
-16.78
-13.87
-11.79
-9.90
-7.91
-5.93
-4.15
-2.77
-1.77
-0.97
-0.05
1.34
3.53
6.79
11.31
17.14
24.22
32.28
40.92
49.63
57.89
65.36
71.91
77.71
83.13
88.58
94.37
100.50
106.77
112.77
118.10
122.42
125.57
127.42
127.81
126.51
123.36
118.35
111.74
104.08
95.99
87.88
79.81
71.41
61.99
50.86
37.52
21.89
4.38
-14.16
-32.52
-49.22
-62.68
-71.47
-74.59
-71.84
-64.02
-52.82
-40.47
-29.08
-20.14
-14.20
-11.05
-10.12
-10.98
-13.46
-17.58
-23.26
-30.01
-37.03
-43.45
-48.67
-52.49
-55.15
-57.02
-58.31
-58.97
-58.62
-56.74
-52.91
-47.03
-39.45
-30.94
-22.56
-15.28
-9.78
-6.28
-4.54
-4.17
-4.83
-6.35
-8.66
-11.62
-14.87
-17.85
-20.01
-21.04
-20.98
-20.16
-19.06
-18.02
-17.04
-15.91
-14.23
-11.62
-7.89
-2.99
3.02
10.05
18.02
26.77
35.98
45.02
53.04
59.14
62.60
63.18
61.11
57.13
52.21
47.28
42.98
39.57
36.85
34.30
31.33
27.41
22.34
16.19
9.26
1.94
-5.39
-12.38
-18.72
-24.11
-28.32
-31.26
-33.07
-34.03
-34.55
-34.99
-35.56
-36.34
-37.18
-37.95
-38.51
-38.84
-38.98
-39.06
-39.16
-39.20
-39.01
-38.33
-37.01
-35.11
-32.97
-31.06
-29.88
-29.80
-30.98
-33.33
-36.51
-39.96
-42.91
-44.50
-43.99
-41.02
-35.74
-28.87
-21.48
-14.64
-9.07
-4.97
-2.08
0.12
2.17
4.40
6.82
9.26
11.47
13.25
14.57
15.52
16.21
16.74
17.15
17.45
17.57
17.51
17.29
16.93
16.45
15.78
14.79
13.34
11.34
8.87
6.07
3.21
0.50
-1.86
-3.77
-5.22
-6.34
-7.35
-8.51
-10.08
-12.12
-14.52
-16.97
-19.16
-20.89
-22.22
-23.39
-24.75
-26.54
-28.87
-31.77
-35.10
-38.59
-41.74
-43.82
-44.08
-41.95
-37.42
-31.07
-23.96
-17.23
-11.73
-7.75
-5.10
-3.38
-2.25
-1.55
-1.31
-1.44
-1.70
-1.69
-1.05
0.28
1.92
3.15
3.17
1.51
-1.68
-5.58
-8.94
-10.57
-9.77
-6.66
-2.19
2.14
4.82
4.80
1.88
-3.14
-8.70
-12.88
-13.99
-11.10
-4.34
5.13
15.51
24.95
32.18
37.02
40.30
43.56
48.25
55.01
63.30
71.59
78.00
81.12
80.53
76.73
70.74
63.42
55.11
45.64
34.78
22.75
10.46
-0.64
-8.87
-12.92
-12.19
-6.98
1.61
11.90
22.12
30.70
36.62
39.42
39.23
36.52
31.96
26.28
20.08
13.83
7.77
1.97
-3.58
-8.86
-13.79
-18.19
-21.85
-24.56
-26.14
-26.34
-25.01
-22.19
-18.39
-14.56
-11.88
-11.34
-13.25
-17.06
-21.59
-25.59
-28.30
-29.62
-30.07
-30.39
-31.06
-32.21
-33.68
-35.28
-36.99
-38.92
-41.25
-43.82
-46.15
-47.47
-47.03
-44.47
-40.04
-34.55
-29.20
-25.06
-22.70
-21.89
-21.73
-20.76
-17.61
-11.39
-2.18
8.98
20.26
29.70
35.69
37.43
35.09
29.51
21.97
13.70
5.66
-1.54
-7.66
-12.68
-16.73
-19.87
-22.06
-23.13
-22.84
-20.89
-17.10
-11.38
-3.92
4.91
14.43
23.83
32.20
38.70
42.73
43.97
42.48
38.67
33.12
26.56
19.60
12.68
6.01
-0.41
-6.65
-12.79
-18.81
-24.66
-30.18
-35.08
-38.91
-41.01
-40.74
-37.76
-32.29
-25.20
-17.83
-11.42
-6.73
-3.71
-1.63
0.60
3.95
8.94
15.54
23.11
30.71
37.21
41.59
43.17
41.76
37.64
31.51
24.16
16.22
8.07
-0.18
-8.42
-16.41
-23.60
-29.24
-32.48
-32.52
-28.89
-21.51
-10.87
2.10
16.12
29.87
42.35
53.09
62.17
70.03
77.13
83.52
88.75
91.89
91.88
87.90
79.61
67.30
51.68
33.70
14.29
-5.78
-25.78
-44.99
-62.52
-77.44
-89.02
-97.04
-101.84
-104.14
-104.55
-103.24
-99.84
-93.68
-84.34
-71.95
-57.30
-41.55
-25.87
-11.15
2.01
13.16
21.98
28.26
32.21
34.55
36.44
39.13
43.45
49.47
56.48
63.23
68.46
71.36
71.74
69.96
66.53
61.85
56.06
49.11
40.98
31.90
22.35
12.91
3.99
-4.21
-11.80
-18.96
-25.89
-32.64
-39.18
-45.35
-50.83
-55.18
-57.82
-58.27
-56.33
-52.27
-46.73
-40.53
-34.27
-28.12
-21.85
-15.01
-7.31
1.11
9.71
17.74
24.43
29.13
31.34
30.59
26.51
19.03
8.60
-3.56
-15.67
-25.79
-32.45
-35.10
-34.25
-31.22
-27.50
-24.34
-22.36
-21.55
-21.51
-21.64
-21.44
-20.60
-19.08
-17.05
-14.75
-12.42
-10.06
-7.48
-4.32
-0.22
5.07
11.51
18.81
26.43
33.74
40.10
44.98
48.10
49.48
49.42
48.42
47.03
45.65
44.44
43.23
41.51
38.66
34.01
27.16
18.06
7.11
-4.96
-17.16
-28.59
-38.60
-46.99
-53.91
-59.71
-64.70
-69.01
-72.59
-75.27
-76.84
-77.19
-76.25
-73.98
-70.30
-65.15
-58.52
-50.51
-41.48
-31.94
-22.54
-13.86
-6.44
-0.57
3.64
6.22
7.28
7.00
5.65
3.51
0.93
-1.73
-4.21
-6.35
-8.10
-9.52
-10.68
-11.72
-12.67
-13.43
-13.64
-12.79
-10.38
-6.18
-0.47
5.95
12.07
16.91
19.99
21.42
21.82
22.05
22.72
24.04
25.65
26.83
26.78
24.96
21.24
15.93
9.57
2.64
-4.52
-11.82
-19.19
-26.65
-34.19
-41.81
-49.35
-56.32
-61.76
-64.32
-62.72
-56.33
-45.67
-32.37
-18.66
-6.60
2.62
8.93
13.08
16.06
18.56
20.77
22.43
23.11
22.53
20.73
18.05
15.02
12.12
9.66
7.60
5.72
3.74
1.53
-0.86
-3.10
-4.82
-5.74
-5.71
-4.73
-2.96
-0.66
1.89
4.38
6.62
8.58
10.57
13.14
17.05
22.94
31.23
41.89
54.36
67.54
79.95
90.01
96.41
98.53
96.47
90.89
82.57
72.07
59.48
44.61
27.51
8.86
-9.87
-26.71
-39.81
-48.13
-51.71
-51.53
-49.17
-46.22
-43.90
-42.88
-43.30
-44.91
-47.30
-50.04
-52.80
-55.36
-57.49
-58.94
-59.38
-58.62
-56.67
-53.83
-50.64
-47.54
-44.67
-41.75
-38.22
-33.49
-27.31
-19.85
-11.64
-3.26
4.83
12.38
19.34
25.73
31.58
36.90
41.71
46.03
49.85
53.11
55.60
57.10
57.41
56.49
54.43
51.51
47.98
44.10
40.08
36.10
32.29
28.72
25.31
21.78
17.78
12.94
7.19
0.85
-5.33
-10.43
-13.65
-14.65
-13.71
-11.62
-9.38
-7.78
-7.17
-7.35
-7.81
-7.96
-7.48
-6.40
-4.98
-3.62
-2.50
-1.65
-0.88
-0.05
0.93
2.01
3.12
4.21
5.34
6.60
8.01
9.54
11.05
12.38
13.43
14.17
14.68
14.99
15.13
15.07
14.73
14.06
13.08
11.82
10.35
8.75
7.02
5.16
3.18
1.14
-0.79
-2.37
-3.38
-3.81
-3.85
-3.93
-4.59
-6.21
-8.93
-12.48
-16.27
-19.57
-21.61
-21.84
-20.03
-16.35
-11.35
-5.83
-0.62
3.62
6.57
8.25
8.91
8.87
8.41
7.71
6.96
6.28
5.83
5.69
5.85
6.21
6.54
6.63
6.35
5.67
4.72
3.71
2.90
2.53
2.71
3.38
4.37
5.39
6.21
6.80
7.46
8.80
11.52
16.16
22.75
30.70
38.83
45.69
49.99
50.98
48.65
43.57
36.76
29.28
21.98
15.38
9.62
4.57
-0.03
-4.39
-8.64
-12.77
-16.69
-20.26
-23.30
-25.48
-26.31
-25.33
-22.20
-17.07
-10.69
-4.34
0.68
3.49
4.05
3.15
1.99
1.66
2.65
4.81
7.43
9.72
10.96
10.67
8.42
3.89
-3.07
-12.07
-22.03
-31.28
-38.09
-41.26
-40.56
-36.76
-31.23
-25.34
-20.10
-15.94
-12.84
-10.61
-9.00
-7.77
-6.64
-5.35
-3.65
-1.43
1.26
4.15
6.88
9.08
10.58
11.48
12.14
13.04
14.54
16.72
19.17
21.25
22.24
21.67
19.47
15.87
11.28
6.15
0.94
-3.83
-7.54
-9.58
-9.61
-7.74
-4.64
-1.30
1.38
2.84
3.12
2.64
2.03
1.77
2.04
2.76
3.66
4.45
4.96
5.10
4.94
4.58
4.20
3.89
3.73
3.72
3.86
4.13
4.50
4.90
5.16
5.08
4.53
3.52
2.26
1.06
0.20
-0.20
-0.21
-0.03
0.27
0.73
1.59
3.02
4.97
7.12
9.00
10.12
10.24
9.35
7.63
5.36
2.78
0.05
-2.65
-5.21
-7.55
-9.71
-11.94
-14.52
-17.74
-21.52
-25.41
-28.62
-30.25
-29.70
-26.92
-22.47
-17.31
-12.47
-8.68
-6.22
-4.90
-4.32
-4.09
-3.95
-3.77
-3.50
-3.07
-2.40
-1.46
-0.28
1.08
2.50
3.92
5.31
6.65
7.93
9.08
10.02
10.69
11.11
11.30
11.37
11.36
11.28
11.05
10.57
9.74
8.59
7.26
6.10
5.54
5.91
7.26
9.29
11.31
12.48
12.01
9.42
4.67
-1.85
-9.45
-17.25
-24.42
-30.35
-34.80
-37.93
-40.17
-42.04
-43.80
-45.35
-46.19
-45.62
-43.13
-38.64
-32.61
-25.92
-19.51
-14.18
-10.28
-7.75
-6.16
-5.00
-3.83
-2.38
-0.64
1.29
3.20
4.96
6.44
7.63
8.56
9.35
10.14
11.05
12.20
13.61
15.18
16.80
18.25
19.30
19.80
19.67
18.98
17.95
16.85
15.92
15.33
15.12
15.24
15.64
16.24
17.02
17.94
18.96
19.97
20.83
21.34
21.34
20.75
19.65
18.30
17.08
16.38
16.38
16.97
17.76
18.17
17.67
15.94
12.96
9.08
4.93
1.33
-0.85
