1679991467.00
64.000000
-0.00
-0.00
-0.00
-0.00
-0.00
-0.00
-0.00
-0.00
-0.00
-0.00
0.00
0.01
0.01
-0.00
-0.03
-0.05
-0.05
0.00
0.13
0.36
0.66
1.01
1.37
1.72
2.06
2.40
2.79
3.24
3.80
4.42
5.06
5.66
6.20
6.68
7.15
7.68
8.31
9.14
10.09
11.04
11.88
12.56
13.14
13.76
14.65
15.96
17.91
20.32
22.90
25.38
27.58
29.57
31.68
34.32
37.81
42.54
48.15
54.10
59.83
64.97
69.58
74.14
79.34
85.71
93.76
103.00
112.62
121.73
129.77
136.75
143.30
150.75
157.77
166.64
177.95
191.79
206.97
220.57
228.25
225.36
208.53
176.87
132.76
80.05
23.07
-34.94
-92.44
-149.16
-205.23
-260.37
-313.74
-363.87
-409.83
-450.91
-486.50
-515.74
-537.23
-549.22
-549.96
-538.37
-514.21
-478.67
-433.88
-382.45
-327.02
-269.84
-212.63
-156.66
-102.95
-52.37
-5.90
35.58
71.43
101.35
125.50
144.38
158.69
169.15
176.37
180.75
182.57
182.07
179.51
175.23
169.65
163.18
156.15
148.81
141.30
133.69
126.02
118.33
110.69
103.16
95.80
88.68
81.83
75.25
68.95
62.95
57.25
51.86
46.78
42.03
37.59
33.45
29.61
26.07
22.81
19.83
17.11
14.67
12.48
10.54
8.83
7.35
6.07
4.97
4.05
3.27
2.62
2.09
1.65
1.30
1.01
0.79
0.61
0.48
0.37
0.29
0.22
0.18
0.14
0.11
0.09
0.08
0.07
0.06
0.05
0.05
0.04
0.04
0.04
0.03
0.03
0.03
0.03
0.03
0.03
0.03
0.02
0.02
0.02
0.02
0.02
0.02
0.02
0.03
0.04
0.05
0.07
0.10
0.14
0.19
0.24
0.31
0.38
0.46
0.54
0.63
0.72
0.81
0.91
1.00
1.10
1.21
1.31
1.43
1.56
1.70
1.85
2.02
2.20
2.41
2.64
2.90
3.19
3.51
3.88
4.28
4.72
5.21
5.75
6.33
6.96
7.66
8.41
9.23
10.10
11.02
12.02
13.10
14.25
15.50
16.84
18.29
19.84
21.47
23.19
24.99
26.90
28.95
31.12
33.43
35.85
38.30
40.66
42.77
44.50
45.68
46.12
45.64
44.06
41.23
36.95
31.13
23.86
15.33
5.93
-3.91
-13.73
-23.09
-31.66
-38.71
-44.54
-49.22
-52.78
-55.20
-56.42
-56.48
-55.48
-53.74
-52.10
-50.87
-50.31
-50.48
-51.07
-51.62
-51.67
-50.99
-49.75
-48.49
-47.86
-48.18
-49.18
-49.91
-49.05
-45.48
-38.90
-29.39
-18.18
-6.99
2.64
9.99
15.25
19.21
22.36
24.84
25.77
23.61
16.96
5.07
-11.83
-32.82
-55.43
-77.47
-95.21
-104.40
-101.71
-86.34
-61.11
-31.79
-5.04
14.23
24.52
27.89
27.76
26.75
25.76
24.09
21.02
17.42
15.69
18.82
29.43
48.51
74.77
104.64
132.49
152.11
158.63
150.59
130.38
105.29
83.13
68.94
62.80
60.69
56.90
47.45
31.99
13.12
-5.67
-22.44
-37.15
-50.59
-62.91
-73.00
-79.31
-81.17
-79.53
-76.82
-75.70
-77.69
-82.69
-89.50
-97.04
-105.28
-115.11
-127.36
-141.10
-153.07
-158.22
-151.86
-132.06
-101.01
-64.59
-30.02
-3.46
12.67
19.54
20.56
19.04
16.54
12.77
6.67
-1.78
-11.31
-19.81
-25.67
-28.71
-30.23
-32.19
-36.34
-43.18
-51.49
-59.41
-65.21
-68.13
-68.63
-68.08
-68.00
-69.37
-72.21
-75.25
-77.08
-76.77
-74.23
-70.09
-65.14
-59.56
-52.27
-44.45
-35.38
-24.24
-10.81
4.36
20.19
35.62
50.09
63.72
77.21
92.02
109.50
130.66
155.67
183.18
209.88
230.63
239.79
233.29
210.98
176.84
137.87
101.64
73.65
55.88
47.05
44.18
44.36
45.87
47.76
49.21
49.15
46.56
41.22
34.15
27.34
22.95
22.37
25.48
30.76
35.92
38.88
38.34
33.96
26.34
16.59
6.13
-3.62
-11.43
-16.50
-18.64
-18.23
-15.97
-12.50
-8.03
-2.35
4.86
13.56
22.92
31.44
37.47
39.88
38.60
34.55
29.17
23.76
18.95
14.71
10.67
6.47
2.08
-2.28
-6.31
-9.76
-12.52
-14.52
-15.68
-15.93
-15.27
-13.88
-12.12
-10.39
-9.04
-8.19
-7.82
-7.74
-7.78
-7.94
-8.37
-9.39
-11.21
-13.80
-16.57
-18.53
-18.48
-15.51
-9.42
-0.85
8.87
18.13
25.50
30.06
31.49
29.99
26.13
20.67
14.50
8.40
2.96
-1.52
-5.04
-7.81
-10.05
-11.92
-13.56
-15.11
-16.73
-18.46
-20.20
-21.68
-22.56
-22.70
-22.20
-21.40
-20.60
-19.90
-19.17
-18.18
-16.86
-15.32
-13.81
-12.40
-10.82
-8.54
-5.11
-0.47
4.88
10.11
14.49
17.71
20.11
22.44
25.50
29.81
35.40
41.82
48.39
54.40
59.39
63.21
66.13
68.63
71.20
74.03
76.72
78.30
77.53
73.41
65.70
55.14
43.30
31.94
22.40
15.19
10.01
6.19
3.25
1.32
1.15
3.79
10.14
20.47
34.23
49.94
65.48
78.52
87.15
90.58
89.44
85.67
81.72
79.65
80.38
83.53
88.04
93.01
98.36
104.92
113.87
126.06
141.49
159.48
179.07
199.44
219.85
239.20
255.56
266.20
268.22
259.59
239.98
210.96
175.53
137.19
98.90
62.53
28.82
-2.37
-31.70
-60.06
-88.53
-118.38
-151.05
-187.72
-228.52
-271.66
-313.30
-348.26
-371.82
-381.74
-379.32
-368.99
-356.36
-345.88
-339.16
-334.94
-330.51
-323.47
-312.99
-299.70
-284.96
-269.77
-254.44
-238.77
-222.68
-206.51
-190.94
-176.74
-164.27
-153.39
-143.67
-134.70
-126.41
-119.08
-113.04
-108.31
-104.49
-100.76
-96.34
-90.85
-84.48
-77.91
-71.83
-66.54
-61.71
-56.50
-49.93
-41.34
-30.74
-18.82
-6.91
3.43
10.75
14.06
13.18
8.75
2.06
-5.37
-12.09
-17.12
-19.91
-20.35
-18.77
-15.78
-12.22
-8.89
-6.29
-4.33
-2.48
0.01
3.55
7.87
12.10
14.95
15.28
12.44
6.62
-1.04
-8.40
-12.60
-10.66
-0.53
17.93
42.51
68.97
92.32
108.36
114.99
112.54
103.24
90.02
75.43
61.02
47.35
34.49
22.50
11.76
2.90
-3.35
-6.41
-5.87
-1.42
7.16
19.92
36.54
56.05
76.87
97.04
114.74
128.61
138.13
143.41
144.94
143.24
138.62
131.33
121.64
110.13
97.60
84.96
72.93
61.83
51.59
41.90
32.51
23.34
14.51
6.15
-1.73
-9.33
-16.89
-24.42
-31.65
-38.02
-42.94
-46.01
-47.13
-46.34
-43.68
-39.18
-32.92
-25.31
-17.17
-9.54
-3.35
1.02
3.88
6.01
8.24
10.94
13.94
16.71
18.81
20.24
21.59
23.65
27.08
31.97
37.91
44.26
50.57
56.82
63.40
70.79
79.15
88.04
96.53
103.48
107.96
109.65
108.88
106.49
103.49
100.77
98.94
98.29
98.83
100.42
102.75
105.41
107.96
110.03
111.49
112.54
113.66
115.47
118.48
122.94
128.91
136.44
145.78
157.61
172.91
192.55
216.61
243.88
271.70
296.39
314.15
321.99
318.55
304.29
281.22
252.05
219.34
184.63
148.19
109.08
65.89
17.45
-36.39
-94.52
-154.67
-214.25
-271.33
-325.28
-377.16
-429.38
-485.04
-546.56
-613.99
-683.62
-747.77
-796.12
-818.64
-808.97
-766.87
-699.21
-618.35
-538.73
-472.59
-426.58
-400.11
-386.28
-374.84
-355.36
-321.00
-269.84
-204.40
-129.53
-50.15
29.89
107.68
180.37
245.76
302.06
349.08
389.07
426.19
464.69
506.78
551.29
593.93
630.26
655.99
668.01
664.62
645.39
611.16
564.02
507.18
444.45
381.20
321.58
267.82
220.40
178.98
143.53
114.67
93.25
69.86
39.21
0.20
-43.35
-85.10
-119.87
-145.31
-161.64
-170.57
-174.30
-173.22
-167.89
-159.30
-148.77
-137.64
-126.85
-116.71
-107.41
-98.87
-89.69
-79.21
-67.81
-56.58
-46.85
-39.63
-35.37
-34.11
-35.89
-39.45
-43.79
-48.93
-55.05
-62.12
-69.55
-76.14
-80.76
-81.90
-77.66
-67.04
-51.02
-31.18
-9.31
13.01
36.83
59.81
78.57
93.02
103.22
107.67
105.12
94.84
76.87
51.74
19.37
-20.76
-70.30
-120.97
-165.74
-198.76
-217.42
-222.63
-217.34
-205.31
-189.74
-172.97
-156.63
-142.82
-132.44
-125.11
-119.64
-114.61
-109.35
-103.89
-98.66
-94.28
-92.34
-94.18
-100.39
-110.09
-120.30
-126.26
-122.76
-106.26
-76.91
-39.74
-2.53
27.33
45.60
52.33
50.98
45.82
39.95
34.61
29.67
25.34
23.09
25.16
32.62
46.08
63.88
82.95
100.00
112.89
121.30
126.69
131.72
139.03
150.47
165.24
179.29
185.87
177.95
150.89
104.59
43.78
-23.65
-88.19
-141.71
-178.68
-196.95
-197.20
-182.73
-158.91
-130.53
-105.46
-89.03
-83.22
-85.60
-92.49
-100.41
-107.08
-111.41
-113.23
-113.06
-111.26
-108.65
-106.48
-106.34
-109.39
-115.99
-125.49
-136.52
-147.73
-157.65
-166.26
-173.71
-180.50
-186.91
-192.74
-197.27
-199.46
-198.47
-193.63
-184.83
-172.47
-157.48
-140.92
-123.69
-106.34
-89.15
-72.21
-55.52
-39.15
-23.22
-8.05
6.00
18.72
30.06
40.13
49.16
57.39
65.01
72.08
78.50
84.08
88.59
91.89
93.96
94.89
94.83
93.93
92.25
89.72
86.12
81.23
74.95
67.49
59.34
51.20
43.77
37.49
32.40
28.16
24.29
20.48
16.88
14.16
13.32
15.29
20.48
28.54
38.49
49.09
59.49
69.72
80.73
94.06
111.13
132.54
157.61
184.81
212.06
237.72
261.05
282.40
303.02
324.90
350.48
381.96
420.20
463.16
505.07
537.02
549.36
535.19
493.37
429.40
353.57
277.30
209.49
154.44
112.10
79.78
54.02
31.73
10.27
-12.70
-39.15
-70.03
-104.63
-140.42
-173.78
-200.88
-218.88
-226.62
-224.52
-214.12
-197.55
-176.91
-153.95
-129.96
-105.93
-82.79
-61.85
-44.79
-33.42
-28.94
-31.31
-38.82
-48.49
-56.96
-61.61
-61.43
-57.05
-50.14
-42.47
-35.26
-28.90
-23.22
-17.91
-12.73
-7.53
-1.94
4.62
12.81
22.85
34.19
45.29
54.05
58.40
56.97
49.47
36.59
19.67
0.34
-19.77
-39.20
-56.72
-71.47
-83.05
-91.59
-97.60
-101.68
-104.26
-105.42
-104.95
-102.60
-98.21
-91.91
-83.93
-74.52
-63.78
-51.72
-38.39
-24.06
-9.35
4.76
17.13
26.72
32.93
35.77
35.96
34.73
33.45
33.23
34.71
37.92
42.44
47.69
53.08
58.10
62.29
65.17
66.33
65.52
62.87
58.79
53.93
48.81
43.68
38.44
32.81
26.61
19.96
13.33
7.30
2.38
-1.28
-3.91
-6.06
-8.37
-11.38
-15.31
-20.00
-24.92
-29.38
-32.80
-34.98
-36.10
-36.67
-37.18
-37.84
-38.48
-38.68
-38.04
-36.46
-34.26
-31.94
-29.93
-28.25
-26.45
-23.79
-19.60
-13.61
-6.14
1.93
9.45
15.44
19.44
21.65
22.86
24.06
25.94
28.60
31.51
33.68
34.13
32.37
28.84
25.05
23.49
27.04
37.91
56.34
79.62
102.14
116.56
115.88
95.56
55.01
-2.10
-68.64
-135.61
-193.96
-236.28
-258.05
-258.27
-239.36
-206.27
-165.27
-122.51
-82.96
-49.78
-24.33
-6.48
5.13
12.60
18.32
24.22
31.27
39.11
46.43
51.59
53.35
51.42
46.35
39.23
31.04
22.34
13.22
3.60
-6.38
-16.23
-25.18
-32.47
-37.67
-40.72
-41.90
-41.59
-40.21
-38.17
-35.80
-33.33
-30.71
-27.63
-23.59
-18.10
-11.00
-2.51
6.80
16.24
25.13
32.97
39.33
43.86
46.28
46.46
44.53
40.95
36.38
31.55
27.04
23.22
20.24
18.09
16.67
15.88
15.62
15.76
16.14
16.52
16.60
16.14
15.06
13.50
11.82
10.34
9.25
8.41
7.45
5.99
3.84
1.23
-1.38
-3.48
-4.76
-5.26
-5.28
-5.24
-5.54
-6.46
-8.23
-10.94
-14.44
-18.31
-21.92
-24.63
-26.11
-26.54
-26.49
-26.60
-27.30
-28.58
-29.93
-30.75
-30.49
-28.94
-26.16
-22.36
-17.84
-12.86
-7.65
-2.46
2.48
6.96
10.82
13.96
16.26
17.64
18.09
17.72
16.80
15.74
14.94
14.58
14.53
14.38
13.58
11.74
8.96
5.75
2.81
0.75
-0.19
-0.23
0.11
0.22
-0.33
-1.59
-3.38
-5.40
-7.40
-9.24
-11.02
-13.07
-15.86
-19.87
-24.96
-30.57
-35.77
-39.62
-41.63
-42.20
-42.56
-44.37
-49.18
-56.71
-65.67
-74.17
-80.46
-83.80
-84.81
-85.16
-86.93
-92.02
-99.38
-107.04
-112.84
-114.89
-112.47
-105.94
-95.90
-82.57
-65.61
-40.72
-3.73
47.88
114.61
193.63
279.57
366.20
448.29
522.58
592.88
665.22
745.35
837.93
943.86
1060.76
1184.80
1312.24
1409.36
1445.88
1397.11
1253.13
1026.77
748.57
455.63
180.21
-56.88
-247.42
-388.52
-478.22
-526.24
-542.34
-536.78
-520.32
-503.19
-493.17
-494.32
-503.08
-512.96
-518.19
-513.81
-500.49
-484.18
-473.82
-477.84
-500.85
-539.29
-583.07
-618.31
-630.94
-611.79
-559.69
-482.04
-392.72
-308.17
-241.92
-202.03
-189.72
-200.59
-226.65
-259.18
-291.05
-318.03
-338.83
-353.87
-364.12
-361.71
-340.23
-296.26
-231.61
-153.62
-72.29
3.82
69.99
125.75
172.85
212.22
243.74
266.43
279.52
283.56
281.10
275.95
272.15
272.33
276.42
282.57
288.03
290.65
288.74
282.16
272.03
260.06
247.32
233.92
219.54
203.69
186.32
168.14
150.73
136.00
125.65
119.86
117.95
118.57
119.87
120.05
117.52
111.04
99.13
85.09
69.87
53.71
36.66
18.28
-1.60
-22.75
-44.48
-66.00
-86.71
-107.06
-127.45
-148.04
-169.65
-192.25
-214.78
-235.32
-252.10
-264.18
-272.40
-278.16
-282.69
-288.83
-297.70
-308.04
-316.68
-320.35
-317.27
-308.15
-295.10
-280.16
-268.35
-262.22
-260.85
-260.42
-256.89
-248.35
-236.01
-223.18
-213.71
-216.47
-237.80
-278.56
-333.11
-391.13
-441.07
-473.69
-484.62
-448.20
-358.41
-228.64
-86.21
42.85
145.70
223.22
283.32
328.95
367.02
395.39
410.04
408.70
392.75
366.31
334.56
303.28
277.22
259.68
247.40
236.23
223.57
209.63
196.17
184.62
174.75
164.52
150.89
128.89
96.73
57.08
16.13
-19.05
-43.21
-54.33
-47.43
-21.40
19.12
66.04
111.26
149.86
180.62
204.39
222.55
236.22
243.91
242.82
230.77
207.30
173.59
131.34
82.61
29.47
-26.58
-84.90
-145.50
-209.18
-277.56
-352.35
-433.72
-518.25
-598.05
-661.71
-696.90
-695.15
-655.68
-586.34
-500.39
-411.39
-328.41
-254.32
-187.29
-121.90
-53.26
21.00
100.34
182.24
262.51
334.88
391.03
422.72
428.18
412.97
389.02
369.81
365.14
377.54
401.60
426.74
428.19
389.47
309.55
204.16
94.45
-5.16
-90.31
-162.54
-223.75
-273.97
-308.95
-323.18
-313.48
-282.52
-238.02
-189.03
-142.50
-100.71
-63.27
-25.44
18.28
72.25
136.58
207.41
278.31
341.53
388.88
412.61
408.31
376.95
326.99
271.46
224.38
196.21
190.36
202.73
224.24
245.33
248.70
225.01
174.74
107.41
35.18
-33.50
-94.93
-145.02
-184.26
-210.33
-218.45
-205.71
-172.63
-122.83
-61.78
4.72
70.53
128.39
171.42
195.29
198.96
185.65
161.79
134.67
110.10
91.12
78.49
73.50
79.23
98.53
131.05
170.93
207.58
229.79
230.72
210.80
177.67
142.51
114.63
97.97
90.88
88.44
85.83
80.31
71.52
60.71
49.24
37.67
25.60
12.04
-3.83
-22.04
-41.69
-61.14
-78.34
-91.48
-99.35
-101.66
-99.16
-93.50
-86.98
-82.02
-80.49
-83.38
-90.42
-100.46
-112.08
-124.40
-137.86
-154.69
-178.49
-213.07
-260.17
-317.12
-376.01
-424.71
-450.20
-442.78
-399.68
-326.44
-235.58
-142.92
-63.03
-5.69
25.83
34.13
25.27
5.82
-19.44
-48.59
-82.39
-122.94
-171.87
-228.51
-288.69
-345.05
-388.23
-409.72
-405.33
-377.68
-336.37
-295.15
-266.74
-258.18
-268.38
-289.41
-310.40
-322.08
-319.47
-302.17
-272.60
-233.89
-188.93
-140.60
-92.40
-48.73
-13.86
10.08
24.58
34.88
47.93
68.99
98.36
130.30
154.88
162.52
148.94
117.58
78.53
44.21
23.99
20.70
30.49
45.77
59.15
66.43
67.26
64.01
59.99
58.16
60.70
68.86
82.67
100.60
119.24
134.02
140.67
136.99
124.16
106.81
91.65
85.20
91.15
108.66
132.24
153.74
165.49
163.62
149.66
129.71
111.60
101.48
101.44
109.30
120.20
129.15
132.92
130.69
123.66
113.88
103.41
93.72
85.62
79.57
75.91
75.10
77.40
82.10
87.00
88.40
82.32
66.58
42.60
15.94
-5.62
-15.39
-11.06
3.75
21.25
33.21
35.04
27.48
15.22
3.46
-5.31
-12.44
-21.60
-35.84
-55.46
-77.64
-98.10
-113.19
-121.27
-122.48
-118.01
-109.32
-98.23
-87.28
-79.53
-77.54
-81.81
-90.07
-97.80
-100.18
-94.19
-79.73
-59.57
-37.86
-18.41
-3.63
5.67
9.83
9.51
5.34
-2.10
-11.97
-22.82
-32.91
-40.77
-45.84
-48.73
-50.97
-54.23
-59.40
-66.11
-72.58
-76.36
-75.11
-67.25
-52.23
-30.35
-2.70
28.79
61.21
91.08
115.27
132.05
141.69
146.04
147.38
147.23
145.76
142.08
135.21
124.83
111.53
96.37
80.35
63.99
47.73
32.29
18.64
7.83
0.23
-4.59
-7.67
-10.02
-11.93
-12.59
-10.33
-3.55
8.35
24.11
40.71
54.29
61.63
61.42
54.80
44.61
33.87
24.41
16.23
8.10
-1.07
-11.01
-19.83
-24.74
-23.43
-15.15
-0.95
16.51
33.88
47.95
56.34
58.12
54.07
46.61
39.12
34.79
35.41
40.73
48.68
56.31
61.23
62.47
60.60
56.94
52.48
47.21
40.37
31.42
20.94
10.94
4.16
2.90
7.93
18.07
30.76
43.04
52.52
58.00
59.57
58.35
55.99
54.04
53.24
53.12
51.92
47.38
37.92
23.57
6.16
-11.19
-25.30
-33.95
-36.35
-33.15
-26.04
-17.24
-9.01
-3.13
-0.19
0.61
1.11
3.19
7.65
13.59
19.04
22.12
22.27
20.71
19.72
21.29
25.93
32.24
37.46
38.72
34.40
24.92
12.46
-0.19
-10.96
-19.56
-27.24
-35.70
-45.47
-54.91
-60.81
-60.15
-52.04
-38.49
-23.28
-9.58
2.05
13.74
28.29
46.49
65.44
79.27
81.92
70.34
46.41
16.31
-11.90
-31.36
-38.53
-33.73
-20.19
-2.66
14.03
25.89
30.56
27.68
19.16
8.67
0.76
-0.74
5.92
19.41
35.28
47.09
48.41
35.32
8.36
-26.77
-60.85
-84.44
-92.05
-84.63
-69.30
-55.96
-52.65
-61.99
-80.39
-100.38
-114.26
-117.45
-109.79
-95.04
-79.02
-67.57
-64.75
-71.51
-85.45
-101.33
-112.77
-114.59
-104.75
-84.91
-59.42
-33.19
-9.75
9.29
23.79
34.02
40.28
42.94
42.86
41.48
40.19
39.38
37.80
33.05
23.07
7.72
-10.22
-26.04
-35.00
-34.79
-26.44
-13.59
-0.34
10.66
18.87
25.08
29.88
32.86
32.90
29.44
23.54
18.02
16.07
19.66
28.64
40.94
53.76
64.46
71.27
73.29
70.43
63.53
54.46
46.08
41.43
42.75
50.33
62.20
74.55
83.02
83.95
75.55
58.27
34.59
8.19
-17.08
-38.10
-53.27
-62.65
-67.45
-69.42
-70.12
-70.58
-71.32
-72.48
-73.95
-75.36
-75.64
-72.95
-65.01
-50.10
-28.33
-2.22
23.56
43.72
54.25
53.80
43.89
27.84
9.39
-8.40
-23.20
-33.04
-36.00
-30.81
-17.80
0.24
18.49
31.66
35.97
30.41
16.99
-0.28
-16.76
-28.50
-32.97
-29.43
-18.88
-3.90
12.06
25.65
34.83
39.63
41.94
44.37
48.73
54.98
61.43
65.88
66.94
64.72
60.32
54.95
49.18
42.89
35.97
28.77
21.98
15.46
7.02
-7.79
-34.35
-75.99
-131.16
-192.19
-247.04
-283.50
-293.95
-278.27
-243.54
-200.65
-159.78
-127.02
-103.35
-86.12
-71.51
-56.52
-39.75
-20.81
0.32
23.65
48.73
74.16
97.54
116.01
127.34
130.68
126.91
118.24
107.58
97.57
90.04
85.57
83.54
82.46
80.62
76.65
69.94
60.88
50.59
40.75
33.00
28.58
27.90
30.58
35.50
41.15
46.02
48.91
49.22
47.13
43.67
40.37
38.60
38.84
40.23
40.88
38.68
32.35
22.20
10.01
-1.75
-10.99
-16.76
-19.27
-19.39
-18.18
-16.62
-15.55
-15.75
-17.74
-21.39
-25.63
-28.75
-28.96
-25.35
-18.33
-9.56
-1.39
3.85
4.38
-0.72
-11.30
-25.81
-41.31
-53.84
-59.66
-56.84
-46.44
-32.35
-19.87
-13.23
-13.61
-18.59
-23.42
-23.43
-16.32
-3.01
12.97
27.16
35.93
37.49
32.11
21.80
9.54
-1.36
-7.81
-7.81
-1.04
10.70
23.75
33.63
36.79
31.95
20.68
6.79
-5.33
-12.52
-13.92
-10.85
-5.75
-0.63
3.65
7.33
10.98
14.82
18.91
23.72
30.74
42.02
58.80
79.89
101.17
116.72
121.16
112.27
92.11
66.13
40.63
20.12
5.72
-4.51
-13.61
-23.73
-34.73
-44.49
-50.32
-50.82
-46.98
-41.98
-39.75
-43.18
-52.86
-66.86
-81.69
-93.65
-99.97
-99.16
-90.73
-74.76
-51.80
-23.18
8.62
40.00
66.85
85.67
94.59
93.88
85.68
73.06
59.00
45.73
34.55
26.07
20.51
17.80
17.53
18.64
19.48
18.30
13.82
5.93
-4.10
-14.09
-21.81
-25.96
-26.66
-25.25
-23.56
-22.90
-23.57
-24.89
-25.83
-25.84
-25.20
-24.70
-24.94
-25.62
-25.45
-22.78
-16.52
-6.79
4.99
16.74
26.60
33.50
37.44
39.07
39.29
38.86
38.19
37.35
36.09
34.14
31.43
28.38
25.69
24.08
23.68
23.81
23.32
21.19
17.32
12.61
8.61
6.64
7.06
9.11
11.24
11.86
10.02
5.63
-0.54
-7.15
-12.62
-15.47
-14.67
-10.10
-2.67
5.77
13.09
17.62
18.83
17.33
14.32
10.79
7.05
2.80
-2.28
-7.89
-12.92
-15.90
-15.60
-11.67
-4.75
3.84
12.49
19.69
24.35
26.01
25.03
22.52
19.92
18.37
18.18
18.78
19.12
18.32
16.19
13.15
10.02
7.60
6.49
7.02
9.16
12.43
16.08
19.41
22.16
25.05
29.37
36.30
45.73
55.61
62.17
60.94
48.28
22.83
-13.53
-55.87
-97.20
-130.39
-150.34
-155.47
-148.02
-132.96
-115.84
-100.74
-89.19
-80.44
-72.66
-64.39
-55.27
-45.91
-37.20
-29.61
-22.87
-16.39
-9.72
-2.95
3.15
7.53
9.42
8.85
6.74
4.50
3.39
3.92
5.77
7.98
9.71
10.66
11.19
12.02
13.67
16.08
18.56
20.01
19.27
15.56
8.84
0.03
-9.11
-16.41
-20.02
-19.21
-14.71
-8.61
-3.43
-1.15
-2.45
-6.64
-12.32
-18.06
-22.94
-26.36
-27.74
-26.38
-21.79
-14.20
-4.82
4.44
11.65
15.60
16.23
14.28
10.83
6.79
2.79
-0.61
-2.78
-3.13
-1.32
2.52
7.80
13.82
19.98
25.89
31.26
35.75
39.07
41.20
42.47
43.42
44.41
45.30
45.26
43.14
37.96
29.52
18.74
7.48
-2.11
-8.42
-10.94
-10.43
-8.34
-6.12
-4.48
-3.38
-2.23
-0.58
1.68
4.27
6.84
9.34
11.87
14.58
17.35
19.96
22.36
25.02
28.83
34.63
42.69
52.18
61.51
68.87
72.96
73.30
70.18
64.20
55.79
45.00
31.58
15.30
-3.68
-24.56
-45.89
-65.80
-82.39
-94.22
-100.67
-102.20
-100.28
-97.06
-94.69
-94.63
-97.19
-101.65
-106.82
-111.64
-115.70
-119.24
-122.69
-126.07
-128.41
-127.75
-121.60
-107.64
-84.34
-51.49
-10.44
35.86
82.95
125.54
158.52
178.12
182.77
173.40
152.89
125.31
94.78
64.75
37.64
14.75
-3.41
-16.90
-26.11
-31.46
-33.30
-31.90
-27.46
-20.30
-11.05
-0.56
10.05
19.56
26.89
31.26
32.50
31.03
27.76
23.73
19.80
16.41
13.60
11.25
9.23
7.55
6.30
5.61
5.51
6.01
7.09
8.70
10.77
13.08
15.18
16.46
16.32
14.51
11.27
7.45
4.13
2.22
2.02
3.17
4.79
5.98
6.27
5.71
4.76
3.93
3.57
3.77
4.52
5.79
7.51
9.42
10.86
10.94
8.87
4.44
-1.61
-7.64
-11.74
-12.30
-8.75
-1.74
7.15
15.92
22.93
27.27
28.91
28.41
26.52
23.80
20.42
16.29
11.40
6.15
1.41
-1.86
-3.13
-2.68
-1.53
-0.83
-1.15
-2.22
-3.13
-2.93
-1.29
1.35
3.97
5.44
5.06
2.78
-0.78
-4.58
-7.42
-8.36
-7.07
-4.04
-0.48
2.18
3.08
2.35
0.97
0.07
0.06
0.24
-0.78
-4.21
-10.33
-18.12
-25.87
-32.15
-36.48
-39.33
-41.24
-41.90
-39.78
-32.79
-19.58
-1.00
19.69
37.79
49.28
52.45
48.27
39.16
26.97
11.84
-7.34
-30.97
-57.10
-81.45
-99.08
-107.02
-105.75
-98.72
-90.65
-85.53
-85.72
-92.23
-105.34
-124.83
-149.79
-178.34
-207.87
-235.59
-259.02
-275.80
-283.30
-278.76
-260.18
-227.89
-185.45
-138.90
-94.38
-55.59
-22.47
8.01
39.57
74.60
113.46
155.23
198.68
242.42
284.46
321.41
348.91
363.06
362.08
347.18
321.67
288.83
250.29
206.07
156.23
103.35
53.71
16.17
-0.94
6.81
38.00
86.08
142.03
197.16
244.87
280.74
301.84
305.97
291.97
260.35
213.86
157.73
98.67
43.59
-1.94
-34.78
-55.06
-65.55
-70.89
-76.00
-83.76
-94.21
-104.64
-111.15
-110.64
-102.62
-88.44
-70.46
-50.80
-29.17
-4.09
25.23
57.05
86.46
105.55
107.78
90.01
53.81
7.02
-39.33
-74.81
-93.15
-94.06
-84.22
-71.02
-60.11
-53.32
-45.72
-28.86
4.96
58.90
130.00
208.34
284.65
352.29
393.63
396.96
358.97
286.06
192.20
106.54
38.24
-9.95
-37.58
-46.29
-42.22
-32.26
-24.78
-27.18
-43.16
-73.31
-111.57
-150.84
-183.65
-203.78
-208.46
-198.76
-178.05
-150.60
-122.17
-97.06
-77.14
-63.70
-56.09
-52.19
-50.05
-48.76
-49.42
-54.48
-65.38
-82.37
-105.62
-133.86
-164.28
-193.91
-220.54
-243.38
-263.43
-281.78
-300.19
-322.33
-351.00
-385.48
-420.84
-448.82
-460.79
-451.06
-418.49
-358.05
-275.74
-185.37
-101.56
-33.95
15.33
49.36
70.80
85.98
101.24
121.14
149.09
187.68
236.82
292.21
344.90
382.42
394.67
378.88
345.47
305.70
268.21
234.99
204.98
174.82
141.75
105.28
67.67
31.14
-3.99
-38.50
-74.23
-112.91
-155.85
-202.98
-252.79
-301.16
-342.77
-372.01
-383.28
-373.52
-343.64
-298.81
-239.99
-173.56
-107.81
-51.01
-8.23
19.99
35.28
40.14
37.14
31.12
27.64
32.94
50.91
82.88
128.77
186.39
251.16
316.68
372.46
406.61
419.61
414.95
393.59
359.86
318.75
274.68
230.99
190.32
154.41
124.47
99.15
75.02
47.64
11.60
-37.24
-98.96
-167.77
-232.16
-277.35
-292.05
-272.71
-225.86
-167.21
-115.49
-85.01
-80.58
-97.09
-123.19
-147.91
-164.46
-171.40
-171.98
-171.71
-176.14
-189.21
-212.18
-242.40
-273.89
-298.99
-311.21
-308.28
-292.86
-270.72
-247.79
-227.72
-210.37
-192.90
-171.86
-144.59
-109.63
-65.77
-11.57
55.54
132.93
212.76
284.54
339.51
373.51
387.29
384.78
371.05
350.81
327.35
303.04
279.49
257.76
238.33
221.19
206.27
193.81
184.47
178.37
174.51
169.87
159.78
139.50
106.72
63.51
16.23
-26.76
-58.83
-77.22
-83.57
-82.01
-76.75
-70.28
-63.19
-55.08
-45.93
-36.77
-28.97
-23.44
-19.78
-16.62
-12.67
-7.28
-1.07
4.28
6.61
4.35
-3.37
-15.88
-31.49
-47.82
-63.23
-76.70
-87.87
-97.80
-106.08
-112.40
-115.76
-114.89
-108.79
-97.04
-79.78
-58.08
-33.57
-6.93
18.52
39.74
56.01
66.84
72.11
72.35
67.96
59.47
47.55
32.43
14.83
-4.12
-23.00
-39.79
-51.98
-58.05
-57.27
-50.07
-38.28
-24.12
-9.73
3.33
14.62
24.80
33.66
40.62
44.16
42.04
32.11
12.63
-17.78
-60.67
-110.20
-160.42
-203.80
-232.30
-239.24
-221.46
-181.21
-126.28
-67.78
-16.12
21.40
43.27
52.51
53.95
51.55
47.15
41.04
33.53
26.03
19.93
16.52
15.72
16.17
15.85
12.92
6.81
-1.69
-10.69
-18.64
-24.50
-28.35
-31.15
-34.18
-38.39
-43.82
-49.57
-54.14
-56.53
-55.78
-51.82
-45.38
-37.69
-29.97
-23.09
-17.42
-12.97
-9.70
-7.58
-6.64
-7.09
-9.13
-12.87
-18.15
-24.62
-31.90
-39.65
-47.70
-55.76
-63.75
-71.65
-79.50
-87.30
-95.03
-102.68
-110.33
-118.10
-125.71
-132.97
-139.64
-145.44
-149.91
-152.50
-152.47
-148.81
-143.45
-137.04
-129.96
-122.38
-114.34
-105.74
-96.55
-86.86
-76.98
-67.39
-58.21
-49.52
-41.24
-33.06
-24.51
-15.19
-4.94
6.01
17.11
28.02
38.50
48.63
58.90
70.02
82.63
96.96
112.68
129.07
145.47
161.38
176.70
191.75
207.14
223.64
242.10
263.28
287.42
313.73
339.81
361.84
375.48
377.37
366.45
344.35
314.77
282.02
249.67
219.69
192.71
168.67
147.56
129.58
114.82
102.82
92.49
82.35
71.20
58.56
44.83
31.12
18.72
8.53
0.79
-4.99
-9.74
-14.32
-19.20
-24.23
-28.89
-32.57
-35.00
-36.26
-36.69
-36.67
-36.39
-35.82
-34.90
-33.67
-32.41
-31.56
-31.58
-32.67
-34.74
-37.35
-39.89
-41.77
-42.59
-42.24
-40.91
-39.01
-37.05
-35.48
-34.60
-34.46
-34.90
-35.52
-35.94
-35.81
-35.07
-33.88
-32.56
-31.35
-30.25
-28.99
-27.24
-24.77
-21.74
-18.63
-16.05
-14.47
-13.98
-14.31
-14.96
-15.47
-15.62
-15.48
-15.28
-15.27
-15.43
-15.62
-15.59
-15.17
-14.34
-13.19
-11.84
-10.38
-8.84
-7.27
-5.79
-4.49
-3.44
-2.60
-1.89
-1.33
-1.03
-1.17
-1.97
-3.46
-5.42
-7.47
-9.19
-10.27
-10.65
-10.42
-9.78
-8.96
-8.16
-7.54
-7.19
-7.12
-7.23
-7.38
-7.43
-7.40
-7.43
-7.71
-8.35
-9.30
-10.21
-10.61
-10.08
-8.45
-6.00
-3.25
-0.81
0.84
1.48
1.16
0.03
-1.78
-4.18
-7.14
-10.48
-13.91
-17.02
-19.47
-21.01
-21.61
-21.38
-20.40
-18.73
-16.31
-13.11
-9.11
-4.46
0.57
5.60
10.23
14.14
17.12
19.15
20.37
21.02
21.36
21.57
21.76
22.00
22.39
23.01
23.94
25.21
26.66
28.05
28.93
28.90
27.65
25.15
21.66
17.60
13.40
9.37
5.65
2.31
-0.50
-2.55
-3.59
-3.38
-1.83
1.02
5.15
10.47
16.78
23.69
30.45
36.18
40.08
41.79
41.59
40.27
38.79
37.90
37.91
38.64
39.42
39.26
36.89
31.02
20.64
5.58
-13.08
-32.97
-50.90
-63.72
-69.31
-67.17
-58.36
-44.99
-29.50
-14.01
-0.18
10.83
18.26
21.94
22.56
21.70
21.63
24.54
31.82
43.26
56.99
69.85
78.32
79.43
71.66
55.33
32.56
6.82
-17.93
-38.16
-51.58
-57.64
-57.41
-53.01
-46.77
-40.50
-35.12
-30.75
-27.02
-23.40
-19.56
-15.36
-10.86
-6.26
-1.87
1.92
4.72
6.36
7.05
7.37
8.19
10.30
14.13
19.49
25.58
31.29
35.51
37.57
37.49
35.99
34.16
33.14
33.58
35.61
38.85
42.67
46.42
49.74
52.64
55.44
58.72
62.82
67.83
73.53
79.37
84.84
89.78
94.52
99.62
105.72
112.62
119.48
124.95
126.89
123.40
113.36
97.01
75.94
53.27
31.70
13.38
-0.58
-11.60
-22.16
-34.30
-48.21
-61.99
-71.94
-76.86
-78.25
-79.80
-88.06
-108.52
-142.82
-187.52
-235.47
-277.42
-308.80
-329.12
-340.68
-349.67
-362.63
-384.48
-417.67
-462.20
-514.12
-570.56
-626.90
-659.53
-647.93
-582.36
-470.80
-335.89
-216.34
-122.74
-53.94
-3.51
35.98
69.98
99.59
125.08
148.44
174.22
209.81
256.21
309.49
362.91
407.30
434.91
442.28
430.92
406.48
377.76
350.50
328.00
311.82
300.80
292.09
281.81
265.57
239.37
201.77
153.14
97.61
42.70
-4.10
-38.17
-59.08
-69.91
-74.94
-76.77
-76.47
-73.59
-67.53
-59.24
-51.22
-46.27
-45.86
-49.31
-53.80
-56.11
-53.96
-47.00
-36.94
-26.77
-19.30
-15.88
-15.89
-16.65
-14.98
-8.71
2.28
15.79
28.38
36.59
38.29
32.81
21.07
4.89
-13.08
-29.12
-38.95
-38.92
-28.01
-9.36
9.84
21.64
20.59
6.70
-14.32
-34.12
-45.34
-44.85
-32.85
-14.54
5.36
24.25
41.26
57.27
71.48
81.79
85.87
82.49
72.29
58.28
44.26
33.68
28.74
29.55
34.81
42.51
50.90
58.85
66.40
73.51
80.14
86.03
90.28
92.01
90.68
86.55
80.64
74.86
70.53
68.78
70.11
74.06
79.44
84.51
87.23
85.12
81.17
75.81
69.09
60.85
50.70
38.17
22.79
4.34
-16.98
-40.28
-64.82
-89.03
-110.94
-128.53
-140.21
-145.07
-143.09
-135.03
-122.22
-106.88
-91.15
-76.93
-65.83
-59.24
-58.29
-63.96
-77.26
-99.24
-130.93
-171.85
-219.19
-267.62
-310.12
-339.70
-351.26
-342.76
-315.39
-273.20
-221.62
-166.48
-113.05
-65.25
-25.02
8.20
37.23
65.84
96.78
130.09
162.54
188.70
203.38
204.01
191.62
170.55
146.65
125.40
110.49
103.31
103.17
107.74
113.62
116.60
112.28
96.91
68.76
29.15
-17.37
-63.94
-103.39
-130.53
-143.66
-144.61
-137.34
-125.77
-112.41
-98.23
-83.68
-69.98
-59.49
-54.84
-57.28
-65.76
-77.22
-88.10
-96.03
-100.73
-103.71
-107.20
-112.91
-121.26
-130.79
-138.64
-141.35
-136.27
-122.93
-103.46
-81.69
-61.22
-43.75
-28.54
-14.00
0.37
12.45
18.27
14.59
1.52
-16.30
-31.26
-36.14
-27.46
-6.84
20.05
46.33
66.76
79.39
85.26
87.05
87.41
87.81
88.42
88.54
87.21
83.76
77.98
70.13
60.85
51.04
41.65
33.63
27.75
24.36
23.36
24.00
25.13
25.24
23.06
17.93
10.23
1.36
-6.93
-13.13
-16.80
-18.58
-19.95
-22.50
-27.36
-34.99
-45.33
-58.25
-73.34
-89.54
-104.63
-115.06
-116.57
-105.36
-79.61
-40.27
8.90
62.19
113.06
155.35
184.28
197.06
193.51
176.02
149.19
118.51
89.07
64.28
45.38
31.93
22.59
16.05
11.49
8.60
7.38
7.97
10.52
15.11
21.63
29.44
37.49
44.42
48.98
50.26
47.88
42.04
33.34
22.79
11.59
0.94
-8.10
-14.67
-18.31
-18.95
-17.05
-13.76
-10.62
-9.48
-11.87
-18.52
-29.02
-41.89
-55.12
-66.77
-75.24
-79.16
-77.14
-67.88
-50.75
-26.78
1.09
28.41
50.78
65.45
72.15
72.63
69.40
64.44
58.69
52.43
46.12
40.83
37.81
37.70
39.70
41.82
41.79
38.27
31.59
23.63
16.72
12.49
10.95
10.51
8.85
4.10
-4.05
-14.07
-23.28
-29.16
-30.46
-27.69
-22.62
-17.23
-12.83
-9.58
-6.67
-2.81
3.29
12.64
25.91
43.20
64.02
87.31
111.69
136.10
160.18
184.42
209.72
236.72
265.13
293.37
318.52
336.81
344.29
337.92
316.52
281.39
236.29
186.51
137.62
93.87
57.55
28.91
6.85
-10.19
-23.60
-34.35
-43.38
-51.67
-60.53
-71.36
-85.16
-102.43
-123.16
-147.34
-175.21
-207.16
-242.73
-279.47
-312.50
-335.17
-341.06
-326.30
-290.89
-238.29
-173.57
-101.48
-25.86
49.26
118.21
173.22
206.32
212.51
192.69
154.00
107.37
63.21
27.67
1.27
-20.03
-41.97
-69.77
-107.06
-155.71
-215.56
-283.74
-354.03
-417.17
-463.13
-484.37
-478.46
-449.00
-403.96
-352.28
-300.79
-252.71
-208.09
-165.52
-123.89
-82.99
-43.25
-5.14
31.26
66.17
99.66
131.65
162.30
192.51
224.11
258.88
296.76
334.22
364.09
377.28
366.09
327.41
264.24
184.51
98.11
13.36
-65.06
-136.06
-200.74
-260.80
-317.79
-372.89
-426.58
-477.73
-522.64
-555.02
-567.76
-555.98
-519.66
-464.62
-400.89
-339.37
-288.36
-251.67
-228.81
-216.60
-211.05
-208.45
-205.54
-199.49
-188.01
-169.82
-145.11
-115.60
-83.69
-51.80
-21.38
7.47
35.52
63.80
92.68
121.53
148.70
172.24
190.62
203.30
210.72
213.85
213.52
210.04
203.10
192.33
178.10
161.97
146.59
134.98
129.27
129.91
135.40
143.07
150.19
155.28
158.63
161.81
166.97
175.85
189.50
208.16
230.77
254.14
272.37
277.56
262.13
222.55
161.83
89.56
18.66
-39.72
-80.25
-104.15
-116.49
-121.93
-121.70
-113.69
-95.19
-66.09
-30.32
5.62
35.78
57.54
72.38
84.57
98.25
115.29
134.58
152.93
167.25
176.20
180.92
184.55
190.84
202.73
221.45
246.19
274.35
302.19
325.84
342.62
352.12
356.72
360.89
369.63
386.39
411.50
442.08
472.77
498.11
513.96
517.96
509.03
486.52
449.93
399.59
337.72
268.72
199.06
135.59
83.78
46.35
22.86
10.58
5.83
5.60
7.29
9.68
12.11
14.17
15.25
14.49
10.89
3.46
-7.60
-23.38
-43.38
-66.66
-92.11
-118.65
-145.28
-171.06
-194.97
-214.28
-230.30
-243.40
-254.91
-265.99
-276.04
-281.20
-274.76
-249.34
-197.45
-122.35
-29.56
71.69
170.97
258.59
326.38
367.72
377.78
358.35
308.44
236.34
154.25
75.07
8.98
-38.69
-67.69
-103.36
-121.66
-132.00
-138.20
-143.16
-149.19
-157.74
-169.16
-182.75
-197.31
-208.26
-218.85
-229.20
-240.62
-255.34
-275.06
-299.75
-327.44
-354.75
-375.36
-388.55
-391.65
-384.41
-369.33
-350.63
-332.48
-317.50
-306.05
-294.31
-279.21
-254.73
-216.79
-164.93
-101.89
-32.15
39.43
108.59
165.19
196.21
196.20
170.31
129.54
83.92
39.39
-1.45
-37.86
-69.70
-96.34
-116.08
-128.37
-133.29
-130.80
-120.76
-103.54
-80.83
-56.39
-34.77
-20.09
-15.20
-24.51
-49.53
-88.82
-138.11
-190.43
-236.71
-266.48
-270.17
-242.47
-184.77
-105.60
-18.32
63.71
131.89
184.53
225.60
261.67
298.92
341.27
389.25
439.61
486.30
521.21
535.38
520.30
471.79
393.42
297.56
201.02
118.38
56.89
13.99
-19.84
-56.31
-102.39
-160.41
-220.02
-264.28
-281.38
-272.03
-251.20
-230.95
-217.81
-213.22
-215.57
-222.60
-233.15
-246.00
-255.17
-253.96
-239.58
-216.89
-196.11
-181.42
-172.68
-167.90
-164.91
-158.14
-142.58
-115.19
-76.44
-28.77
25.61
84.07
143.21
199.04
251.96
302.90
352.73
401.23
448.40
495.25
541.56
584.06
592.45
544.90
439.36
297.68
151.76
26.82
-65.30
-125.24
-161.05
-182.64
-193.79
-195.19
-187.30
-173.01
-157.14
-144.08
-136.34
-134.13
-135.68
-135.65
-129.58
-116.55
-99.59
-83.52
-72.16
-66.86
-66.65
-68.99
-69.28
-64.13
-53.11
-38.60
-24.29
-13.08
-6.03
-2.53
-1.39
-0.72
0.26
0.71
-1.33
-8.00
-20.68
-39.30
-62.58
-87.73
-109.87
-123.17
-122.76
-106.91
-78.39
-43.74
-11.02
13.28
26.51
30.21
28.32
24.69
21.41
18.52
15.25
11.34
7.50
4.96
4.44
5.46
6.50
5.88
2.45
-3.55
-10.84
-17.54
-21.93
-23.06
-21.00
-16.41
-10.10
-2.58
6.33
16.94
29.30
42.87
56.27
67.58
74.90
77.06
73.39
65.48
55.22
44.33
33.89
24.21
15.10
6.27
-2.04
-8.88
-13.00
-13.21
-8.82
0.17
12.92
27.69
41.79
52.16
56.10
52.40
41.96
27.90
14.49
5.43
2.41
4.29
8.23
10.94
10.36
6.24
0.01
-6.28
-11.01
-13.70
-15.40
-17.76
-22.59
-30.95
-42.69
-56.28
-69.34
-79.34
-83.25
-81.03
-73.88
-63.58
-51.68
-39.08
-26.08
-12.74
0.69
13.56
24.78
33.68
39.97
43.79
45.58
45.78
44.55
41.67
36.57
28.22
15.83
-1.04
-22.16
-46.46
-72.14
-97.04
-119.04
-136.75
-149.91
-159.15
-165.68
-170.84
-176.00
-182.54
-191.50
-202.42
-213.14
-219.62
-216.98
-201.61
-173.16
-135.45
-95.55
-61.15
-37.23
-25.10
-22.60
-25.84
-31.18
-36.39
-40.34
-41.94
-42.67
-41.87
-38.70
-32.88
-25.12
-16.76
-9.27
-3.35
1.41
6.43
14.01
26.01
43.25
65.32
90.78
117.62
143.82
167.80
188.60
206.33
221.69
235.89
250.27
265.56
281.34
295.59
304.96
305.71
295.10
272.13
237.86
195.04
147.40
99.00
53.81
15.23
-14.37
-34.31
-46.15
-53.41
-60.47
-70.93
-86.32
-105.80
-126.92
-146.81
-163.18
-174.72
-180.77
-180.75
-173.97
-159.80
-138.18
-110.03
-77.30
-42.77
-9.37
20.36
44.81
63.45
76.74
85.75
91.62
95.25
97.10
97.35
96.19
93.90
90.89
87.53
83.98
80.18
75.93
70.98
65.22
58.75
51.91
45.21
39.23
34.36
30.63
27.70
25.03
22.12
18.83
15.37
12.17
9.57
7.55
5.79
3.82
1.44
-1.28
-3.89
-5.91
-7.01
-7.27
-7.03
-6.75
-6.75
-7.10
-7.67
-8.19
-8.44
-8.28
-7.73
-6.90
-5.89
-4.91
-4.14
-3.77
-3.88
-4.46
-5.35
-6.30
-7.16
-7.81
-8.27
-8.59
-8.76
-8.71
-8.30
-7.49
-6.35
-5.09
-3.97
-3.10
-2.45
-1.82
-1.10
-0.23
0.63
1.33
1.78
2.11
2.52
3.15
3.92
4.45
4.37
3.45
1.95
0.43
-0.46
-0.32
0.78
2.45
4.15
5.54
6.53
7.23
7.67
7.68
6.84
4.77
1.42
-2.83
-7.16
-10.67
-12.67
-12.99
-11.98
-10.30
-8.62
-7.37
-6.67
-6.31
-6.01
-5.54
-4.92
-4.30
-3.87
-3.73
-3.83
-4.01
-4.03
-3.77
-3.25
-2.68
-2.28
-2.14
-2.21
-2.30
-2.26
-2.06
-1.87
-1.98
-2.61
-3.81
-5.38
-7.00
-8.31
-9.16
-9.55
-9.66
-9.71
-9.79
-9.90
-9.88
-9.57
-8.83
-7.64
-6.08
-4.35
-2.72
-1.44
-0.73
-0.68
-1.25
-2.25
-3.43
-4.47
-5.22
-5.58
-5.58
-5.36
-5.03
-4.63
-4.12
-3.49
-2.72
-1.91
-1.16
-0.54
-0.03
0.47
1.14
2.05
3.12
4.17
4.93
5.27
5.17
4.74
4.12
3.45
2.76
2.07
1.41
0.85
0.48
0.35
0.40
0.51
0.55
0.33
-0.27
-1.28
-2.65
-4.20
-5.64
-6.65
-6.99
-6.58
-5.54
-4.20
-2.88
-1.84
-1.13
-0.67
-0.32
-0.02
0.20
0.24
-0.02
-0.61
-1.45
-2.34
-3.06
-3.45
-3.47
-3.12
-2.50
-1.71
-0.82
0.05
0.79
1.29
1.49
1.39
1.11
0.83
0.73
0.93
1.38
2.00
2.59
3.01
3.15
2.98
2.54
1.92
1.23
0.57
-0.01
-0.47
-0.82
-1.06
-1.15
-1.02
-0.63
-0.02
0.72
1.45
2.06
2.45
2.60
2.49
2.12
1.54
0.89
0.35
0.12
0.33
0.98
1.97
3.12
4.27
5.36
6.42
7.48
8.54
9.51
10.26
10.69
10.72
10.34
9.60
8.50
7.11
5.48
3.72
1.97
0.40
-0.88
-1.85
-2.58
-3.26
-4.07
-5.12
-6.44
-7.96
-9.52
-10.92
-11.97
-12.56
-12.68
-12.45
-12.01
-11.48
-10.95
-10.40
-9.78
-9.06
-8.33
-7.69
-7.28
-7.16
-7.25
-7.39
-7.35
-7.02
-6.36
-5.51
-4.72
-4.24
-4.22
-4.70
-5.50
-6.44
-7.33
-8.04
-8.58
-9.01
-9.40
-9.84
-10.29
-10.63
-10.73
-10.50
-9.89
-8.98
-7.92
-6.77
-5.59
-4.37
-3.11
-1.91
-0.92
-0.32
-0.12
-0.22
-0.37
-0.33
-0.00
0.58
1.27
1.91
2.43
2.81
3.11
3.40
3.71
4.09
4.56
5.17
5.97
6.94
7.97
8.89
9.56
9.82
9.66
9.08
8.10
6.70
4.94
2.90
0.84
-0.92
-2.11
-2.56
-2.29
-1.51
-0.54
0.31
0.81
0.81
0.27
-0.74
-2.05
-3.38
-4.43
-5.02
-5.10
-4.71
-4.00
-3.12
-2.22
-1.37
-0.65
-0.12
0.11
0.00
-0.42
-1.07
-1.77
-2.37
-2.71
-2.70
-2.34
-1.65
-0.74
0.25
1.14
1.81
2.22
2.42
2.49
2.55
2.69
2.90
3.09
3.18
3.10
2.89
2.62
2.43
2.41
2.65
3.12
3.77
4.46
5.06
5.39
5.35
4.91
4.15
3.21
2.29
1.49
0.85
0.32
-0.18
-0.69
-1.23
-1.73
-2.14
-2.40
-2.48
-2.36
-2.02
-1.48
-0.78
-0.03
0.64
1.10
1.31
1.34
1.29
1.28
1.27
1.18
0.89
0.37
-0.32
-0.95
-1.31
-1.26
-0.90
-0.43
-0.12
-0.12
-0.40
-0.81
-1.12
-1.15
-0.90
-0.49
-0.14
-0.04
-0.31
-0.92
-1.77
-2.73
-3.64
-4.48
-5.20
-5.82
-6.33
-6.80
-7.22
-7.59
-7.86
-7.96
-7.82
-7.38
-6.69
-5.88
-5.15
-4.68
-4.60
-4.94
-5.61
-6.47
-7.29
-7.80
-7.81
-7.21
-6.03
-4.50
-2.93
-1.55
-0.51
0.20
0.72
1.16
1.57
1.92
2.12
2.10
1.95
1.82
1.86
2.17
2.72
3.38
3.94
4.26
4.26
4.03
3.72
3.46
3.34
3.39
3.56
3.78
4.01
4.22
4.44
4.69
4.96
5.19
5.24
4.98
4.36
3.44
2.35
1.26
0.33
-0.36
-0.79
-1.01
-1.09
-1.11
-1.13
-1.26
-1.55
-2.04
-2.75
-3.58
-4.44
-5.22
-5.77
-6.02
-5.92
-5.46
-4.71
-3.78
-2.75
-1.72
-0.72
0.31
1.36
2.46
3.56
4.57
5.36
5.92
6.25
6.40
6.44
6.40
6.29
6.09
5.78
5.31
4.72
4.05
3.35
2.73
2.28
2.07
2.16
2.53
3.11
3.77
4.31
4.56
4.45
3.99
3.32
2.59
1.88
1.21
0.58
-0.03
-0.60
-1.04
-1.30
-1.41
-1.41
-1.43
-1.50
-1.58
-1.60
-1.49
-1.20
-0.72
-0.10
0.60
1.34
2.04
2.67
3.16
3.49
3.66
3.70
3.69
3.71
3.85
4.14
4.56
5.02
5.45
5.78
6.02
6.25
6.50
6.80
7.08
7.26
7.27
7.18
7.11
7.22
7.62
8.25
8.89
9.13
8.59
6.98
4.31
0.95
-2.56
-5.61
-7.87
-9.36
-10.42
-11.45
-12.65
-13.93
-14.96
-15.41
-15.16
-14.38
-13.46
-12.69
-12.14
-11.64
-10.97
-9.98
-8.69
-7.28
-5.88
-4.56
-3.32
-2.19
-1.29
-0.84
-1.00
-1.80
-3.05
-4.44
-5.60
-6.28
-6.37
-5.90
-4.99
-3.75
-2.25
-0.53
1.37
3.38
5.32
6.98
8.18
8.80
8.87
8.57
8.10
7.66
7.39
7.30
7.35
7.44
7.43
7.22
6.74
5.98
5.06
4.12
3.34
2.82
2.54
2.37
2.23
2.07
1.96
2.05
2.40
2.99
3.66
4.22
4.50
4.47
4.15
3.64
2.99
2.28
1.55
0.89
0.42
0.20
0.14
0.02
-0.47
-1.57
-3.35
-5.62
-8.04
-10.22
-11.84
-12.78
-13.04
-12.72
-12.00
-11.08
-10.23
-9.70
-9.66
-10.13
-10.95
-11.84
-12.43
-12.45
-11.78
-10.36
-8.24
-5.45
-2.10
1.62
5.36
8.75
11.45
13.28
14.25
14.50
14.16
13.33
12.00
10.22
8.20
6.36
5.14
4.90
5.75
7.51
9.76
12.00
13.83
15.05
15.64
15.75
15.58
15.34
15.16
15.02
14.74
14.10
12.87
10.98
8.61
6.05
3.65
1.67
0.18
-0.86
-1.58
-2.02
-2.18
-2.01
-1.53
-0.88
-0.29
0.00
-0.14
-0.73
-1.64
-2.72
-3.76
-4.70
-5.50
-6.19
-6.82
-7.30
-7.57
-7.58
-7.34
-6.89
-6.37
-5.89
-5.45
-5.08
-4.77
-4.59
-4.64
-4.99
-5.64
-6.42
-7.14
-7.64
-7.85
-7.85
-7.78
-7.73
-7.71
-7.69
-7.60
-7.38
-7.00
-6.46
-5.75
-4.86
-3.83
-2.75
-1.78
-1.08
-0.74
-0.79
-1.16
-1.72
-2.38
-3.07
-3.72
-4.27
-4.63
-4.82
-4.92
-5.02
-5.25
-5.69
-6.36
-7.16
-8.01
-8.86
-9.66
-10.40
-11.01
-11.41
-11.59
-11.62
-11.52
-11.35
-11.18
-11.02
-10.94
-10.84
-10.67
-10.46
-10.33
-10.40
-10.73
-11.38
-12.33
-13.54
-14.54
-14.93
-14.51
-13.26
-11.40
-9.16
-6.70
-3.78
0.33
7.51
19.69
37.98
61.95
89.25
116.07
138.23
152.61
158.11
156.48
150.42
141.98
131.87
119.81
105.78
91.25
79.22
67.94
57.29
47.29
37.85
28.96
20.57
12.58
5.02
-2.36
-10.58
-20.20
-31.49
-43.27
-52.38
-54.54
-46.25
-27.05
-0.52
26.96
50.25
68.35
83.42
98.13
113.10
125.76
131.40
125.98
108.90
84.62
60.62
43.94
36.49
34.98
33.64
27.72
15.71
-0.51
-16.92
-30.38
-40.61
-48.57
-58.88
-75.92
-101.30
-133.77
-170.81
-209.92
-248.98
-285.12
-316.72
-341.32
-356.31
-361.27
-360.02
-360.58
-371.67
-398.11
-418.57
-412.42
-367.30
-287.49
-190.51
-95.77
-15.83
46.02
93.11
131.21
161.53
182.63
192.47
190.87
180.83
167.41
156.30
151.54
155.08
163.95
173.50
179.56
179.67
174.25
165.76
157.47
151.71
149.56
148.97
147.09
141.65
130.92
115.39
97.52
80.64
66.68
57.01
50.32
44.55
37.96
28.00
13.98
-2.54
-18.54
-32.26
-41.85
-48.19
-53.03
-58.39
-68.38
-86.14
-113.25
-142.90
-171.53
-195.73
-214.83
-228.95
-223.37
-191.91
-138.89
-75.76
-12.96
36.82
78.32
114.99
147.75
175.98
196.03
204.17
198.95
181.10
151.43
112.33
68.48
26.82
-7.25
-33.67
-54.12
-69.68
-80.33
-86.25
-86.86
-83.10
-76.36
-68.10
-60.73
-55.90
-53.93
-54.17
-55.81
-57.27
-57.83
-57.11
-55.34
-53.48
-52.37
-52.23
-52.78
-53.66
-54.65
-56.53
-60.33
-66.30
-72.52
-74.78
-67.88
-48.42
-17.16
20.52
56.32
82.49
94.67
93.31
82.31
66.76
50.68
36.54
26.00
20.39
21.69
30.21
43.36
55.68
60.97
55.38
39.79
19.99
4.13
-1.22
5.60
20.80
37.29
48.32
50.42
44.43
33.91
23.30
15.80
11.89
10.21
8.44
4.29
-3.73
-15.74
-30.45
-43.85
-49.69
-42.01
-17.32
22.70
70.46
114.21
141.91
144.87
122.20
80.84
31.50
-15.43
-53.73
-82.11
-102.72
-118.75
-133.91
-150.29
-164.47
-174.75
-179.59
-177.56
-167.29
-147.75
-114.31
-71.46
-30.48
-2.47
7.17
0.69
-15.68
-37.77
-62.78
-87.82
-109.93
-124.45
-123.59
-102.52
-60.30
-0.80
67.72
134.23
187.16
216.50
218.40
197.20
163.71
132.17
115.27
120.25
147.82
193.67
250.84
312.93
374.78
430.56
473.02
494.40
489.07
456.83
404.07
341.69
281.45
231.86
195.43
169.51
148.87
128.78
106.96
83.74
60.82
39.90
21.92
6.46
-7.70
-21.95
-37.14
-53.33
-69.96
-86.30
-102.10
-117.65
-133.69
-151.02
-170.07
-191.01
-214.00
-239.18
-266.35
-294.08
-319.00
-336.24
-341.00
-330.53
-305.76
-271.46
-234.74
-202.22
-177.41
-159.21
-142.72
-121.72
-91.81
-52.73
-8.81
32.47
63.14
77.30
72.53
49.80
12.57
-33.80
-82.50
-125.20
-152.95
-158.16
-137.53
-94.06
-36.82
21.94
71.04
103.65
118.74
119.67
111.13
96.19
75.36
47.90
14.56
-20.26
-48.59
-61.32
-52.62
-23.34
17.93
57.74
83.06
86.81
70.85
44.98
22.58
14.62
25.15
50.03
79.20
101.37
108.84
100.55
81.95
62.01
48.84
45.89
50.75
56.96
57.62
48.98
32.15
11.97
-6.16
-19.31
-28.47
-37.78
-51.81
-72.61
-98.45
-124.44
-144.83
-155.39
-154.73
-143.95
-125.66
-102.88
-78.80
-57.28
-42.82
-39.89
-51.07
-75.06
-106.12
-135.42
-154.42
-158.66
-149.87
-135.14
-123.39
-120.64
-126.60
-134.59
-134.99
-120.35
-89.76
-49.70
-11.04
15.88
25.74
19.77
4.16
-13.29
-26.31
-31.61
-28.31
-16.50
3.33
29.93
60.26
89.11
110.19
118.27
111.28
91.45
64.53
38.01
18.42
9.48
11.25
20.43
31.73
39.54
39.83
31.37
16.21
-1.15
-15.39
-22.47
-20.65
-10.69
5.20
24.47
44.61
63.13
77.05
83.15
78.93
64.06
40.83
13.66
-12.55
-34.03
-48.92
-56.91
-58.55
-54.91
-47.92
-40.69
-36.92
-39.51
-49.01
-63.01
-77.26
-87.77
-92.85
-93.29
-91.17
-88.11
-84.24
-78.43
-69.17
-55.34
-36.34
-12.04
16.88
48.31
78.30
101.56
113.27
111.49
98.16
78.29
57.90
41.66
31.82
28.62
31.35
38.93
49.71
60.78
68.24
68.62
60.71
46.62
31.29
20.34
17.28
21.92
30.68
38.50
41.24
37.31
27.77
15.23
2.49
-8.62
-17.30
-23.49
-27.17
-27.86
-24.55
-16.10
-1.87
17.48
39.56
60.73
77.30
86.92
89.55
87.25
82.98
78.98
75.98
73.45
70.88
68.88
69.19
73.86
83.44
95.89
106.68
110.19
101.43
77.86
39.98
-8.71
-62.38
-114.18
-157.68
-188.18
-203.67
-204.96
-194.81
-176.76
-154.13
-129.40
-104.39
-80.40
-58.19
-37.92
-19.01
-0.19
19.87
41.79
64.79
86.57
103.85
113.14
111.65
98.01
73.04
39.96
4.26
-27.22
-48.12
-54.44
-46.04
-26.74
-2.86
19.03
34.07
40.33
38.71
32.02
23.86
17.77
16.46
21.29
31.85
45.69
58.55
65.53
62.48
47.22
20.23
-15.79
-56.64
-97.44
-133.40
-160.30
-175.14
-176.86
-166.66
-147.65
-123.99
-99.71
-78.01
-60.83
-48.87
-41.81
-38.44
-37.18
-36.67
-36.31
-36.36
-37.12
-38.13
-37.64
-33.41
-24.27
-11.39
1.93
11.62
15.00
12.06
4.95
-3.78
-12.80
-22.23
-32.55
-43.07
-51.55
-54.97
-51.13
-39.84
-22.81
-2.57
18.72
39.83
60.36
80.01
98.02
113.36
124.90
131.78
133.44
129.28
118.48
99.97
73.04
38.49
-0.53
-38.59
-69.25
-87.40
-91.13
-82.58
-67.08
-50.66
-37.61
-28.79
-21.87
-12.90
1.16
20.59
42.63
62.48
75.57
79.72
76.18
69.01
63.35
62.69
67.02
72.73
74.42
67.88
52.65
32.56
14.03
2.96
1.76
8.55
18.48
26.49
30.02
29.59
27.65
26.57
27.01
28.00
28.31
27.83
27.63
29.24
32.97
37.20
39.36
37.34
30.83
21.57
12.16
4.25
-2.49
-10.43
-22.74
-41.53
-66.48
-94.57
-121.04
-140.99
-151.06
-150.18
-139.59
-122.11
-101.17
-80.13
-61.65
-47.44
-38.18
-33.61
-32.79
-34.60
-38.04
-42.11
-45.82
-47.85
-46.90
-42.63
-36.33
-30.93
-29.91
-35.56
-47.32
-62.00
-74.91
-82.17
-82.26
-76.44
-67.89
-59.90
-54.42
-51.03
-47.28
-39.54
-24.52
-0.67
30.88
66.21
99.55
124.85
137.84
137.80
127.99
114.67
104.97
104.04
113.05
128.81
145.26
156.26
158.27
151.38
138.34
122.37
105.06
85.84
63.29
37.25
10.23
-13.11
-28.20
-33.18
-30.10
-23.93
-19.88
-20.54
-24.75
-28.77
-28.83
-23.71
-15.24
-6.88
-1.58
0.02
-0.37
-0.49
0.97
3.34
4.80
3.94
1.02
-2.26
-3.71
-2.19
1.58
5.47
7.03
4.75
-1.54
-10.60
-20.36
-28.39
-32.41
-30.81
-23.33
-11.63
0.90
10.06
12.48
7.09
-4.42
-18.59
-31.83
-41.69
-47.55
-49.86
-49.34
-46.30
-40.83
-33.31
-24.68
-16.55
-10.49
-7.47
-7.37
-9.10
-11.24
-12.98
-14.78
-18.16
-25.02
-36.01
-49.48
-61.50
-67.42
-64.17
-52.26
-35.80
-20.66
-11.55
-9.65
-12.26
-14.34
-11.35
-1.04
15.51
34.93
53.68
69.71
83.19
95.49
107.38
117.62
123.23
120.64
107.91
86.40
60.88
37.84
22.67
17.23
19.02
22.71
21.75
11.04
-10.99
-41.55
-74.12
-100.97
-116.32
-118.51
-109.00
-92.67
-75.68
-62.99
-56.73
-55.89
-57.77
-60.08
-61.90
-60.81
-55.72
-47.37
-37.85
-29.23
-22.19
-15.91
-9.11
-0.77
14.13
38.84
73.27
114.16
157.47
200.70
243.01
284.17
323.86
367.26
418.01
475.88
536.66
595.04
647.46
692.33
728.91
718.48
638.83
494.14
314.62
135.97
-18.99
-143.00
-238.20
-310.41
-365.76
-403.57
-423.23
-427.10
-420.67
-410.13
-399.60
-390.18
-382.63
-375.61
-363.66
-343.19
-314.74
-282.20
-250.65
-223.96
-203.28
-188.28
-178.12
-169.39
-159.47
-148.11
-136.03
-124.02
-111.80
-98.34
-81.82
-61.18
-35.67
-6.27
23.54
50.02
69.61
73.38
55.84
16.42
-40.23
-105.90
-167.80
-223.20
-272.06
-314.98
-352.56
-384.37
-409.14
-426.14
-435.53
-437.97
-434.58
-424.79
-407.08
-379.72
-340.33
-287.08
-219.67
-139.81
-51.04
41.19
131.68
215.49
288.20
346.97
390.29
417.70
429.49
426.44
409.38
380.12
340.97
294.70
244.62
193.97
145.32
100.00
57.89
17.48
-22.94
-64.67
-107.82
-150.95
-191.58
-227.05
-255.62
-277.27
-293.63
-306.86
-318.59
-328.88
-335.98
-336.92
-328.37
-307.44
-271.94
-220.67
-154.21
-76.13
6.26
83.03
144.61
185.70
207.89
219.05
229.29
245.70
268.77
292.39
307.34
306.05
285.82
249.16
201.74
149.61
97.58
49.25
7.98
-22.81
-40.16
-42.57
-30.98
-8.59
19.97
50.15
78.58
103.61
124.88
142.62
157.01
167.80
174.59
177.27
176.60
174.39
173.40
176.93
187.73
206.37
229.67
250.20
257.80
243.14
201.77
137.18
60.52
-12.80
-68.56
-98.62
-102.71
-86.67
-58.43
-24.18
13.17
52.81
93.55
132.03
162.76
180.07
180.50
164.21
135.03
98.87
61.90
29.34
5.23
-7.41
-6.48
8.70
36.46
72.42
110.12
142.93
166.30
179.30
184.57
186.70
189.55
194.07
197.85
196.58
186.67
167.47
141.78
114.40
89.81
70.25
55.43
43.60
33.11
23.57
15.57
9.50
4.42
-2.06
-12.78
-29.16
-50.16
-72.45
-91.55
-103.86
-107.94
-104.72
-96.69
-86.41
-74.81
-61.19
-43.64
-20.11
10.37
47.07
87.50
128.00
164.51
194.28
215.33
226.52
227.86
220.76
208.09
193.74
181.50
173.80
173.01
179.24
190.73
205.00
219.86
234.09
247.27
259.14
269.29
280.48
295.01
313.89
336.32
359.54
379.91
394.19
400.78
400.00
397.74
398.91
404.95
413.01
417.10
411.06
391.45
358.93
291.70
181.82
34.14
-133.22
-295.44
-431.58
-531.39
-595.28
-630.24
-645.35
-644.55
-628.88
-601.01
-564.36
-523.35
-483.24
-449.54
-427.25
-420.17
-426.55
-442.37
-461.67
-477.16
-479.81
-462.38
-423.61
-370.72
-317.35
-275.51
-253.10
-246.96
-248.59
-248.86
-242.14
-227.27
-204.16
-173.72
-134.63
-89.47
-45.76
-13.26
2.94
7.07
10.84
26.43
57.90
98.05
131.56
144.06
130.14
96.23
56.16
23.02
3.00
-5.82
-9.55
-13.29
-17.79
-20.41
-17.83
-9.45
1.77
11.11
14.40
10.38
1.04
-9.34
-16.26
-16.68
-10.20
0.92
13.15
23.30
29.79
33.27
35.98
40.29
47.24
56.25
64.62
69.24
67.59
58.99
44.78
27.75
11.44
-1.38
-9.17
-12.01
-10.74
-6.90
-1.86
3.43
8.29
12.34
15.46
17.50
18.07
17.32
15.51
13.03
10.24
7.40
4.16
0.00
-3.92
-8.96
-15.98
-24.98
-35.20
-45.27
-53.50
-58.89
-61.13
-60.78
-59.49
-58.69
-59.21
-61.04
-63.29
-64.50
-63.99
-61.92
-59.52
-58.95
-61.45
-67.27
-75.01
-83.60
-88.78
-88.14
-81.09
-69.14
-55.71
-43.94
-37.06
-37.51
-46.48
-61.31
-79.65
-95.96
-103.12
-98.10
-79.44
-52.08
-26.07
-12.17
-16.71
-38.86
-69.95
-96.02
-106.76
-98.01
-73.18
-40.22
-7.08
21.51
43.98
60.68
71.79
75.81
72.52
64.64
58.57
62.27
81.76
117.45
163.33
210.64
248.26
269.26
272.28
260.67
239.80
214.32
186.61
155.36
122.40
88.59
55.66
25.53
-0.38
-21.47
-37.81
-50.14
-59.15
-64.90
-68.13
-69.19
-68.46
-66.57
-64.34
-62.60
-61.96
-62.58
-63.67
-64.86
-65.59
-65.55
-64.83
-64.02
-64.00
-65.62
-69.50
-75.59
-83.76
-93.40
-103.73
-113.62
-122.17
-128.28
-130.90
-129.05
-121.83
-108.73
-89.51
-64.47
-34.53
-1.51
31.84
62.76
88.81
108.39
121.08
127.75
130.19
130.31
130.07
129.68
128.70
126.27
122.06
116.33
110.18
104.93
101.24
99.06
97.82
97.24
97.36
98.00
97.83
93.99
82.80
61.58
30.52
-6.70
-43.79
-74.22
-93.55
-100.66
-97.41
-87.55
-75.18
-63.74
-55.68
-52.21
-53.12
-57.08
-62.16
-66.08
-66.67
-61.83
-49.65
-29.93
-5.52
17.44
31.45
31.61
19.45
3.72
-2.97
9.32
41.53
84.21
121.48
138.86
130.26
100.29
61.01
24.32
-2.78
-20.23
-32.44
-44.12
-56.82
-68.26
-74.24
-72.25
-62.87
-49.49
-36.69
-27.47
-21.91
-17.39
-10.35
1.92
19.65
40.65
61.41
78.52
90.02
95.62
96.61
94.80
91.30
86.05
78.08
66.23
50.05
30.32
8.86
-11.91
-29.68
-42.95
-51.36
-55.53
-56.94
-56.50
-55.26
-53.86
-52.55
-51.28
-49.95
-48.43
-46.72
-44.90
-42.84
-40.96
-39.94
-40.38
-42.72
-46.88
-52.13
-57.23
-61.10
-62.03
-59.38
-53.46
-45.19
-35.61
-25.41
-14.56
-2.45
11.23
26.30
41.06
52.77
58.54
56.53
46.96
32.27
17.13
4.93
-2.34
-5.39
-7.14
-11.07
-19.61
-32.74
-48.13
-62.50
-73.44
-79.15
-78.60
-71.03
-56.56
-37.49
-19.23
-9.46
-13.76
-32.83
-59.92
-83.61
-93.79
-86.41
-66.66
-46.08
-35.97
-40.43
-53.95
-63.95
-58.05
-30.84
13.39
62.87
104.10
127.62
131.42
119.35
98.95
76.79
56.40
38.11
21.37
6.35
-5.76
-13.60
-16.88
-16.36
-13.08
-7.98
-0.71
9.18
21.52
35.16
48.69
61.11
72.08
81.98
89.88
94.03
92.33
83.36
67.27
45.74
21.39
-2.73
-23.22
-37.14
-42.11
-37.31
-25.27
-11.16
-0.88
1.34
-5.31
-18.41
-34.08
-49.04
-62.24
-74.49
-87.10
-100.33
-112.80
-122.17
-126.50
-125.82
-120.56
-111.88
-100.97
-88.05
-72.51
-53.55
-30.99
-5.72
20.30
44.84
65.83
82.04
93.44
100.76
105.07
106.91
106.42
103.35
97.75
90.09
81.36
72.98
66.04
61.10
57.52
54.19
49.87
43.86
36.25
27.71
19.58
13.55
11.74
15.53
24.68
36.36
45.36
45.36
31.36
2.37
-37.89
-81.62
-120.74
-149.76
-167.13
-174.25
-173.25
-164.89
-147.65
-118.83
-76.29
-21.15
42.00
106.91
168.09
222.86
267.49
300.91
317.51
314.01
289.59
246.31
188.88
123.24
55.58
-6.07
-58.72
-99.50
-124.51
-130.59
-116.27
-82.79
-33.61
23.33
77.50
118.69
140.75
143.43
131.23
110.97
88.95
68.68
50.33
32.21
12.59
-8.74
-30.32
-50.20
-66.76
-79.01
-86.77
-90.90
-92.98
-95.11
-98.61
-103.29
-107.29
-107.56
-101.21
-86.81
-65.02
-38.20
-9.73
16.82
37.76
49.37
48.29
32.55
2.74
-37.78
-83.51
-128.88
-170.21
-206.85
-240.66
-274.02
-307.63
-339.57
-366.09
-383.10
-388.24
-381.65
-365.79
-344.22
-320.07
-295.15
-270.15
-245.33
-221.10
-198.06
-176.30
-154.85
-131.68
-104.62
-72.72
-37.03
-0.55
33.04
61.04
83.09
101.28
119.09
139.33
162.60
186.54
206.63
217.77
216.07
200.32
172.65
138.28
104.41
78.62
66.92
72.14
92.95
124.18
158.28
187.62
206.67
213.07
207.58
192.84
172.04
147.85
122.02
95.60
69.37
44.11
20.59
-0.38
-18.21
-32.75
-44.41
-53.81
-61.28
-66.30
-67.27
-62.00
-49.05
-29.13
-5.47
16.94
33.43
41.52
41.81
37.25
31.26
26.04
21.86
17.84
13.26
8.39
4.27
1.32
-1.55
-7.12
-18.51
-37.11
-60.96
-84.74
-101.45
-104.88
-91.99
-63.52
-23.44
22.79
69.74
112.87
148.50
173.79
186.68
186.32
173.65
151.43
123.84
95.26
69.31
47.90
31.23
18.32
7.96
-0.43
-6.37
-8.59
-5.69
3.04
17.30
35.95
57.88
82.82
111.61
145.65
185.73
230.75
277.14
319.37
351.59
369.46
371.45
358.98
335.38
304.41
269.00
231.14
192.20
153.52
116.67
82.83
52.05
22.83
-7.23
-39.90
-74.73
-108.40
-135.42
-150.28
-149.77
-134.55
-109.05
-79.84
-53.38
-34.14
-23.96
-22.39
-27.84
-38.61
-53.63
-72.47
-94.92
-120.16
-146.16
-169.35
-185.25
-189.83
-181.30
-161.13
-133.83
-104.93
-78.55
-55.61
-34.03
-10.62
16.25
45.08
71.85
92.06
103.13
105.58
102.45
97.58
93.64
91.38
89.96
88.06
84.58
78.69
69.53
56.28
38.70
17.89
-3.84
-23.88
-40.97
-56.42
-73.88
-97.46
-129.24
-167.36
-206.19
-238.38
-257.78
-261.75
-251.67
-231.42
-205.12
-175.63
-144.46
-112.78
-82.67
-57.16
-39.11
-29.62
-27.40
-29.41
-32.56
-35.18
-37.06
-38.70
-40.01
-39.82
-36.49
-29.11
-18.48
-6.94
2.77
8.92
11.57
12.39
13.53
16.49
21.35
26.89
31.34
33.46
33.52
33.48
36.33
44.66
59.15
78.02
97.59
113.63
122.76
123.41
115.76
101.03
80.82
56.53
29.29
0.07
-30.30
-61.09
-91.39
-120.04
-145.31
-164.91
-176.51
-178.33
-170.11
-153.47
-131.66
-108.65
-88.13
-72.42
-61.98
-55.37
-49.68
-41.65
-28.79
-10.36
12.34
36.42
58.46
75.82
87.27
93.37
95.93
97.23
99.28
103.17
108.89
115.78
123.08
130.40
137.97
146.10
154.43
161.24
163.58
158.39
144.41
123.45
100.27
80.82
69.60
67.60
71.82
76.41
75.14
63.73
41.31
10.50
-23.54
-54.88
-78.70
-92.60
-97.21
-95.59
-91.85
-89.61
-90.77
-95.26
-101.83
-109.14
-116.70
-124.86
-134.01
-143.53
-151.20
-153.88
-148.85
-135.53
-116.35
-96.11
-79.98
-71.25
-69.85
-72.61
-74.99
-73.35
-66.46
-55.62
-43.54
-32.77
-24.77
-19.82
-17.45
-17.10
-18.25
-20.38
-22.77
-24.61
-25.22
-24.25
-21.63
-17.44
-11.75
-4.74
3.02
10.55
16.64
20.27
21.00
19.13
15.56
11.42
7.76
5.27
4.16
4.16
4.54
4.47
3.38
1.45
-0.57
-1.67
-1.38
-0.25
0.30
-1.22
-5.23
-10.47
-14.37
-14.33
-9.22
-0.25
9.33
15.68
16.24
10.99
2.42
-5.94
-11.11
-12.01
-9.37
-4.84
0.34
5.89
12.22
19.66
27.74
35.37
41.32
45.02
46.78
47.48
47.97
48.42
48.28
46.66
42.89
36.87
29.23
21.09
13.57
7.31
2.16
-2.71
-8.17
-14.59
-21.38
-27.31
-31.14
-32.34
-31.35
-29.49
-28.31
-28.94
-31.72
-36.11
-40.86
-44.47
-45.75
-44.23
-40.45
-35.66
-31.17
-27.77
-25.47
-23.70
-22.10
-21.15
-22.10
-26.35
-34.31
-44.75
-54.95
-61.80
-62.91
-57.72
-47.52
-35.07
-23.67
-16.21
-14.41
-18.25
-25.93
-34.36
-40.06
-40.31
-33.99
-21.92
-6.38
9.57
22.96
31.61
34.65
32.63
27.53
22.12
19.00
19.46
22.90
27.04
29.10
27.22
21.20
12.41
2.68
-6.70
-15.18
-22.49
-27.75
-29.34
-25.56
-15.93
-2.07
12.60
24.38
30.98
32.74
32.30
33.09
37.40
45.28
54.75
62.95
67.68
68.30
65.74
61.80
58.16
55.74
54.49
53.76
52.73
50.93
48.46
45.87
43.95
43.32
44.12
45.80
47.18
46.91
44.02
38.38
30.83
22.80
15.74
10.41
6.63
3.36
-0.53
-5.44
-10.47
-13.69
-12.97
-7.05
3.64
16.90
29.41
37.76
39.63
34.62
24.31
11.88
1.11
-4.87
-4.39
2.29
13.34
26.11
38.13
47.78
54.54
58.67
60.56
60.25
57.25
50.77
40.36
26.37
10.28
-5.55
-18.65
-27.28
-31.23
-31.80
-31.32
-32.18
-35.80
-42.21
-50.16
-57.90
-63.89
-67.42
-68.60
-68.08
-66.56
-64.25
-60.95
-56.23
-50.19
-43.87
-39.39
-39.32
-45.42
-57.70
-73.55
-88.44
-97.19
-95.69
-82.12
-57.75
-26.49
6.10
34.34
54.06
63.75
64.87
61.05
56.35
53.42
52.58
52.11
49.74
44.26
36.46
28.56
22.73
19.62
17.69
14.00
5.91
-7.31
-23.75
-39.40
-49.61
-50.64
-40.99
-21.58
4.56
33.13
59.52
79.60
90.39
90.22
78.89
57.49
28.15
-6.45
-43.59
-81.03
-116.90
-149.28
-175.79
-193.77
-200.87
-196.37
-181.69
-160.47
-137.51
-117.01
-101.45
-91.13
-85.10
-82.40
-83.18
-88.77
-101.02
-121.24
-149.21
-182.67
-217.45
-248.05
-268.92
-276.08
-268.27
-247.23
-217.00
-182.38
-147.43
-114.58
-84.81
-58.09
-34.33
-13.65
4.02
19.31
33.50
48.06
64.07
81.55
99.76
117.58
134.03
149.11
163.41
177.54
191.54
204.59
214.96
221.41
223.64
222.52
221.13
222.94
230.47
244.48
264.00
286.00
308.65
331.25
353.87
379.58
411.80
453.10
504.34
563.96
625.56
682.55
727.40
752.78
758.03
747.10
727.13
705.66
687.87
671.90
656.64
640.63
622.49
607.04
600.11
605.31
622.18
646.26
667.43
682.11
691.16
665.33
586.83
450.81
269.01
66.49
-103.52
-231.63
-322.52
-383.74
-421.38
-440.13
-439.78
-421.57
-390.27
-353.80
-324.76
-308.52
-305.40
-313.04
-324.19
-331.69
-331.80
-325.00
-315.36
-311.46
-317.04
-332.53
-356.73
-385.41
-414.28
-441.23
-466.71
-493.57
-527.88
-573.17
-630.28
-697.01
-765.97
-825.65
-863.47
-869.45
-839.87
-779.67
-699.10
-609.91
-522.35
-441.64
-367.95
-298.85
-231.95
-166.39
-103.05
-43.30
13.05
65.24
111.25
147.44
169.61
174.80
162.88
137.26
102.59
65.42
29.13
-5.49
-38.98
-70.97
-98.67
-116.85
-119.96
-105.86
-73.95
-28.90
22.77
75.55
127.29
179.20
233.58
298.17
359.15
410.44
443.82
454.38
443.04
416.29
383.27
351.95
326.40
305.07
286.58
268.30
249.50
231.12
214.34
198.84
182.43
162.09
134.93
102.54
67.95
35.55
8.91
-10.86
-25.66
-39.26
-55.40
-76.49
-100.89
-125.71
-147.72
-165.41
-179.89
-194.61
-213.90
-241.38
-279.19
-326.47
-380.07
-434.02
-480.23
-510.47
-519.46
-508.13
-484.83
-463.40
-457.47
-474.78
-513.05
-560.64
-601.51
-621.88
-615.42
-584.25
-536.15
-479.94
-421.98
-365.12
-310.05
-257.37
-208.66
-166.36
-132.21
-106.04
-85.29
-66.26
-45.92
-23.37
-0.29
20.04
34.37
41.10
40.98
36.70
31.67
28.56
28.48
30.86
34.26
37.35
39.80
42.41
46.70
54.16
65.54
80.71
98.89
119.23
141.27
165.05
190.91
218.94
248.61
278.81
308.05
334.95
358.75
379.46
397.93
415.96
436.27
461.96
495.10
534.86
576.30
610.80
628.64
622.59
590.91
538.03
472.31
402.26
333.40
267.55
204.39
144.15
88.77
41.07
2.45
-28.71
-56.98
-87.81
-124.71
-167.74
-213.71
-258.64
-300.14
-337.86
-372.02
-401.31
-421.80
-428.06
-416.08
-384.80
-337.99
-282.93
-227.57
-177.86
-136.36
-102.75
-75.39
-52.90
-32.66
-12.17
11.29
40.05
75.02
114.98
156.74
196.14
229.31
256.48
280.62
306.68
339.78
383.32
438.02
502.25
573.17
633.18
667.23
664.73
623.61
551.47
462.07
369.67
284.47
210.79
147.14
90.00
34.15
-24.71
-87.78
-152.29
-212.33
-261.39
-295.33
-314.25
-320.44
-317.58
-308.64
-295.05
-277.48
-257.01
-235.88
-217.07
-203.21
-194.29
-188.39
-182.51
-173.87
-161.30
-145.65
-129.16
-114.43
-103.39
-96.12
-91.36
-87.10
-81.51
-73.77
-64.23
-54.13
-44.98
-37.89
-33.03
-29.80
-27.14
-24.07
-20.10
-15.32
-10.23
-5.50
-1.60
1.39
3.70
5.85
8.36
11.52
15.38
19.76
24.31
28.55
32.11
34.57
35.68
35.27
33.24
29.63
24.66
18.74
12.41
6.24
0.74
-3.64
-6.69
-8.47
-9.20
-9.08
-8.37
-7.23
-5.90
-4.61
-3.56
-2.85
-2.61
-2.87
-3.46
-4.19
-4.75
-4.95
-4.76
-4.30
-3.67
-3.24
-3.24
-3.60
-3.93
-3.71
-2.61
-0.59
1.99
4.67
6.48
6.59
5.07
2.88
1.27
1.08
2.53
4.99
7.58
8.40
5.91
0.40
-6.16
-11.38
-13.70
-12.73
-9.71
-6.32
-5.87
-10.92
-21.17
-33.87
-45.80
-55.14
-61.85
-68.60
-79.21
-95.96
-122.38
-159.90
-207.36
-261.71
-318.45
-371.11
-413.24
-423.96
-393.11
-328.51
-251.70
-184.45
-138.43
-116.78
-109.90
-110.23
-113.48
-120.43
-133.02
-150.40
-169.19
-185.01
-194.76
-197.16
-193.73
-186.58
-179.27
-174.17
-170.73
-166.11
-156.92
-141.18
-118.58
-91.12
-61.29
-32.39
-6.87
14.76
33.57
51.16
68.42
85.46
101.20
114.53
124.16
129.50
131.05
130.16
128.34
126.68
125.68
125.10
124.38
122.79
119.76
115.07
108.80
101.12
92.16
81.98
70.57
58.02
44.63
30.92
17.56
5.26
-5.44
-14.18
-20.90
-25.71
-28.87
-30.59
-30.92
-29.73
-26.79
-21.97
-15.35
-7.25
1.85
11.48
21.46
31.97
43.47
56.59
71.74
88.91
107.68
127.40
147.55
167.92
188.80
210.67
234.03
259.24
286.41
315.33
345.30
374.75
401.07
420.94
431.09
429.38
415.56
391.15
358.70
320.77
279.20
235.14
189.72
144.66
102.60
66.73
39.69
22.65
14.63
12.75
13.21
12.68
9.48
4.10
-1.34
-4.30
-2.98
2.94
12.53
24.34
37.04
49.40
60.08
67.45
69.71
65.85
56.25
42.70
27.70
13.42
0.86
-9.98
-19.41
-27.41
-33.25
-36.08
-35.71
-33.04
-29.81
-27.72
-27.54
-28.59
-29.18
-27.45
-22.47
-14.67
-5.73
2.19
7.50
9.73
9.64
8.64
8.01
8.45
9.91
11.92
13.94
15.58
16.54
16.51
15.10
11.99
7.21
1.26
-5.09
-11.11
-16.39
-20.92
-24.88
-28.46
-31.63
-34.20
-35.57
-34.81
-30.50
-20.93
-4.70
18.72
48.52
82.60
118.12
152.41
183.59
210.81
233.84
252.46
266.14
274.17
275.97
271.42
260.73
244.03
221.12
191.47
154.82
112.42
67.56
25.63
-7.45
-27.35
-33.23
-28.22
-18.22
-9.72
-7.28
-12.39
-23.56
-38.11
-54.24
-71.68
-91.38
-114.35
-140.63
-168.52
-195.17
-216.67
-229.91
-233.93
-229.48
-218.64
-204.93
-192.79
-186.19
-187.87
-195.48
-202.76
-201.78
-185.53
-151.29
-103.19
-52.04
-11.05
7.39
-0.30
-29.75
-71.69
-114.31
-145.99
-157.42
-142.73
-98.91
-29.28
61.67
165.98
265.24
334.80
357.17
332.81
275.69
209.70
133.30
41.37
-68.04
-192.16
-319.84
-435.58
-526.59
-587.65
-603.28
-570.10
-494.79
-393.95
-286.67
-185.84
-96.93
-21.24
40.28
87.85
119.42
136.09
142.17
141.87
139.32
137.53
137.70
138.06
137.74
134.67
129.05
121.59
113.38
105.10
96.52
86.50
71.40
49.87
21.34
-13.43
-53.92
-100.32
-152.11
-208.16
-267.12
-329.91
-392.91
-448.96
-488.64
-503.26
-487.87
-441.15
-367.53
-260.63
-136.46
-22.13
58.92
99.28
105.18
86.02
51.91
10.44
-33.59
-79.36
-119.75
-145.95
-152.38
-139.52
-114.52
-82.12
-44.28
0.54
51.80
113.96
190.95
282.19
380.99
474.23
553.52
614.28
654.90
652.98
598.64
498.49
372.73
261.33
166.79
84.94
12.89
-52.92
-110.03
-150.23
-166.33
-155.81
-122.03
-76.22
-28.11
12.26
35.58
36.56
18.47
-10.53
-41.27
-66.75
-86.31
-100.23
-111.78
-125.43
-143.14
-161.04
-172.35
-170.60
-151.86
-117.59
-71.45
-21.43
21.44
47.17
50.69
32.25
-3.38
-47.68
-90.75
-120.93
-128.74
-108.19
-56.82
24.28
129.24
240.34
329.65
371.27
357.89
300.80
219.41
131.16
47.60
-25.46
-86.35
-134.58
-171.84
-197.75
-212.49
-217.71
-215.09
-205.29
-187.78
-161.72
-121.35
-66.87
-1.64
67.57
131.42
180.17
205.71
203.41
173.99
124.80
67.49
15.47
-21.40
-40.28
-43.94
-37.58
-25.84
-10.99
7.01
28.08
51.44
75.30
95.67
109.21
114.54
112.28
104.05
91.39
74.34
51.11
22.56
-10.43
-45.86
-80.43
-110.29
-132.30
-145.02
-149.54
-148.35
-144.42
-140.77
-139.35
-141.07
-145.66
-151.41
-154.96
-151.95
-138.07
-111.38
-74.27
-32.87
5.08
33.06
48.34
52.50
49.72
44.37
38.91
33.36
26.45
17.35
6.11
-6.19
-18.15
-28.76
-37.33
-43.67
-47.08
-46.59
-41.20
-30.46
-14.66
5.15
27.37
50.32
72.61
93.05
110.60
124.57
134.23
139.35
140.05
136.92
131.01
123.66
115.61
107.29
99.22
91.45
83.42
73.14
57.19
32.38
-2.00
-43.10
-84.05
-114.27
-124.98
-112.56
-79.71
-33.71
16.85
65.13
107.99
143.47
170.03
185.69
188.64
178.16
155.53
122.99
86.23
49.94
16.85
-12.05
-37.30
-59.92
-80.61
-99.00
-115.96
-128.54
-134.76
-133.70
-125.23
-110.17
-89.74
-65.32
-38.15
-9.05
21.59
52.22
81.04
106.54
127.52
143.46
154.63
161.96
166.74
170.79
174.63
178.38
181.83
184.54
185.90
185.31
182.13
175.34
167.91
160.95
155.10
150.75
148.00
146.74
146.64
147.14
147.70
147.77
146.21
142.09
134.73
123.67
108.80
90.26
68.49
44.27
18.68
-7.58
-33.57
-58.45
-81.44
-101.94
-119.54
-133.96
-144.96
-152.25
-155.76
-155.31
-150.76
-142.12
-129.70
-114.02
-96.00
-76.61
-56.90
-37.97
-20.65
-5.69
6.31
14.74
19.10
19.05
14.54
6.03
-5.62
-19.25
-33.81
-48.68
-63.94
-80.25
-98.54
-119.38
-142.46
-166.37
-188.73
-206.94
-218.96
-224.03
-222.84
-217.25
-209.39
-200.91
-192.48
-184.00
-175.12
-166.22
-158.83
-155.68
-160.04
-174.95
-202.15
-241.33
-289.51
-341.00
-388.20
-423.09
-439.19
-433.67
-408.43
-369.69
-325.85
-284.54
-249.99
-222.15
-197.74
-172.60
-144.12
-112.47
-80.11
-50.27
-25.33
-5.83
9.37
22.40
35.29
48.98
63.08
76.01
85.79
91.16
92.62
92.61
94.87
102.63
117.13
136.67
157.29
174.57
185.51
189.67
188.81
185.36
180.77
174.80
165.84
152.17
133.02
109.23
82.85
56.35
32.01
11.60
-3.50
-12.25
-14.03
-8.78
2.83
19.31
38.20
56.02
68.55
71.71
63.11
43.66
18.05
-6.48
-22.98
-27.92
-22.82
-13.41
-6.71
-7.51
-16.08
-28.40
-38.36
-40.88
-34.03
-19.73
-2.47
12.97
23.69
29.69
33.47
38.40
46.70
58.17
70.22
79.22
82.28
78.46
68.93
56.21
42.86
30.67
20.40
12.20
6.00
1.82
-0.27
-0.65
-0.31
-0.70
-3.38
-9.09
-17.16
-25.60
-31.75
-33.73
-31.43
-26.65
-22.12
-20.04
-21.07
-24.35
-28.52
-32.75
-37.17
-42.38
-48.47
-54.54
-58.91
-60.14
-57.90
-53.07
-46.96
-40.40
-33.33
-25.06
-15.15
-3.98
7.17
16.69
23.49
27.77
31.11
35.86
44.17
56.79
72.28
87.26
97.59
100.00
93.55
80.09
63.43
47.67
35.48
27.20
21.33
15.60
8.55
0.25
-7.71
-12.94
-13.41
-8.44
0.86
11.91
21.39
26.53
26.13
21.00
13.37
5.61
-1.09
-7.13
-13.61
-21.10
-28.72
-34.36
-36.17
-33.98
-29.74
-26.52
-26.60
-29.98
-34.43
-36.86
-35.14
-29.31
-21.33
-13.96
-9.37
-8.39
-10.63
-15.28
-21.85
-30.56
-41.98
-56.27
-72.24
-87.27
-97.91
-101.28
-96.63
-85.97
-73.54
-64.36
-62.39
-69.34
-84.54
-105.64
-129.64
-153.77
-175.77
-194.03
-207.70
-216.50
-220.75
-221.11
-218.23
-212.45
-203.77
-191.85
-176.33
-157.10
-134.32
-108.76
-81.72
-55.08
-31.01
-11.67
1.50
8.12
9.04
6.39
3.08
2.22
6.09
15.15
27.43
38.88
44.64
41.07
27.50
6.79
-15.59
-33.66
-43.37
-43.81
-36.99
-26.41
-15.16
-4.76
4.99
15.31
27.33
41.23
56.18
70.76
83.56
94.00
102.56
110.57
119.51
130.14
141.80
152.57
160.09
162.59
159.95
153.88
147.33
143.66
145.69
155.31
173.20
198.19
226.49
251.42
264.31
257.32
227.15
177.63
119.60
67.60
34.49
26.88
43.91
79.04
123.98
172.03
219.10
262.43
298.59
322.49
328.73
314.09
279.22
228.97
170.82
112.57
60.39
17.76
-14.24
-35.95
-47.79
-50.65
-45.95
-35.82
-22.94
-10.05
0.35
6.14
6.48
3.14
-1.40
-4.71
-5.44
-3.61
-0.22
3.26
5.14
5.09
6.31
11.32
20.73
33.12
46.54
61.26
80.29
107.32
146.27
202.15
274.23
355.97
437.32
508.51
564.40
604.46
630.23
646.58
663.88
688.54
720.81
753.93
776.84
780.57
761.13
719.97
630.15
484.11
291.21
77.22
-127.00
-299.25
-430.01
-509.30
-551.25
-569.38
-567.78
-548.62
-513.36
-464.14
-414.10
-371.17
-341.85
-332.71
-345.26
-372.60
-406.61
-440.44
-471.09
-499.04
-524.06
-545.66
-563.35
-575.59
-578.76
-573.96
-564.07
-553.10
-544.15
-535.78
-523.92
-502.68
-466.92
-411.45
-335.87
-245.39
-150.56
-64.45
2.58
46.10
65.86
68.04
65.81
71.56
91.97
124.99
161.60
190.80
195.51
183.61
155.91
117.52
73.31
26.99
-19.01
-62.42
-100.27
-129.05
-144.92
-148.22
-140.20
-123.93
-102.34
-77.56
-50.37
-20.29
13.75
53.32
97.28
144.61
193.57
243.33
292.91
340.93
385.40
423.54
452.63
468.99
470.85
457.97
433.65
402.30
368.65
336.84
310.15
291.33
282.52
286.32
293.71
297.80
292.82
276.28
249.66
216.56
179.27
136.49
84.26
18.65
-58.85
-141.82
-220.06
-283.49
-326.11
-348.08
-354.63
-352.76
-348.02
-341.27
-331.08
-315.84
-295.94
-274.17
-254.34
-239.41
-230.45
-226.88
-226.01
-224.47
-218.37
-203.74
-177.67
-139.70
-93.03
-44.04
-0.39
32.35
52.39
61.90
65.16
66.02
66.36
65.92
63.77
59.87
55.69
53.50
54.79
59.31
65.18
70.41
73.73
75.80
78.55
83.91
92.43
101.97
108.91
107.45
93.85
67.66
32.34
-6.31
-42.09
-70.48
-89.80
-101.35
-108.06
-112.69
-116.98
-121.40
-125.87
-129.84
-131.97
-130.08
-121.31
-103.27
-75.49
-40.38
-2.62
32.61
62.44
88.07
113.44
141.96
173.06
200.79
215.92
210.32
181.05
132.15
73.34
16.19
-29.45
-57.76
-67.17
-59.83
-40.73
-17.23
2.62
12.94
11.36
-1.07
-21.05
-44.80
-69.26
-92.49
-113.37
-130.34
-139.83
-138.12
-124.61
-103.37
-81.89
-68.64
-65.78
-75.24
-96.76
-125.53
-153.13
-170.47
-170.44
-150.05
-111.76
-63.67
-12.04
28.61
45.65
38.34
18.12
-0.29
-7.75
-3.68
6.72
16.94
22.86
25.71
29.60
37.19
47.48
56.58
60.81
58.80
52.20
44.26
39.88
43.18
54.92
72.18
90.02
103.63
110.36
109.26
100.65
86.37
68.88
49.46
28.36
5.83
-16.96
-37.32
-51.63
-56.53
-49.62
-30.18
-0.72
33.75
67.11
93.94
110.48
115.08
108.03
88.90
61.47
29.94
-2.36
-33.35
-61.63
-86.04
-105.51
-118.99
-126.10
-126.90
-123.06
-116.96
-110.85
-106.38
-104.53
-105.79
-110.04
-115.66
-119.27
-116.43
-103.10
-77.54
-41.98
-2.42
33.42
59.28
72.74
75.72
72.50
67.26
62.35
57.95
53.33
48.12
43.03
39.42
38.24
39.26
41.14
42.26
41.42
38.56
34.62
31.04
29.01
28.94
30.33
32.12
33.25
33.14
31.98
30.45
29.42
29.40
30.38
31.92
33.34
34.15
34.16
33.60
33.04
33.18
34.53
37.07
40.05
41.93
40.84
35.31
24.94
10.80
-4.91
-19.65
-31.60
-39.99
-45.11
-47.73
-48.57
-48.04
-46.55
-44.79
-43.89
-45.27
-49.99
-58.21
-69.03
-80.75
-91.37
-99.40
-103.44
-102.83
-97.63
-88.43
-76.16
-61.88
-46.56
-30.97
-15.66
-1.04
12.36
23.95
33.18
39.78
43.74
45.45
45.45
44.25
42.24
39.64
36.57
33.15
29.54
25.78
22.07
18.76
16.35
15.38
16.12
18.37
21.44
24.38
26.28
26.57
25.17
22.31
18.49
14.13
9.58
5.18
1.27
-1.77
-3.68
-4.29
-3.69
-2.07
0.19
2.65
4.92
6.67
7.72
7.99
7.49
6.22
4.24
1.60
-1.47
-4.56
-7.25
-9.18
-10.19
-10.47
-10.36
-10.31
-10.58
-11.15
-11.69
-11.83
-11.15
-9.37
-6.50
-2.69
1.69
6.29
10.91
15.50
20.05
24.58
29.02
33.01
35.96
37.19
36.26
33.35
29.33
25.49
23.03
22.67
24.09
26.09
27.07
25.93
22.81
19.10
16.89
18.07
23.50
32.49
42.96
52.17
57.82
59.00
56.25
51.05
45.31
40.81
38.35
37.19
34.49
25.81
6.41
-27.19
-75.87
-136.87
-201.45
-256.70
-289.45
-292.51
-267.67
-223.37
-169.31
-112.56
-56.21
-0.98
52.37
102.06
144.61
176.46
197.44
209.28
214.58
215.83
214.23
208.58
196.13
172.57
133.91
76.92
4.97
-75.07
-154.15
-222.13
-273.76
-303.11
-307.24
-287.49
-249.61
-201.58
-151.64
-105.38
-64.73
-28.55
7.56
45.28
83.55
117.73
142.29
151.28
140.97
111.38
65.21
11.69
-36.80
-69.58
-82.15
-76.71
-59.73
-37.40
-13.50
10.32
33.59
54.58
70.42
78.58
78.83
73.16
65.23
58.90
56.60
59.19
65.30
72.35
78.01
81.49
83.47
85.71
89.89
96.74
105.81
116.05
124.72
129.36
128.59
122.13
110.77
95.58
77.58
57.63
36.27
13.89
-8.68
-30.17
-49.22
-64.29
-74.39
-79.03
-78.06
-72.02
-61.61
-47.61
-30.32
-10.68
10.41
31.54
51.38
69.12
83.51
93.93
102.41
111.00
120.23
130.14
139.66
147.65
153.09
153.81
148.12
134.57
113.14
82.51
47.82
14.64
-12.23
-30.90
-44.01
-54.18
-74.35
-104.25
-141.26
-182.28
-225.37
-270.03
-303.68
-320.43
-317.58
-295.73
-256.85
-206.29
-150.39
-95.75
-48.09
-11.52
9.51
12.62
-2.77
-34.26
-79.20
-134.43
-196.80
-262.27
-325.02
-378.26
-413.32
-422.51
-401.05
-350.89
-280.33
-201.73
-127.59
-67.06
-24.73
-0.58
7.72
3.64
-9.79
-29.66
-52.79
-75.51
-94.31
-106.17
-109.17
-103.01
-88.12
-65.37
-35.75
-0.64
38.07
77.50
114.84
146.90
167.75
169.65
147.68
102.59
40.90
-26.09
-93.50
-158.42
-219.02
-274.05
-320.85
-356.14
-377.62
-384.02
-375.62
-354.29
-321.80
-280.28
-232.22
-179.99
-125.28
-70.79
-18.74
28.59
69.02
101.71
126.66
144.48
156.32
164.95
169.93
172.02
171.53
168.48
163.29
156.63
149.30
142.15
138.95
136.82
135.78
135.57
135.62
135.61
135.44
135.31
135.60
141.67
148.56
156.56
165.87
176.76
189.62
205.20
224.43
248.14
282.91
321.03
360.59
398.66
431.75
456.37
469.88
470.87
419.16
366.84
307.94
244.34
178.11
111.61
47.50
-11.13
-61.15
-99.79
-118.68
-123.56
-113.98
-90.39
-54.82
-11.58
32.76
70.48
95.02
108.30
106.58
95.15
80.42
67.03
56.29
46.69
35.82
22.67
11.60
1.94
-3.83
-5.05
-2.97
0.04
1.99
1.96
-0.20
-3.15
-9.35
-19.99
-35.49
-54.18
-72.15
-84.23
-86.30
-77.35
-59.58
-39.11
-21.82
-11.68
-9.48
-13.36
-20.01
-26.23
-29.68
-28.92
-23.14
-12.06
3.73
22.60
41.68
57.30
66.00
65.53
55.57
37.75
15.11
-8.74
-30.51
-47.76
-59.23
-64.60
-64.29
-59.18
-50.49
-39.77
-28.83
-19.45
-13.20
-10.87
-12.44
-17.22
-24.04
-31.87
-39.98
-47.94
-55.44
-62.05
-67.05
-69.65
-69.44
-66.62
-62.15
-57.43
-53.62
-51.15
-49.42
-47.08
-42.50
-34.39
-22.10
-5.81
13.53
34.16
53.61
69.06
77.70
77.66
68.53
51.89
30.83
9.15
-9.86
-24.21
-33.54
-38.73
-41.04
-41.61
-40.96
-39.11
-35.77
-30.48
-22.75
-12.14
1.38
17.06
33.17
46.98
55.61
56.79
49.93
36.23
18.46
0.06
-15.80
-26.85
-32.28
-32.48
-28.84
-23.18
-17.19
-11.89
-7.40
-3.20
1.45
6.91
12.88
18.46
22.57
24.36
23.54
20.33
15.11
8.24
-0.05
-9.39
-19.09
-28.13
-35.36
-39.81
-41.15
-39.74
-36.44
-32.24
-27.98
-24.04
-20.48
-17.16
-13.98
-11.10
-9.00
-8.26
-9.27
-11.77
-14.69
-16.33
-15.05
-10.02
-1.72
8.09
17.11
23.39
26.01
25.25
22.14
17.85
13.20
8.55
4.11
0.18
-2.82
-4.54
-4.97
-4.54
-4.03
-4.20
-5.54
-8.10
-11.44
-14.94
-17.94
-20.02
-21.04
-21.33
-21.48
-22.21
-24.08
-27.22
-31.35
-35.80
-39.79
-42.62
-43.93
-43.75
-42.57
-41.13
-40.22
-40.40
-41.79
-44.14
-46.96
-49.80
-52.40
-54.83
-57.29
-60.04
-63.21
-66.64
-69.91
-72.34
-73.22
-71.99
-68.58
-63.56
-58.05
-53.47
-51.03
-51.30
-53.91
-57.54
-60.12
-59.39
-53.59
-42.05
-25.45
-5.76
14.34
32.19
45.84
54.51
58.46
58.60
56.30
52.81
49.08
45.47
41.63
36.62
29.24
18.80
5.63
-8.39
-20.36
-27.27
-27.26
-20.38
-8.60
4.96
17.28
26.59
33.10
38.63
45.96
57.71
75.53
99.68
129.16
162.15
196.56
231.05
264.85
298.14
332.07
368.54
409.40
454.93
502.38
545.39
575.76
585.40
569.48
528.51
468.40
398.25
327.12
261.46
204.30
157.10
119.97
92.44
73.59
61.69
53.98
46.99
37.46
23.24
5.00
-15.80
-37.77
-60.36
-83.95
-109.42
-137.45
-168.05
-207.57
-255.99
-308.25
-355.90
-390.98
-409.47
-412.07
-402.38
-384.91
-363.53
-339.64
-313.97
-287.15
-260.10
-233.94
-209.94
-188.89
-171.18
-156.82
-144.36
-132.38
-119.90
-106.53
-92.30
-77.69
-62.93
-48.19
-33.42
-17.62
-0.01
19.69
40.87
62.77
82.60
97.31
104.07
100.94
87.86
66.14
38.25
6.37
-26.04
-56.86
-84.98
-109.89
-131.56
-149.97
-165.65
-179.02
-189.72
-195.82
-194.24
-181.59
-156.49
-121.44
-82.64
-48.41
-25.79
-17.94
-23.62
-38.70
-58.21
-78.32
-97.37
-113.68
-125.25
-129.50
-123.98
-107.55
-81.38
-48.55
-12.70
21.85
52.66
78.95
101.03
119.44
134.28
144.90
150.37
150.21
145.00
136.72
127.90
120.81
116.64
115.09
114.64
113.47
110.18
104.56
97.64
90.88
85.69
83.12
83.71
87.54
92.70
95.89
92.72
79.45
54.80
21.37
-14.74
-46.19
-67.49
-76.86
-76.49
-70.67
-63.29
-56.14
-48.84
-40.02
-28.77
-15.55
-1.43
12.66
26.54
40.68
55.47
70.58
84.57
95.05
99.61
96.51
85.38
67.30
44.41
19.81
-3.87
-24.80
-42.31
-56.31
-67.12
-75.04
-80.61
-83.66
-84.42
-83.42
-81.37
-79.53
-78.96
-80.52
-84.59
-91.15
-99.52
-108.99
-119.03
-128.28
-135.83
-140.68
-142.00
-139.19
-131.94
-120.23
-104.64
-85.91
-63.97
-40.99
-18.18
3.69
24.35
43.97
62.95
81.40
99.56
117.34
134.03
148.80
160.44
167.53
168.96
164.04
152.42
134.54
111.28
83.82
53.88
23.15
-6.73
-34.16
-57.64
-76.02
-88.31
-94.15
-93.84
-87.96
-77.59
-63.93
-48.13
-31.29
-14.77
0.28
12.06
18.59
18.57
11.22
-2.90
-21.99
-43.22
-63.47
-79.84
-91.59
-99.63
-105.55
-110.75
-115.45
-118.70
-119.14
-115.92
-108.42
-97.53
-84.49
-69.75
-53.32
-35.82
-18.74
-3.74
8.97
23.44
45.05
78.33
124.34
178.86
233.15
277.24
303.75
301.67
274.46
231.76
183.27
135.17
90.22
49.31
13.25
-16.61
-38.99
-52.21
-57.28
-57.24
-55.93
-56.05
-58.69
-63.35
-68.46
-72.65
-73.93
-72.40
-69.71
-67.98
-68.80
-73.02
-80.62
-90.85
-102.94
-115.53
-128.03
-140.19
-152.34
-163.06
-170.37
-172.09
-166.35
-152.04
-128.81
-97.73
-61.02
-21.48
17.28
52.37
81.80
104.53
120.31
129.68
133.55
132.89
128.90
122.75
115.52
107.97
100.55
93.47
86.82
80.66
74.73
69.00
63.41
58.06
52.95
48.10
43.52
39.22
35.23
31.50
28.03
24.73
21.64
18.71
15.92
13.30
10.93
8.89
7.21
6.21
5.46
4.83
4.13
3.26
2.38
1.81
1.88
2.92
5.05
8.03
11.47
14.71
17.17
18.58
19.02
18.71
18.22
17.35
15.77
13.06
8.83
3.22
-3.52
-9.36
-12.65
-12.20
-7.80
-0.37
8.51
16.69
22.80
26.60
28.80
30.66
33.34
37.63
43.93
51.97
60.49
67.24
69.19
63.24
47.93
24.71
-2.12
-26.67
-44.01
-52.20
-52.66
-48.84
-44.41
-41.34
-39.49
-37.25
-33.02
-26.80
-19.81
-14.13
-11.00
-10.58
-11.66
-12.39
-11.49
-8.72
-5.59
-4.02
-5.74
-10.85
-17.94
-24.39
-27.55
-25.77
-18.66
-7.65
4.90
15.48
20.97
19.15
9.84
-4.78
-20.80
-33.79
-40.60
-39.96
-33.23
-22.82
-11.11
0.50
11.97
23.74
36.30
48.90
60.02
67.97
71.67
71.18
68.18
65.53
66.12
72.00
82.98
97.11
111.05
121.88
127.70
128.63
126.84
124.63
123.30
122.36
119.61
111.42
97.95
78.95
55.23
29.10
3.51
-18.44
-34.62
-44.13
-47.80
-47.67
-46.34
-45.25
-44.49
-43.15
-40.14
-35.33
-29.24
-22.95
-17.25
-12.60
-8.98
-6.57
-6.36
-9.93
-18.66
-32.55
-50.07
-68.40
-84.73
-97.11
-104.96
-108.90
-110.27
-110.52
-110.34
-109.82
-108.68
-106.43
-102.57
-96.69
-88.56
-78.34
-67.03
-55.59
-45.17
-36.46
-29.32
-23.32
-17.57
-11.67
-5.59
-0.05
4.13
6.24
6.16
4.51
1.87
-0.96
-3.66
-5.97
-7.67
-8.34
-7.22
-3.74
2.85
12.54
24.89
38.99
54.08
69.41
84.49
98.68
110.64
119.02
122.08
118.59
107.59
88.90
62.47
28.40
-12.86
-60.47
-112.49
-166.55
-219.92
-270.73
-318.33
-363.33
-406.98
-449.87
-491.08
-527.93
-556.81
-574.15
-577.09
-564.41
-536.22
-493.85
-439.78
-377.50
-311.40
-246.39
-187.19
-136.76
-96.20
-64.84
-40.63
-20.88
-3.30
14.29
33.78
56.63
84.14
116.79
154.35
195.79
239.50
283.48
325.55
364.04
397.80
426.38
450.17
469.94
487.06
502.54
516.47
527.19
532.16
529.06
516.86
496.34
469.08
436.88
400.50
359.82
314.36
264.36
211.52
158.63
108.45
62.35
22.14
-8.74
-24.94
-21.32
4.70
51.50
112.73
179.22
239.07
284.68
315.15
334.12
345.66
351.92
353.71
351.47
346.36
334.12
312.98
284.94
252.69
215.57
169.65
110.49
34.91
-58.09
-176.65
-322.11
-485.05
-649.06
-798.98
-923.98
-1017.15
-1075.22
-1098.27
-1101.32
-1095.58
-1082.73
-1059.20
-1025.14
-985.61
-946.57
-910.75
-801.33
-592.34
-323.15
-63.67
141.02
281.05
365.87
411.27
433.39
445.02
441.77
420.56
386.66
351.11
322.75
305.39
298.81
300.62
307.41
306.17
289.46
260.08
227.54
199.93
180.81
169.82
164.52
161.79
153.03
133.95
107.25
80.57
60.31
49.97
49.65
57.17
69.43
80.50
86.74
88.02
87.31
87.74
91.12
97.95
107.84
119.23
127.79
128.32
115.57
87.31
45.05
-5.94
-57.93
-102.96
-135.38
-153.78
-155.23
-144.36
-126.88
-106.47
-84.46
-61.32
-37.85
-15.32
4.69
21.72
36.00
49.25
63.74
80.87
100.37
120.56
139.83
155.35
165.13
167.61
162.78
151.38
134.33
112.39
85.59
56.24
26.20
-2.51
-28.37
-49.76
-65.58
-75.53
-80.25
-80.72
-78.36
-74.72
-70.80
-67.25
-64.16
-61.32
-58.55
-55.81
-52.86
-49.76
-46.84
-44.19
-41.94
-40.04
-38.45
-37.17
-36.38
-35.96
-36.16
-37.27
-39.45
-42.75
-46.99
-51.84
-56.70
-62.29
-66.75
-69.05
-68.48
-64.71
-57.61
-47.42
-34.78
-20.59
-6.22
7.49
19.32
27.99
32.26
31.19
24.18
10.99
-7.95
-31.97
-58.87
-86.11
-110.84
-130.25
-141.89
-143.97
-135.80
-115.19
-85.49
-50.03
-12.20
24.94
58.85
87.86
111.13
128.45
140.19
146.83
149.69
150.07
149.12
147.53
145.86
144.37
142.81
141.39
138.73
134.03
126.54
115.91
101.72
84.19
64.03
42.12
19.79
-1.48
-19.74
-33.36
-40.71
-41.22
-34.78
-22.02
-5.25
12.75
28.92
40.75
46.68
46.46
41.14
33.17
25.66
20.33
18.51
20.33
24.82
30.19
34.18
34.65
30.17
20.03
2.32
-23.73
-58.33
-101.25
-152.09
-210.39
-276.12
-350.09
-422.04
-484.43
-529.83
-551.92
-547.00
-515.27
-460.52
-388.99
-307.46
-221.56
-136.56
-55.75
19.33
88.04
150.02
204.75
251.76
290.96
322.56
345.72
360.02
365.93
364.13
355.29
340.12
319.53
295.11
268.91
242.25
216.25
192.21
170.65
150.93
132.14
113.68
95.83
79.93
67.45
59.93
59.25
65.88
78.18
92.97
106.52
115.29
116.39
107.95
84.68
46.54
-0.61
-48.10
-89.19
-120.87
-142.89
-156.61
-164.37
-168.70
-170.98
-171.70
-170.60
-166.59
-158.15
-144.31
-125.57
-104.14
-83.13
-64.72
-50.08
-39.58
-32.93
-29.39
-28.19
-28.75
-30.66
-33.48
-36.10
-37.37
-37.04
-35.60
-34.02
-33.39
-34.50
-37.51
-42.09
-47.38
-52.50
-57.37
-62.39
-68.09
-74.91
-82.79
-90.91
-97.84
-102.66
-102.98
-97.32
-85.14
-66.81
-43.53
-17.06
10.58
37.20
60.83
79.88
93.09
99.69
99.50
92.90
80.83
64.59
45.62
25.41
5.35
-13.45
-30.28
-44.77
-56.84
-66.52
-74.02
-79.72
-83.95
-86.93
-88.74
-89.47
-89.26
-88.32
-86.86
-85.16
-83.56
-82.41
-82.11
-82.74
-84.35
-86.99
-90.58
-94.86
-99.33
-103.17
-105.14
-106.73
-108.05
-108.89
-108.98
-108.04
-105.87
-102.43
-97.69
-91.87
-85.27
-77.88
-69.88
-61.58
-53.35
-45.61
-38.81
-33.30
-29.40
-27.39
-27.06
-28.24
-30.70
-34.22
-38.49
-43.31
-48.43
-53.61
-58.68
-63.23
-67.03
-69.92
-71.86
-72.89
-73.17
-72.84
-72.11
-71.17
-70.06
-68.96
-67.96
-67.26
-66.99
-67.24
-68.01
-69.19
-70.59
-71.94
-73.07
-73.98
-74.83
-75.88
-77.37
-79.37
-81.62
-83.51
-84.25
-83.08
-79.56
-73.67
-65.83
-56.63
-46.59
-35.84
-24.11
-11.05
3.46
18.90
34.05
47.41
57.44
63.10
64.34
61.99
57.85
53.98
51.78
51.93
54.79
60.62
70.31
85.56
108.55
141.85
187.98
248.78
325.05
416.09
517.76
621.85
716.88
790.32
833.27
842.94
822.87
781.28
729.47
676.56
627.84
585.09
546.64
512.47
483.34
459.24
438.91
423.24
411.73
403.39
397.22
389.44
380.58
372.31
365.32
359.38
358.79
366.25
382.90
408.01
434.68
461.34
488.33
515.46
542.51
574.86
614.53
659.52
704.46
736.87
754.37
761.83
767.30
730.38
627.45
451.96
217.35
-8.69
-218.18
-418.94
-617.95
-825.36
-1035.02
-1229.01
-1391.63
-1513.33
-1591.85
-1622.81
-1596.95
-1510.06
-1369.88
-1194.02
-999.93
-803.44
-615.57
-443.23
-295.64
-175.50
-82.45
-15.09
32.54
66.88
92.71
113.20
129.65
138.80
139.20
130.77
114.19
91.76
67.66
46.61
32.73
29.45
36.19
49.76
63.94
71.50
67.26
50.79
27.08
4.21
-10.18
-12.89
-4.88
9.43
24.63
35.83
38.74
29.63
5.94
-31.78
-78.23
-122.93
-152.87
-156.97
-131.42
-81.99
-22.33
30.38
60.92
59.69
24.46
-40.76
-127.39
-224.69
-321.40
-407.39
-474.99
-519.37
-539.15
-535.54
-511.94
-473.53
-427.09
-380.28
-339.68
-308.39
-284.16
-259.99
-226.94
-179.07
-117.21
-49.78
10.25
50.61
64.61
53.16
22.82
-17.62
-60.59
-101.13
-136.37
-164.23
-182.56
-189.44
-183.76
-166.31
-139.61
-107.80
-75.49
-46.71
-24.25
-9.68
-3.62
-6.00
-16.40
-33.83
-56.84
-83.15
-110.00
-134.46
-153.73
-165.22
-166.49
-155.42
-130.03
-89.28
-33.19
36.88
118.49
208.30
301.58
391.71
469.27
522.87
541.54
518.59
454.95
359.55
246.73
131.24
24.30
-68.02
-142.77
-197.13
-226.11
-223.89
-187.25
-118.61
-27.09
74.31
172.77
259.37
330.32
387.04
432.40
468.15
493.90
507.66
507.42
492.65
465.14
428.71
389.99
355.31
328.95
311.99
302.11
294.67
285.05
270.14
249.38
226.93
208.42
199.08
202.87
221.91
256.72
306.75
369.74
423.98
447.42
422.01
342.85
222.84
86.72
-40.30
-141.61
-212.02
-255.69
-278.60
-284.23
-276.66
-257.88
-229.90
-196.18
-161.40
-130.05
-105.22
-85.93
-69.81
-53.81
-36.78
-18.84
-2.21
9.47
12.23
2.77
-19.01
-52.04
-92.98
-136.46
-176.52
-208.16
-228.55
-237.14
-235.54
-226.06
-214.04
-205.01
-203.30
-210.33
-223.54
-236.83
-242.51
-235.10
-214.58
-191.28
-179.57
-192.57
-236.14
-306.44
-392.07
-478.15
-550.73
-583.26
-559.09
-474.91
-345.54
-198.40
-62.05
42.81
106.70
130.67
122.74
87.03
31.55
-34.40
-99.40
-151.03
-179.65
-181.91
-161.78
-119.82
-67.99
-17.88
24.22
60.23
97.76
143.88
200.20
261.90
320.20
364.02
389.72
396.87
387.84
366.76
337.90
304.51
268.75
231.71
192.19
149.89
104.62
56.86
8.14
-38.63
-80.49
-115.63
-143.45
-165.14
-181.82
-194.86
-205.87
-215.38
-222.53
-224.70
-217.61
-195.76
-155.03
-94.40
-15.68
69.19
142.47
188.00
198.43
176.62
132.16
74.67
10.71
-56.77
-127.14
-198.37
-266.46
-326.26
-376.68
-416.11
-443.78
-459.57
-463.10
-453.91
-430.43
-390.97
-335.09
-264.61
-183.06
-95.32
-5.93
82.51
166.46
244.39
316.58
384.23
448.49
509.87
567.05
617.04
655.99
680.03
687.18
677.66
653.69
618.83
577.42
533.43
490.01
449.60
413.66
382.79
356.18
331.28
303.98
269.96
226.12
171.99
110.20
45.51
-16.52
-71.62
-117.82
-155.50
-186.32
-211.93
-233.14
-250.15
-263.28
-273.34
-281.75
-289.66
-297.33
-303.53
-306.05
-302.71
-292.10
-273.81
-248.13
-215.69
-177.77
-137.13
-98.43
-67.79
-51.01
-50.98
-66.05
-90.14
-114.74
-131.91
-136.96
-129.44
-112.39
-90.59
-68.50
-49.39
-35.10
-26.41
-23.36
-25.40
-31.45
-40.08
-49.59
-58.16
-64.18
-66.40
-64.31
-58.46
-50.58
-42.90
-37.73
-36.30
-38.44
-42.91
-48.30
-54.05
-60.71
-69.22
-79.70
-90.75
-99.62
-103.57
-101.27
-93.34
-82.27
-71.17
-62.66
-57.94
-56.42
-56.11
-54.35
-48.71
-37.54
-20.60
0.86
24.44
47.14
65.99
78.52
82.97
78.40
65.37
45.87
23.24
1.24
-17.35
-31.62
-42.72
-52.70
-63.12
-73.98
-83.85
-90.44
-91.81
-86.97
-76.17
-60.69
-42.56
-24.10
-7.58
5.44
14.44
19.51
20.82
17.70
9.17
-5.12
-23.64
-43.00
-59.44
-71.46
-81.54
-95.28
-118.22
-151.44
-189.51
-221.64
-236.29
-226.23
-191.64
-139.60
-80.50
-24.06
23.65
60.66
88.10
108.66
124.98
139.10
152.09
164.09
174.36
181.69
184.91
183.40
177.59
168.50
157.36
145.23
132.85
120.83
109.92
100.80
93.88
89.24
86.44
84.95
84.29
84.12
84.20
84.32
84.20
83.43
81.74
78.84
74.62
68.95
61.79
53.40
44.52
36.22
29.33
24.06
19.58
14.70
8.40
0.51
-8.02
-15.67
-21.07
-23.74
-23.97
-22.65
-20.33
-16.85
-11.39
-2.81
9.43
24.50
39.69
51.17
55.21
49.98
36.73
19.38
2.95
-8.71
-14.32
-15.42
-14.81
-15.01
-16.95
-19.94
-22.67
-24.23
-24.86
-25.50
-27.08
-29.76
-32.82
-35.18
-35.73
-34.15
-30.69
-26.05
-20.93
-15.64
-10.27
-5.00
-0.59
2.10
2.48
0.86
-1.70
-4.10
-6.32
-9.89
-17.34
-31.02
-51.43
-76.92
-104.12
-129.65
-151.46
-169.31
-183.93
-196.02
-205.38
-210.83
-211.34
-206.65
-197.79
-186.60
-175.09
-164.62
-155.98
-149.36
-144.42
-140.41
-135.89
-128.77
-117.09
-99.81
-77.44
-52.03
-26.55
-3.58
15.38
30.15
41.50
50.36
57.41
62.96
67.16
70.03
71.32
70.40
66.28
57.88
44.52
26.35
4.31
-20.11
-45.08
-68.83
-89.82
-106.73
-118.64
-125.04
-125.76
-120.94
-111.12
-96.96
-79.47
-60.02
-40.16
-21.50
-5.39
7.38
16.58
22.33
25.01
25.15
23.52
21.38
20.25
21.79
27.51
38.39
54.58
75.11
97.80
119.64
137.55
149.21
154.06
153.63
151.08
150.19
154.10
164.35
180.58
201.24
224.22
247.78
270.51
290.80
306.35
314.19
311.58
297.23
272.38
240.66
206.86
175.14
147.48
123.78
102.73
83.31
65.56
50.58
39.75
33.81
32.50
34.61
38.66
43.15
46.87
49.02
49.43
48.78
48.75
51.80
60.60
77.10
101.52
131.58
162.69
188.74
203.81
203.86
188.18
159.37
122.39
82.81
45.13
12.16
-14.91
-35.63
-49.73
-56.76
-56.63
-50.24
-39.68
-27.98
-17.98
-11.34
-7.93
-6.03
-3.33
1.92
9.79
18.68
25.73
28.11
24.03
13.45
-1.98
-19.56
-36.65
-51.51
-63.57
-73.28
-81.28
-87.71
-91.80
-92.23
-87.79
-78.35
-65.03
-49.75
-34.52
-20.38
-7.23
5.81
19.56
34.07
48.35
60.78
69.96
75.34
77.56
78.10
78.28
78.65
78.52
76.55
71.42
62.90
51.89
40.14
29.14
19.35
10.26
0.76
-9.77
-21.13
-32.17
-41.55
-48.03
-50.83
-49.64
-44.35
-35.41
-23.99
-12.08
-2.11
3.78
4.58
0.75
-6.35
-15.05
-24.27
-33.58
-42.86
-51.70
-59.24
-64.43
-66.51
-65.42
-61.77
-56.62
-50.87
-45.07
-39.39
-33.85
-28.66
-24.15
-20.80
-18.86
-18.25
-18.43
-18.40
-17.17
-14.01
-8.88
-2.48
3.92
9.21
12.76
14.69
15.65
16.18
16.39
15.77
13.48
8.68
0.86
-10.13
-24.13
-40.64
-58.75
-76.88
-92.90
-104.47
-109.86
-108.59
-101.69
-91.25
-79.61
-68.64
-59.34
-51.89
-45.98
-41.10
-36.84
-32.87
-28.89
-24.46
-19.20
-12.83
-5.41
2.54
10.10
16.18
20.00
21.52
21.37
20.42
19.27
17.81
15.41
11.46
5.88
-0.59
-6.67
-11.31
-14.08
-15.32
-15.81
-16.12
-16.17
-15.30
-12.78
-8.37
-2.72
2.85
6.93
8.68
8.11
6.07
3.84
2.57
3.10
5.82
10.80
17.65
25.52
33.03
38.74
41.45
40.75
37.22
32.11
26.94
22.85
20.30
19.23
19.35
20.40
22.21
24.66
27.40
29.73
30.65
29.18
24.75
17.64
8.96
0.23
-7.11
-12.35
-15.68
-17.91
-20.00
-22.57
-25.46
-28.02
-29.36
-28.93
-26.89
-24.08
-21.53
-20.02
-19.71
-20.09
-20.37
-19.97
-18.80
-17.29
-15.80
-14.24
-11.99
-8.38
-3.19
2.93
8.52
12.00
12.28
9.45
4.69
-0.28
-4.06
-5.98
-6.22
-5.56
-4.68
-3.85
-2.73
-0.75
2.47
6.74
11.30
15.08
17.17
17.35
16.07
14.25
12.78
12.09
11.95
11.60
10.16
7.08
2.48
-2.90
-7.93
-11.58
-13.31
-13.20
-11.99
-10.55
-9.67
-9.73
-10.74
-12.41
-14.25
-15.70
-16.14
-15.09
-12.22
-7.66
-2.00
3.78
8.61
11.69
12.72
11.87
9.68
6.84
3.99
1.51
-0.45
-2.01
-3.27
-4.25
-4.72
-4.31
-2.74
-0.04
3.31
6.54
8.93
10.21
10.64
10.82
11.16
11.66
11.79
10.84
8.38
4.48
-0.27
-5.08
-9.25
-12.32
-14.12
-14.70
-14.19
-12.91
-11.32
-9.95
-9.23
-9.33
-10.09
-11.14
-12.14
-12.83
-13.03
-12.58
-11.21
-8.64
-4.79
0.06
5.15
9.49
12.19
12.86
11.66
9.21
6.27
3.42
0.98
-0.97
-2.37
-3.13
-3.11
-2.35
-1.00
0.53
1.76
2.42
2.42
2.06
1.76
1.86
2.44
3.30
4.11
4.65
4.99
5.40
6.13
7.17
8.19
8.71
8.34
7.07
5.27
3.38
1.73
0.21
-1.54
-3.88
-6.82
-10.04
-13.06
-15.47
-16.99
-17.43
-16.51
-13.92
-9.53
-3.59
3.01
9.10
13.51
15.72
15.91
14.81
13.19
11.47
9.67
7.62
5.24
2.74
0.54
-0.93
-1.37
-0.81
0.61
2.58
4.88
7.28
9.59
11.60
13.10
13.89
13.71
12.38
9.81
6.11
1.64
-3.09
-7.53
-11.31
-14.29
-16.55
-18.34
-19.90
-21.30
-22.48
-23.30
-23.64
-23.52
-23.12
-22.61
-22.08
-21.43
-20.48
-18.97
-16.69
-13.38
-8.77
-2.70
4.64
12.58
20.04
25.79
28.91
29.18
27.00
23.27
18.94
14.71
10.87
7.52
4.71
2.54
1.21
0.79
1.14
1.91
2.55
2.52
1.43
-0.70
-3.40
-5.81
-7.08
-6.68
-4.75
-2.02
0.51
1.99
2.11
1.22
0.03
-0.77
-0.81
-0.23
0.47
0.76
0.25
-1.08
-2.87
-4.62
-5.96
-6.76
-7.23
-7.72
-8.47
-9.50
-10.63
-11.59
-12.17
-12.27
-11.72
-10.31
-7.85
-4.34
-0.18
3.98
7.46
9.77
10.86
11.03
10.66
9.99
9.07
7.95
6.88
6.33
6.68
8.05
10.06
11.92
12.76
12.01
9.64
6.26
2.84
0.31
-0.84
-0.74
0.03
0.66
0.67
-0.08
-1.35
-2.67
-3.73
-4.41
-4.82
-5.07
-5.36
-5.75
-6.29
-7.00
-7.75
-8.45
-8.92
-9.07
-8.93
-8.66
-8.43
-8.38
-8.57
-8.86
-9.10
-8.98
-8.20
-6.45
-3.69
-0.05
3.97
7.68
10.51
12.13
12.60
12.20
11.26
10.01
8.52
6.76
4.77
2.66
0.69
-0.92
-2.03
-2.71
-3.01
-3.09
-2.99
-2.73
-2.20
-1.35
-0.15
1.31
2.78
3.97
4.58
4.45
3.54
1.99
0.13
-1.59
-2.69
-2.86
-2.13
-0.89
0.18
0.35
-0.81
-3.23
-6.43
-9.72
-12.61
-14.88
-16.58
-17.83
-18.57
-18.65
-17.76
-15.71
-12.57
-8.52
-3.84
1.14
6.16
10.96
15.19
18.64
21.16
22.74
23.64
24.14
24.38
24.32
23.89
23.08
22.08
21.28
21.11
22.12
24.49
28.03
32.17
36.35
40.25
44.04
48.22
53.30
59.95
68.11
77.14
86.12
94.33
101.54
108.31
115.51
123.84
134.41
147.36
162.10
177.46
192.31
205.90
218.36
230.52
243.33
258.71
277.49
299.26
322.41
344.79
364.34
379.58
389.73
394.30
394.72
391.86
385.57
374.24
354.80
323.68
278.30
218.61
137.39
35.81
-78.71
-194.15
-297.74
-380.30
-438.34
-473.34
-489.40
-491.20
-481.41
-462.85
-438.82
-412.73
-387.58
-365.20
-346.02
-329.18
-313.59
-297.09
-278.61
-258.44
-237.77
-218.12
-200.65
-185.69
-172.85
-161.41
-149.99
-137.86
-125.04
-112.17
-100.15
-89.69
-81.00
-73.81
-67.67
-61.77
-55.66
-49.29
-43.00
-37.22
-32.33
-28.40
-25.27
-22.67
-20.22
-17.73
-15.19
-12.81
-10.85
-9.45
-8.59
-8.12
-7.74
-7.27
-6.62
-5.78
-5.02
-4.39
-3.93
-3.20
-1.62
1.66
7.21
15.08
24.94
35.65
46.17
55.31
62.66
68.27
72.38
75.03
75.74
73.78
67.70
56.72
40.63
20.75
-0.78
-21.47
-39.35
-53.48
-63.63
-70.69
-75.29
-77.41
-76.74
-73.09
-66.90
-58.61
-48.27
-34.52
-16.32
6.12
30.54
52.02
65.45
67.17
57.87
41.82
25.50
13.25
5.44
-1.12
-11.17
-26.41
-44.53
-59.26
-64.03
-54.75
-32.62
-2.95
27.24
51.95
68.88
78.50
82.71
83.36
81.72
77.34
69.61
58.79
46.11
34.48
26.73
23.85
25.18
28.44
29.90
26.65
18.97
10.15
4.97
8.66
20.83
36.29
47.38
46.08
28.06
-5.85
-51.22
-103.22
-159.96
-222.80
-292.41
-353.52
-386.98
-378.18
-325.66
-240.73
-140.29
-39.97
49.42
123.96
184.97
234.17
273.80
303.16
320.24
323.84
314.31
292.66
261.87
226.42
189.38
151.82
112.31
69.97
26.14
-16.97
-57.88
-94.41
-123.37
-142.96
-153.79
-158.61
-160.49
-161.05
-160.36
-158.65
-154.88
-146.67
-132.44
-112.41
-88.01
-59.82
-27.24
19.06
76.44
130.72
165.64
173.70
157.07
124.45
82.85
34.74
-23.01
-92.15
-172.29
-256.82
-333.48
-389.22
-415.33
-408.67
-372.00
-312.88
-242.67
-170.46
-100.83
-34.09
30.66
93.66
156.39
220.20
283.90
338.39
368.45
361.15
315.65
248.90
172.84
97.06
27.91
-26.64
-69.08
-100.24
-122.90
-139.96
-154.92
-170.76
-185.89
-196.04
-198.16
-192.66
-181.28
-167.47
-153.47
-140.95
-130.17
-117.05
-95.27
-60.04
-9.70
55.09
129.56
206.73
271.30
302.25
287.76
233.48
156.23
72.79
-2.55
-71.56
-136.69
-198.54
-254.89
-301.04
-328.51
-333.94
-318.04
-283.84
-235.80
-177.57
-114.30
-52.49
1.30
42.19
67.67
81.45
92.21
109.26
139.01
180.77
227.69
270.16
300.89
315.66
316.79
309.89
299.89
288.93
275.36
255.90
227.77
192.63
154.49
121.04
99.20
92.08
98.20
113.70
135.81
163.16
197.06
219.40
212.49
166.33
85.44
-15.81
-121.10
-211.25
-285.36
-343.31
-385.57
-410.58
-417.65
-406.55
-380.66
-345.38
-306.21
-268.27
-233.19
-201.43
-170.79
-139.24
-105.97
-72.60
-42.08
-17.15
-0.36
8.58
10.73
8.63
4.78
0.83
-3.00
-7.38
-12.94
-20.22
-28.08
-34.98
-38.49
-36.24
-26.32
-7.83
19.27
54.28
95.55
141.04
188.23
234.68
278.76
319.87
358.26
394.21
427.18
455.11
474.74
483.08
478.29
460.69
432.11
395.13
352.41
306.70
260.88
217.95
180.98
152.22
132.24
119.34
110.27
101.46
90.57
76.24
58.02
36.35
12.73
-10.69
-32.45
-52.30
-71.14
-89.82
-109.20
-129.70
-150.77
-170.74
-187.52
-199.48
-205.36
-203.20
-190.20
-165.48
-133.74
-105.24
-92.85
-107.60
-154.89
-232.39
-330.38
-427.75
-496.70
-516.74
-486.15
-420.76
-340.98
-261.09
-187.36
-121.08
-61.86
-10.04
31.05
59.12
75.26
84.62
94.13
109.66
133.94
166.26
204.65
241.51
269.59
284.34
285.14
273.92
253.33
225.56
188.62
146.10
99.94
52.01
4.80
-38.20
-73.40
-98.49
-113.00
-118.03
-115.83
-110.62
-105.79
-103.36
-103.22
-103.94
-103.75
-101.55
-97.14
-91.29
-86.62
-85.18
-88.42
-95.95
-106.14
-116.67
-125.60
-132.35
-137.34
-144.48
-154.40
-167.33
-181.53
-193.13
-197.07
-188.94
-166.86
-131.93
-88.45
-41.61
2.76
39.63
65.21
77.65
77.52
67.94
53.97
40.62
30.78
23.28
13.90
-2.05
-25.98
-54.39
-80.30
-96.68
-100.80
-96.01
-90.65
-93.87
-110.67
-138.75
-169.21
-190.50
-193.81
-176.89
-144.31
-104.67
-65.95
-33.89
-10.44
6.03
18.51
28.74
36.29
39.52
37.65
32.17
26.90
26.86
36.02
55.56
83.58
116.01
148.57
178.68
206.01
232.17
259.55
289.89
323.16
357.86
391.99
424.12
453.34
478.38
496.52
503.62
495.23
468.52
423.92
365.58
300.41
236.08
178.92
132.85
99.65
79.54
71.93
74.97
85.05
96.48
102.41
96.95
77.30
45.11
5.58
-34.69
-71.09
-102.85
-132.91
-165.33
-201.77
-239.23
-270.32
-285.77
-277.96
-243.63
-185.14
-110.10
-29.69
43.61
98.62
127.84
129.08
105.55
64.37
14.02
-38.59
-89.62
-138.31
-184.96
-228.63
-265.94
-291.59
-300.32
-289.19
-258.74
-212.59
-156.16
-95.06
-34.17
22.98
73.94
117.14
151.20
174.72
186.54
185.67
171.89
146.01
110.19
68.00
23.98
-17.89
-54.58
-84.02
-105.11
-117.70
-122.52
-121.07
-115.03
-105.66
-94.64
-82.65
-69.27
-53.63
-35.47
-15.86
3.21
19.71
32.43
38.45
35.65
24.11
6.45
-12.87
-29.49
-40.35
-43.90
-40.41
-35.97
-37.74
-50.70
-75.58
-109.21
-146.54
-182.48
-212.40
-233.74
-252.97
-280.36
-325.10
-390.82
-474.49
-568.73
-664.71
-753.59
-793.90
-755.62
-633.11
-451.12
-248.56
-56.12
111.69
251.45
365.04
455.18
519.11
554.34
562.58
550.83
529.40
509.98
497.02
491.77
493.39
496.16
494.87
487.16
474.74
461.25
448.98
437.21
423.68
405.26
376.26
331.58
270.41
197.83
122.30
52.48
-4.75
-44.08
-62.45
-60.20
-39.85
-4.25
44.30
103.50
170.57
241.96
314.06
383.16
444.92
494.39
527.45
541.48
534.95
507.18
458.49
389.95
303.80
203.42
91.11
-29.63
-153.79
-275.41
-388.84
-489.48
-574.96
-644.52
-698.39
-741.79
-778.94
-811.14
-836.87
-853.17
-857.60
-849.22
-828.34
-796.40
-762.58
-734.50
-715.90
-706.65
-704.81
-708.11
-713.61
-716.90
-712.18
-702.47
-689.65
-673.42
-651.88
-624.42
-593.56
-564.19
-541.36
-476.02
-347.21
-164.55
37.66
224.36
376.24
488.57
563.81
607.23
625.32
616.69
582.99
530.16
466.93
401.38
338.85
282.46
231.40
188.44
150.32
115.60
86.38
67.52
64.06
78.57
110.72
160.76
221.51
280.71
328.89
361.39
378.21
381.98
375.91
362.71
344.97
324.85
302.64
278.90
254.70
231.63
210.94
193.00
177.09
162.53
148.67
135.09
122.08
110.25
100.45
93.01
87.54
82.96
78.28
72.64
66.01
58.95
52.52
48.68
49.78
57.48
71.38
88.54
103.68
111.21
109.14
96.24
75.27
51.07
28.45
10.83
-0.00
-3.83
-1.69
3.37
8.09
8.49
1.33
-14.24
-35.93
-59.07
-78.73
-91.83
-97.72
-98.11
-95.81
-93.41
-92.84
-95.16
-100.68
-109.24
-120.40
-133.04
-145.87
-158.07
-167.56
-172.39
-170.50
-159.91
-139.60
-109.56
-71.01
-25.56
24.58
75.35
121.47
157.48
178.90
185.09
178.15
163.20
146.73
133.53
124.72
117.94
109.43
96.35
78.29
56.84
34.26
11.89
-10.25
-32.68
-55.94
-79.84
-103.36
-124.72
-141.23
-149.72
-147.40
-132.86
-107.66
-75.98
-44.11
-18.15
-1.65
5.46
5.90
3.17
-0.17
-3.79
-8.15
-13.79
-20.25
-26.25
-30.49
-32.88
-34.96
-39.00
-47.19
-60.57
-78.43
-98.51
-117.65
-133.13
-142.59
-144.92
-139.92
-128.04
-109.97
-86.52
-58.58
-27.40
5.22
37.05
65.52
88.37
104.08
112.12
112.96
107.81
98.36
86.30
73.18
60.01
47.50
36.11
26.15
17.86
11.24
6.12
2.26
-0.73
-3.23
-5.64
-8.22
-11.07
-14.16
-17.31
-20.32
-22.92
-24.96
-26.17
-26.54
-26.18
-25.43
-24.75
-24.66
-25.83
-28.83
-34.13
-41.70
-51.42
-62.95
-75.89
-89.72
-103.78
-117.55
-130.57
-142.55
-152.85
-161.11
-167.09
-170.73
-171.99
-170.79
-166.85
-159.55
-151.30
-143.15
-135.79
-129.67
-125.05
-122.01
-120.47
-120.26
-121.19
-123.09
-125.28
-127.13
-128.04
-127.47
-124.98
-120.27
-113.24
-104.01
-92.95
-80.19
-65.99
-50.64
-34.49
-17.87
-1.21
14.90
29.76
42.66
53.27
61.53
67.66
72.18
75.78
79.11
82.55
86.19
89.97
93.88
98.20
103.44
110.39
119.82
132.18
147.37
164.76
183.34
202.13
220.41
237.92
254.89
271.97
290.19
310.75
334.48
361.19
389.20
415.32
435.57
446.58
446.62
436.40
418.66
396.95
374.43
352.71
331.70
309.96
285.52
256.39
221.23
179.55
131.75
79.28
24.51
-29.46
-79.15
-121.08
-152.53
-171.97
-179.50
-176.86
-166.84
-152.69
-137.19
-122.24
-108.70
-96.74
-86.14
-76.71
-68.47
-61.52
-56.03
-52.15
-49.78
-48.63
-48.23
-48.04
-47.59
-46.66
-45.12
-42.93
-40.14
-36.64
-32.37
-27.27
-21.31
-14.65
-7.66
-0.77
5.52
10.79
14.81
17.51
18.97
19.37
18.98
17.96
16.48
14.56
12.22
9.48
6.48
3.33
0.19
-2.78
-5.55
-8.18
-10.86
-13.80
-17.07
-20.52
-23.82
-26.48
-28.05
-28.24
-26.99
-24.60
-21.57
-18.40
-15.49
-13.05
-11.05
-9.32
-7.62
-5.87
-4.16
-2.93
-2.58
-3.62
-6.37
-10.91
-17.06
-24.57
-33.24
-43.02
-54.16
-66.75
-80.86
-96.25
-112.25
-127.66
-140.96
-150.41
-154.36
-151.73
-142.19
-126.47
-106.42
-84.41
-62.75
-43.21
-26.69
-13.23
-2.21
7.30
16.40
25.93
36.63
49.00
63.09
78.46
94.34
110.05
125.32
140.28
155.13
170.03
184.77
198.23
208.66
214.05
213.43
207.46
198.45
189.49
183.60
183.00
187.71
195.97
204.28
209.22
208.50
201.14
187.09
166.92
142.00
112.96
79.84
40.37
-8.70
-70.37
-146.11
-234.38
-332.06
-426.69
-500.86
-538.77
-536.09
-499.90
-442.55
-375.05
-303.32
-229.29
-152.96
-76.42
-1.18
68.12
126.01
168.56
193.95
202.65
196.53
179.66
149.28
112.82
79.10
54.24
39.06
29.45
19.63
4.94
-15.55
-39.71
-63.27
-84.38
-103.59
-122.00
-140.87
-158.06
-169.83
-172.31
-163.18
-141.59
-109.59
-71.01
-29.18
13.84
57.48
100.81
141.79
177.05
203.62
219.18
222.51
214.84
197.37
174.24
149.74
127.05
107.27
90.01
73.27
52.71
23.43
-18.87
-76.19
-148.15
-231.77
-322.30
-413.66
-491.24
-540.71
-552.01
-523.51
-461.96
-379.19
-286.76
-193.18
-103.33
-20.00
53.55
113.87
158.08
185.14
195.80
193.62
181.41
161.37
135.28
103.41
66.07
24.48
-17.23
-52.42
-74.45
-78.71
-63.80
-31.36
13.17
62.76
110.40
150.65
182.02
205.25
222.48
235.39
245.21
251.52
252.97
247.47
231.75
203.83
161.04
108.35
53.95
7.09
-25.74
-42.74
-47.84
-51.12
-65.03
-96.52
-147.28
-214.19
-289.62
-363.27
-424.29
-453.25
-443.96
-399.72
-330.09
-247.25
-162.79
-84.90
-17.92
36.21
77.61
105.42
120.80
127.00
128.00
126.77
125.30
124.76
125.32
126.97
128.57
128.65
126.88
123.21
117.51
109.11
97.92
84.21
68.47
50.47
30.14
8.19
-14.66
-37.50
-60.04
-81.71
-101.85
-118.95
-130.89
-134.35
-124.94
-99.84
-56.78
-3.35
47.50
82.77
94.93
83.26
52.48
9.92
-38.17
-87.65
-136.88
-184.11
-226.52
-261.95
-287.32
-301.12
-303.78
-297.48
-285.12
-269.56
-252.35
-233.90
-213.61
-191.12
-167.23
-143.34
-121.14
-101.56
-84.52
-68.02
-52.76
-37.92
-22.96
-8.27
4.96
15.07
20.75
21.18
16.35
7.27
-4.19
-16.33
-28.04
-38.75
-48.43
-57.23
-65.52
-73.83
-82.13
-90.22
-98.17
-106.40
-115.19
-124.37
-132.99
-139.33
-141.34
-134.96
-116.61
-84.16
-37.53
21.50
90.04
164.61
241.37
315.80
386.83
452.62
510.05
554.55
581.37
587.47
572.54
538.98
490.91
438.84
392.12
357.54
337.72
332.41
340.82
362.73
398.56
448.22
517.18
607.48
717.27
839.34
963.57
1080.84
1184.93
1272.64
1295.75
1223.29
1049.04
798.91
516.54
242.15
0.60
-198.93
-357.58
-481.06
-566.28
-620.86
-654.09
-678.25
-706.71
-749.28
-808.92
-881.55
-949.11
-987.86
-981.34
-925.22
-829.53
-712.91
-594.02
-485.74
-393.96
-319.70
-259.82
-211.69
-173.03
-142.75
-120.06
-103.38
-90.19
-78.17
-66.04
-53.30
-40.94
-29.95
-21.34
-15.48
-11.67
-8.52
-4.79
0.04
5.60
10.68
14.33
15.99
15.83
14.72
13.83
13.96
15.26
16.93
17.77
16.97
14.46
10.92
7.54
5.35
4.83
5.60
6.61
6.69
5.26
2.74
0.67
1.21
6.26
16.86
32.56
51.75
72.08
91.41
108.69
123.43
135.52
144.78
150.38
150.70
143.94
128.55
104.18
71.37
33.16
-6.42
-42.42
-69.50
-83.05
-80.84
-64.83
-41.59
-20.73
-11.92
-21.21
-47.84
-85.13
-122.87
-151.32
-164.65
-162.31
-147.99
-127.10
-104.20
-81.86
-61.03
-42.08
-25.64
-12.72
-3.80
1.98
6.72
13.21
23.41
37.53
53.61
68.25
77.94
80.31
74.98
63.46
48.60
33.77
21.84
14.55
12.48
15.42
22.75
33.87
48.35
65.22
83.12
100.40
114.98
124.94
129.05
126.94
119.54
109.01
97.50
87.24
79.96
76.30
76.07
78.52
82.63
87.72
93.74
100.32
107.25
113.95
118.96
120.28
115.36
101.71
76.97
43.92
4.53
-38.94
-84.53
-131.31
-179.09
-228.11
-278.34
-328.74
-377.12
-421.02
-457.49
-483.92
-498.91
-502.37
-495.57
-480.64
-459.43
-432.59
-399.72
-358.81
-307.52
-244.97
-173.32
-98.24
-28.20
28.09
64.53
79.68
77.76
67.47
58.89
60.28
75.54
102.97
136.48
167.59
188.57
195.26
188.81
174.95
161.82
156.65
162.77
178.59
198.87
217.45
230.17
236.34
237.78
236.65
233.46
226.52
213.34
192.91
167.22
141.01
119.91
107.64
104.38
106.82
109.77
108.65
101.39
88.92
74.37
61.23
51.84
46.33
42.87
38.63
31.62
21.76
11.24
3.53
1.51
5.59
12.99
18.67
17.42
6.41
-13.76
-39.51
-65.94
-88.54
-104.19
-111.07
-108.42
-96.34
-76.16
-51.05
-25.73
-5.34
6.21
7.63
0.51
-11.74
-25.45
-38.05
-48.64
-57.46
-65.20
-72.52
-79.75
-87.31
-95.71
-105.47
-116.67
-128.23
-137.92
-142.84
-140.80
-131.58
-117.43
-102.58
-91.52
-87.13
-89.31
-95.23
-100.41
-100.67
-93.61
-79.45
-60.78
-41.57
-25.73
-15.84
-12.43
-14.02
-18.03
-21.93
-24.39
-25.54
-26.48
-28.19
-30.61
-32.65
-32.54
-28.72
-20.26
-6.95
10.58
30.83
51.38
69.20
81.26
85.46
81.24
69.68
53.37
35.01
16.83
0.06
-14.84
-27.50
-37.04
-42.07
-41.16
-33.66
-20.65
-5.24
7.92
14.31
11.38
0.04
-15.29
-28.83
-35.83
-34.75
-27.59
-18.22
-9.97
-3.67
2.58
11.98
26.29
44.26
61.76
73.88
77.73
74.06
66.78
60.24
56.70
54.97
51.53
43.13
29.10
11.77
-5.09
-18.39
-27.15
-32.10
-34.07
-32.75
-26.81
-15.44
0.32
17.02
30.36
37.19
37.05
32.26
26.45
22.79
22.39
24.43
27.00
28.73
29.88
32.37
38.85
50.77
67.06
83.72
95.26
97.06
87.68
69.57
47.91
28.04
12.87
1.99
-7.27
-17.41
-28.76
-38.87
-44.09
-41.65
-31.48
-16.64
-1.72
8.99
13.31
11.62
6.11
-0.39
-5.53
-8.05
-7.90
-6.08
-4.30
-4.24
-6.67
-10.73
-13.93
-12.99
-5.48
8.93
27.90
46.98
61.00
65.72
59.17
42.38
19.26
-4.43
-22.91
-32.05
-30.91
-21.56
-7.83
6.59
19.71
31.25
41.59
50.23
55.16
53.47
43.24
25.09
2.62
-18.32
-31.51
-32.55
-20.35
2.23
29.20
53.59
69.44
73.63
66.98
53.69
39.48
29.42
25.90
28.14
33.43
38.50
40.77
38.93
32.94
23.34
10.84
-3.93
-19.80
-33.92
-42.60
-42.73
-32.85
-13.14
14.77
48.16
83.06
115.67
145.06
171.71
196.59
219.89
240.82
257.67
268.10
269.23
260.21
244.86
227.44
209.21
186.83
154.93
109.67
51.82
-13.23
-74.71
-116.91
-127.07
-99.86
-38.09
51.42
161.35
284.91
414.14
510.42
537.18
478.37
350.49
188.38
23.68
-125.53
-247.03
-352.59
-449.25
-532.49
-593.87
-627.18
-632.94
-610.09
-554.79
-471.43
-374.68
-283.43
-211.09
-163.59
-138.52
-127.79
-121.04
-110.67
-94.08
-74.07
-54.33
-35.10
-13.47
12.94
45.28
83.37
124.83
165.36
199.59
215.68
211.89
190.00
154.62
111.99
68.31
27.62
-9.52
-44.92
-80.27
-114.22
-144.76
-169.77
-188.09
-200.54
-209.41
-218.41
-228.71
-239.36
-246.48
-246.69
-238.05
-220.46
-196.33
-169.96
-146.30
-129.09
-120.43
-119.68
-125.07
-134.44
-145.09
-154.99
-162.95
-168.37
-170.89
-170.18
-165.13
-154.37
-140.89
-126.38
-112.44
-100.38
-90.90
-83.95
-78.86
-74.50
-69.75
-64.05
-56.74
-48.05
-38.81
-30.26
-23.48
-19.24
-17.99
-19.64
-23.87
-29.55
-35.49
-40.33
-42.51
-40.45
-32.76
-18.52
2.21
28.42
58.56
90.15
120.66
148.24
172.05
192.44
210.61
227.80
244.84
262.13
279.48
296.44
312.65
328.24
343.79
360.12
378.27
399.17
423.65
451.73
481.82
510.14
531.25
539.45
530.91
505.34
466.21
419.52
371.41
326.20
285.60
249.37
216.55
186.63
159.77
136.23
115.77
97.33
79.48
61.18
42.41
23.98
7.28
-6.61
-17.41
-25.70
-32.50
-38.86
-45.38
-52.01
-58.25
-63.60
-67.99
-71.95
-76.46
-82.54
-91.14
-102.86
-117.61
-134.40
-151.35
-166.14
-176.47
-180.66
-178.11
-169.31
-155.37
-137.64
-117.26
-95.20
-72.47
-50.33
-30.17
-13.28
-0.45
8.28
13.46
15.90
16.34
15.42
13.40
10.43
6.59
2.08
-2.80
-7.76
-12.70
-17.66
-22.58
-27.55
-32.49
-37.31
-41.82
-45.83
-49.29
-52.27
-54.92
-57.46
-60.17
-63.26
-66.82
-70.78
-74.82
-78.57
-81.74
-84.18
-86.04
-87.58
-89.15
-90.90
-92.79
-94.54
-95.85
-96.52
-96.57
-96.11
-95.35
-94.40
-93.35
-92.13
-90.52
-88.35
-85.39
-81.45
-76.44
-70.45
-63.73
-56.76
-49.96
-43.69
-38.17
-33.45
-29.36
-25.76
-22.45
-19.27
-16.18
-13.14
-10.10
-7.08
-4.16
-1.41
0.96
2.74
3.87
4.26
4.02
3.34
2.43
1.52
0.78
0.19
-0.30
-0.72
-1.12
-1.46
-1.66
-1.61
-1.24
-0.49
0.47
1.37
1.96
1.99
1.26
-0.45
-3.55
-8.51
-15.74
-25.60
-38.21
-53.35
-70.29
-87.91
-104.65
-118.90
-128.92
-133.24
-130.89
-121.44
-105.34
-83.80
-58.59
-31.89
-6.00
17.08
35.83
49.56
58.36
62.93
64.23
63.44
61.54
59.33
57.15
55.19
53.38
51.61
49.71
47.38
44.45
40.88
36.80
32.45
28.17
24.31
21.10
18.61
16.84
15.59
14.65
13.84
13.02
12.17
11.41
10.80
10.40
10.24
10.13
10.00
9.71
9.25
8.57
7.78
6.84
5.73
4.38
2.80
1.14
-0.46
-1.83
-2.96
-3.83
-4.48
-4.90
-4.99
-4.62
-3.68
-2.22
-0.46
1.42
3.12
4.51
5.55
6.27
6.64
6.74
6.56
6.10
5.44
4.61
3.67
2.65
1.66
0.69
-0.22
-0.97
-1.48
-1.71
-1.66
-1.44
-1.19
-0.98
-0.99
-1.24
-1.75
-2.46
-3.24
-4.02
-4.56
-4.70
-4.33
-3.48
-2.22
-0.75
0.66
1.79
2.39
2.47
2.09
1.39
0.52
-0.35
-1.09
-1.64
-1.91
-1.81
-1.18
0.08
1.94
4.24
6.69
8.83
10.24
10.66
9.98
8.32
5.89
3.01
0.12
-2.41
-4.29
-5.31
-5.43
-4.78
-3.63
-2.33
-1.07
0.08
1.08
1.88
2.45
2.77
2.90
2.91
2.78
2.62
2.39
2.02
1.24
-0.38
-3.40
-8.45
-16.03
-26.69
-40.52
-57.13
-75.46
-93.84
-110.15
-122.19
-128.26
-127.17
-118.65
-103.23
-82.29
-57.71
-31.58
-5.92
17.63
37.84
54.03
66.01
73.97
78.19
79.04
77.39
74.23
70.70
67.62
65.53
64.63
64.84
65.27
64.73
62.74
59.58
56.15
53.32
51.76
51.80
53.50
55.53
56.06
54.22
50.72
47.20
45.36
46.09
49.66
55.80
61.81
64.49
62.12
55.25
45.75
35.50
25.18
14.72
3.59
-12.27
-37.82
-76.66
-129.28
-193.53
-265.86
-342.57
-419.96
-475.68
-489.93
-455.42
-383.41
-294.74
-206.54
-127.20
-59.03
-1.50
46.72
83.91
108.14
119.34
120.23
115.08
108.03
101.80
98.50
99.94
104.77
110.66
115.76
119.64
122.96
126.43
129.89
132.52
134.09
131.99
125.14
115.41
107.57
107.21
117.65
138.08
164.30
191.05
213.21
228.80
238.30
242.76
241.57
232.02
210.82
177.11
134.58
89.63
50.12
21.90
6.65
2.01
3.56
6.85
9.10
14.40
25.07
42.55
66.36
93.78
120.51
141.73
153.25
152.38
138.19
110.34
69.62
17.31
-45.15
-115.99
-192.75
-272.22
-351.05
-426.37
-496.90
-561.45
-617.98
-662.57
-689.54
-693.24
-670.53
-622.98
-556.76
-481.08
-404.29
-331.36
-263.60
-200.23
-140.89
-87.11
-41.91
-7.82
14.81
28.64
38.19
47.88
60.54
76.98
96.56
118.30
141.69
166.52
192.40
218.19
241.60
259.85
270.38
271.81
264.54
250.70
233.53
216.14
200.67
187.63
176.26
165.51
154.86
144.82
136.53
130.94
128.03
126.89
125.98
123.99
120.27
114.89
108.30
100.97
93.16
85.08
77.12
69.83
63.76
59.21
55.99
53.50
50.88
47.42
42.76
36.95
30.40
23.53
16.59
9.52
2.19
-5.33
-12.49
-18.20
-21.23
-20.75
-16.82
-10.39
-2.86
4.62
11.60
18.25
24.99
31.90
38.47
43.76
46.75
46.87
44.09
38.87
31.95
24.06
15.75
7.32
-1.14
-9.80
-18.69
-27.74
-36.49
-44.22
-50.11
-53.50
-54.07
-51.88
-47.32
-40.97
-33.51
-25.63
-18.02
-11.37
-6.26
-3.05
-1.78
-2.06
-3.20
-4.46
-5.21
-5.26
-4.79
-4.26
-3.95
-3.96
-4.07
-4.02
-3.93
-4.00
-4.57
-5.74
-7.49
-9.35
-10.69
-11.10
-10.86
-11.09
-12.81
-16.45
-21.30
-26.09
-29.32
-29.89
-27.67
-23.67
-19.76
-17.34
-16.78
-16.82
-15.59
-10.35
2.14
24.52
57.35
97.69
139.56
175.28
198.11
202.83
189.53
164.68
138.64
120.76
115.15
120.10
129.64
136.57
131.20
108.11
69.26
23.16
-19.95
-52.51
-70.65
-74.00
-64.89
-54.13
-51.65
-61.18
-79.09
-99.16
-117.32
-132.33
-145.50
-160.24
-189.90
-245.49
-329.57
-434.43
-548.66
-663.46
-773.33
-875.13
-910.80
-842.07
-677.60
-469.84
-268.86
-97.08
43.24
157.53
251.79
330.67
388.74
424.53
441.63
448.48
452.92
457.59
460.72
458.78
448.72
412.59
349.17
267.34
182.05
106.87
49.07
9.96
-12.94
-23.81
-30.90
-39.43
-51.35
-64.12
-73.83
-78.39
-77.87
-73.81
-68.27
-64.68
-64.35
-67.80
-73.97
-81.08
-87.23
-89.80
-85.32
-70.58
-45.09
-11.04
25.93
59.03
83.00
95.72
98.50
94.70
87.87
80.45
73.84
68.44
64.68
63.16
64.35
67.64
71.52
73.98
73.71
70.56
65.49
60.10
56.02
54.46
55.17
55.63
51.11
35.91
5.61
-40.42
-98.17
-158.61
-210.48
-244.33
-255.49
-244.77
-216.58
-176.46
-129.09
-76.56
-23.01
27.60
72.25
107.06
129.20
138.09
135.62
125.22
110.85
95.69
81.88
70.04
59.27
48.26
35.85
21.77
6.30
-9.62
-24.90
-38.54
-50.00
-59.45
-67.42
-74.58
-80.81
-85.57
-87.51
-85.31
-78.21
-66.39
-51.29
-35.04
-19.98
-7.27
2.09
7.40
8.21
5.08
-0.03
-3.76
-2.58
5.64
21.12
38.51
49.46
46.52
26.36
-8.96
-53.39
-99.86
-143.30
-178.78
-203.60
-215.72
-213.19
-194.73
-160.46
-112.54
-55.27
6.67
70.19
131.13
185.61
231.20
267.35
295.04
315.69
329.88
323.99
293.63
238.62
163.06
74.54
-17.53
-103.81
-176.54
-235.18
-279.73
-308.27
-320.30
-316.36
-297.85
-266.79
-225.04
-173.41
-115.08
-53.63
8.17
66.31
116.78
156.41
183.62
198.63
203.02
199.08
190.33
181.57
176.64
177.76
184.42
192.60
195.34
184.86
155.66
107.44
45.79
-20.37
-81.69
-130.98
-164.80
-183.24
-187.95
-180.84
-163.95
-140.43
-115.53
-96.54
-90.37
-101.63
-130.55
-170.34
-208.07
-229.95
-226.65
-196.79
-147.31
-88.83
-32.44
12.69
44.24
66.19
82.92
96.67
107.52
114.97
122.23
132.91
146.74
163.38
183.73
207.16
233.31
263.37
299.24
344.29
396.56
445.06
478.80
492.36
483.65
455.09
412.41
344.96
252.50
163.26
85.55
4.89
-79.82
-162.00
-230.15
-273.99
-290.01
-279.07
-249.29
-214.04
-180.79
-148.63
-114.71
-77.14
-37.01
1.88
40.44
76.19
104.16
122.50
133.07
136.22
130.52
113.37
78.15
29.05
-27.51
-86.11
-140.57
-184.65
-215.21
-232.27
-238.44
-237.66
-233.02
-228.21
-225.62
-223.57
-216.25
-197.15
-162.43
-113.54
-57.16
-2.71
40.13
66.04
75.88
75.46
71.63
68.82
67.99
67.99
67.73
67.07
66.88
67.12
65.53
57.84
39.72
9.10
-31.69
-76.96
-119.65
-153.79
-176.31
-187.28
-188.72
-183.60
-176.81
-170.04
-165.09
-163.34
-165.31
-169.86
-173.91
-172.43
-159.74
-131.06
-84.63
-24.77
38.33
90.77
119.91
120.24
96.81
63.55
37.46
31.02
46.21
74.59
102.17
115.89
109.16
84.28
49.14
12.32
-20.85
-49.84
-76.07
-99.86
-119.44
-131.77
-134.41
-127.60
-114.41
-99.37
-86.88
-78.63
-73.09
-66.12
-52.35
-27.19
11.46
62.79
123.47
188.20
251.37
308.06
354.62
388.99
410.61
419.78
417.39
404.46
381.40
348.30
305.54
254.25
196.96
137.55
80.68
29.73
-11.39
-40.13
-55.77
-59.97
-57.02
-53.25
-55.76
-70.06
-97.72
-135.09
-174.77
-208.02
-228.30
-233.63
-226.71
-213.30
-199.08
-186.90
-175.70
-161.95
-141.74
-113.30
-78.26
-40.69
-5.52
23.96
47.84
69.67
94.65
127.39
169.69
217.82
265.05
302.76
323.70
324.40
306.40
275.18
237.89
200.38
165.58
133.98
104.74
77.61
53.59
34.37
20.83
12.07
5.40
-2.32
-12.88
-26.01
-39.53
-50.42
-56.32
-56.71
-53.06
-48.15
-45.04
-45.70
-50.63
-58.80
-68.28
-77.12
-83.97
-88.43
-90.70
-91.32
-90.48
-88.00
-83.28
-75.62
-64.59
-50.19
-32.89
-13.45
7.38
29.07
51.12
73.33
95.55
117.54
138.83
158.64
176.08
190.20
200.36
206.07
207.30
204.46
198.24
189.45
178.83
167.00
154.44
141.57
128.27
114.53
100.48
86.31
71.99
57.21
41.44
24.18
5.20
-16.61
-41.38
-68.27
-95.81
-122.69
-148.24
-172.49
-195.86
-218.58
-243.16
-270.64
-300.22
-330.11
-358.52
-384.77
-409.46
-433.80
-458.63
-488.35
-525.11
-567.85
-613.71
-659.23
-701.80
-740.38
-775.34
-807.78
-844.64
-889.91
-941.45
-991.69
-1029.46
-1044.19
-1030.28
-989.59
-895.28
-742.71
-545.55
-330.55
-127.73
41.57
168.85
255.50
307.87
334.46
338.91
320.68
288.40
251.40
217.13
189.50
168.76
152.64
138.26
119.06
91.24
55.48
15.84
-23.21
-57.57
-84.13
-100.57
-104.77
-97.59
-79.34
-49.08
-6.44
47.89
111.83
181.61
252.56
320.04
378.77
424.99
457.31
475.77
481.43
476.08
461.68
440.26
413.83
383.88
351.83
319.32
287.75
258.15
231.19
207.19
186.12
167.71
151.58
137.33
124.58
112.98
102.15
91.83
81.89
72.22
62.88
53.89
45.33
37.27
29.76
22.83
16.49
10.72
5.39
0.46
-4.23
-8.80
-13.39
-18.09
-22.97
-28.02
-33.20
-38.40
-43.40
-48.03
-52.04
-55.27
-57.54
-58.79
-59.01
-58.30
-56.87
-54.90
-52.64
-50.29
-48.02
-45.97
-44.18
-42.64
-41.24
-39.93
-38.62
-37.28
-35.91
-34.52
-33.26
-32.29
-31.78
-31.87
-32.66
-34.13
-36.16
-38.48
-40.71
-42.51
-43.56
-43.60
-42.52
-40.38
-37.35
-33.63
-29.48
-25.06
-20.55
-16.09
-11.82
-7.80
-4.13
-0.80
2.32
5.44
8.91
13.01
17.98
23.78
30.22
36.96
43.65
50.24
56.77
63.64
71.18
79.62
88.82
98.36
107.58
115.99
123.43
130.19
137.05
144.81
154.08
164.95
177.02
189.66
202.26
214.59
226.82
239.60
253.75
270.23
289.91
313.19
339.49
366.65
390.94
407.81
413.39
405.84
386.08
357.55
324.81
291.97
261.59
234.49
210.38
188.74
169.36
152.25
137.43
124.46
112.54
100.82
88.79
76.51
64.55
53.77
44.74
37.57
31.77
26.46
20.83
14.47
7.48
0.48
-5.79
-10.74
-14.17
-16.31
-17.61
-18.48
-19.18
-19.77
-20.20
-20.42
-20.48
-20.46
-20.50
-20.70
-21.07
-21.56
-22.13
-22.62
-22.95
-23.01
-22.72
-22.12
-21.32
-20.40
-19.57
-18.98
-18.71
-18.74
-18.97
-19.20
-19.27
-19.07
-18.55
-17.78
-16.99
-16.32
-15.95
-15.90
-16.13
-16.54
-17.09
-17.82
-18.80
-20.07
-21.56
-23.08
-24.31
-25.05
-25.17
-24.66
-23.62
-22.15
-20.41
-18.58
-16.92
-15.65
-14.94
-14.79
-14.99
-15.29
-15.41
-15.22
-14.74
-14.05
-13.27
-12.37
-11.40
-10.36
-9.37
-8.51
-8.00
-7.89
-8.23
-8.96
-9.92
-10.96
-11.87
-12.56
-12.90
-12.94
-12.88
-12.86
-12.97
-13.15
-13.30
-13.24
-12.94
-12.50
-12.13
-11.99
-12.14
-12.52
-12.92
-13.18
-13.13
-12.69
-11.95
-11.01
-10.05
-9.20
-8.61
-8.25
-8.09
-8.05
-8.06
-8.13
-8.23
-8.34
-8.40
-8.39
-8.23
-7.95
-7.66
-7.44
-7.35
-7.33
-7.33
-7.25
-7.11
-6.91
-6.74
-6.68
-6.69
-6.76
-6.79
-6.80
-6.83
-6.99
-7.33
-7.90
-8.60
-9.27
-9.80
-10.04
-10.02
-9.82
-9.61
-9.50
-9.56
-9.76
-10.00
-10.22
-10.38
-10.47
-10.51
-10.50
-10.45
-10.37
-10.31
-10.32
-10.41
-10.50
-10.45
-10.07
-9.26
-8.02
-6.49
-4.94
-3.63
-2.73
-2.26
-2.16
-2.35
-2.65
-2.99
-3.28
-3.52
-3.67
-3.78
-3.91
-4.14
-4.55
-5.13
-5.81
-6.44
-6.92
-7.14
-7.09
-6.78
-6.29
-5.78
-5.45
-5.46
-5.89
-6.74
-7.81
-8.87
-9.67
-10.01
-9.85
-9.38
-8.82
-8.35
-8.05
-7.80
-7.45
-6.86
-5.96
-4.87
-3.72
-2.63
-1.67
-0.90
-0.33
-0.04
-0.12
-0.54
-1.25
-2.13
-2.99
-3.75
-4.36
-4.81
-5.08
-5.16
-4.93
-4.40
-3.61
-2.64
-1.68
-0.87
-0.34
-0.09
-0.11
-0.28
-0.49
-0.67
-0.81
-0.99
-1.39
-2.09
-3.16
-4.53
-5.99
-7.33
-8.41
-9.18
-9.65
-9.96
-10.23
-10.53
-10.86
-11.12
-11.20
-11.05
-10.67
-10.04
-9.25
-8.26
-7.11
-5.80
-4.41
-3.07
-1.99
-1.28
-0.94
-0.90
-0.93
-0.91
-0.69
-0.24
0.42
1.17
1.99
2.88
3.79
4.81
5.89
6.96
8.02
9.02
9.94
10.95
12.18
13.68
15.47
17.38
19.13
20.60
21.84
23.11
24.84
27.35
30.68
34.56
38.45
41.73
44.18
45.95
47.71
50.26
54.22
59.82
66.77
74.36
81.88
88.98
95.81
103.29
112.79
125.70
142.86
163.80
186.15
205.70
216.72
213.13
190.02
144.97
79.14
-2.25
-90.47
-174.85
-244.79
-292.21
-312.98
-307.01
-277.23
-227.93
-163.36
-87.33
-3.59
83.87
170.74
253.30
329.13
397.36
457.54
507.97
544.62
561.74
554.06
519.59
460.93
384.66
298.61
208.98
118.89
28.80
-61.30
-150.13
-234.59
-310.87
-376.00
-428.87
-469.83
-499.59
-518.46
-526.59
-525.12
-517.08
-507.40
-501.33
-502.24
-509.83
-520.14
-527.15
-525.57
-512.93
-490.06
-460.37
-427.60
-394.11
-360.24
-325.23
-288.79
-252.35
-219.45
-194.11
-179.62
-176.73
-183.07
-193.82
-203.31
-206.82
-201.69
-187.92
-166.36
-138.10
-103.26
-61.18
-11.41
44.81
104.13
162.29
216.03
266.39
316.85
371.60
432.72
498.79
566.19
631.43
693.02
751.12
807.66
861.22
907.16
939.00
951.34
942.68
915.60
874.81
824.29
768.50
708.82
646.07
581.21
515.71
451.48
390.49
334.28
267.15
180.36
70.93
-54.55
-182.18
-295.87
-382.95
-437.87
-462.39
-463.65
-444.32
-412.77
-376.47
-341.75
-313.58
-295.34
-288.21
-290.96
-300.28
-309.59
-315.34
-314.19
-306.05
-293.60
-280.39
-268.62
-258.45
-249.45
-241.28
-237.31
-242.78
-263.18
-299.96
-348.55
-399.54
-442.16
-468.89
-476.97
-468.69
-448.32
-420.39
-387.51
-350.58
-309.56
-264.21
-213.98
-157.56
-94.14
-22.95
50.33
114.77
157.47
169.39
149.39
104.04
44.07
-20.19
-81.10
-136.34
-184.31
-222.31
-246.86
-255.21
-247.06
-224.97
-193.52
-157.14
-120.20
-84.92
-51.33
-18.08
16.20
52.01
88.81
125.25
159.63
189.61
213.03
227.70
231.86
224.82
207.64
183.15
155.21
127.36
101.44
77.91
56.19
35.61
16.14
-1.70
-17.29
-30.55
-42.15
-53.23
-64.49
-75.87
-86.53
-95.20
-100.82
-102.71
-100.57
-94.20
-83.32
-67.35
-45.74
-18.30
14.53
51.29
89.67
126.71
159.33
184.90
201.98
210.55
212.08
208.96
203.69
198.37
194.18
191.37
189.56
188.19
186.78
185.04
182.83
180.08
176.93
173.88
171.44
170.22
170.73
173.32
177.98
184.26
191.38
198.61
205.66
212.36
218.76
225.02
231.21
237.03
241.61
243.19
239.42
227.56
204.35
166.86
113.36
44.45
-36.91
-125.67
-216.13
-303.52
-380.50
-439.42
-474.11
-482.07
-465.07
-428.67
-380.01
-326.20
-272.10
-219.52
-168.47
-117.81
-66.77
-15.66
33.55
79.42
118.82
148.82
167.69
174.31
168.40
149.77
118.55
75.06
20.74
-42.79
-112.97
-186.21
-258.41
-324.84
-380.57
-417.43
-430.08
-412.93
-368.78
-308.25
-246.51
-197.69
-169.40
-162.76
-170.72
-185.34
-200.64
-213.48
-221.94
-223.09
-214.96
-196.81
-169.72
-135.97
-98.98
-61.70
-25.83
9.12
45.01
83.82
126.56
172.87
221.27
269.27
314.86
356.72
394.77
430.16
464.72
500.05
536.60
572.63
603.54
623.07
625.03
605.65
564.90
505.83
432.13
346.26
249.06
140.77
23.31
-98.54
-217.54
-325.52
-412.78
-471.73
-499.04
-496.40
-469.26
-424.67
-369.63
-310.22
-251.42
-197.37
-151.49
-115.97
-91.21
-75.68
-66.50
-60.46
-55.15
-49.43
-43.37
-38.07
-34.75
-33.83
-34.67
-35.85
-35.99
-34.62
-32.15
-29.76
-28.89
-30.41
-34.05
-38.52
-42.32
-44.25
-44.24
-42.94
-41.44
-40.83
-42.10
-45.85
-52.01
-59.24
-64.35
-63.03
-50.86
-25.90
9.76
50.01
87.15
114.99
131.28
139.44
142.69
144.31
145.43
145.08
141.21
132.51
119.10
102.29
83.85
64.30
43.78
22.27
0.35
-20.23
-36.64
-45.84
-45.53
-34.70
-15.02
10.35
37.38
62.24
82.18
95.96
103.47
102.70
94.98
80.52
59.08
30.41
-5.02
-45.31
-87.09
-125.99
-157.81
-178.86
-186.83
-180.58
-160.28
-127.79
-86.82
-42.54
-0.56
34.57
60.89
78.36
88.20
91.15
86.13
70.75
42.74
2.18
-47.04
-97.20
-139.59
-167.04
-176.39
-169.18
-150.03
-124.85
-98.59
-74.13
-52.04
-32.20
-14.62
0.02
10.75
17.25
20.11
19.10
15.23
10.56
7.64
9.76
20.78
44.39
83.41
138.03
205.49
276.32
338.61
381.15
397.63
388.08
356.87
310.05
252.21
186.96
118.35
52.07
-4.69
-45.01
-64.40
-63.60
-46.47
-20.03
7.52
29.18
41.58
46.11
48.23
54.82
70.66
95.77
122.87
138.54
127.81
79.66
-8.14
-128.02
-265.12
-402.19
-518.54
-597.15
-628.68
-613.45
-559.72
-479.22
-383.86
-284.07
-188.72
-104.94
-38.44
8.08
35.62
48.49
53.11
55.46
59.29
65.66
73.53
80.20
83.31
81.84
76.65
70.01
64.32
61.08
60.49
61.68
62.97
62.79
60.35
55.88
50.51
45.54
41.87
39.68
38.70
38.19
37.41
36.01
34.11
32.35
31.63
32.70
36.03
41.83
49.84
59.50
70.03
80.47
89.83
97.40
102.23
103.58
100.95
94.17
83.48
69.53
53.21
35.71
18.33
2.28
-11.39
-21.95
-29.11
-32.87
-33.51
-31.76
-28.39
-24.08
-19.45
-14.94
-10.85
-7.43
-4.76
-2.64
-1.14
0.02
1.28
3.07
5.81
9.70
14.57
20.01
25.54
30.12
33.24
34.73
34.70
33.50
31.45
28.73
25.42
21.61
16.85
11.22
5.00
-1.58
-8.51
-16.25
-25.87
-39.14
-53.43
-68.76
-85.90
-106.01
-129.89
-156.80
-183.93
-206.56
-219.54
-219.14
-205.17
-180.03
-147.92
-113.40
-80.14
-50.42
-25.35
-5.11
10.73
22.62
31.96
40.60
50.58
63.03
77.55
91.95
102.92
106.98
101.71
87.33
66.61
43.84
22.91
5.77
-7.81
-18.90
-27.83
-33.53
-33.83
-27.28
-14.77
0.14
12.39
17.53
13.70
1.90
-14.82
-32.78
-49.25
-62.96
-73.99
-83.20
-91.70
-100.60
-110.80
-122.58
-135.20
-146.77
-154.38
-155.21
-147.71
-132.66
-113.35
-95.02
-83.27
-82.37
-93.38
-113.56
-136.62
-154.97
-162.28
-156.54
-141.31
-124.89
-117.27
-126.15
-153.90
-197.02
-247.51
-295.72
-333.20
-353.93
-355.08
-336.79
-302.10
-256.29
-205.87
-156.86
-113.37
-77.05
-47.14
-21.87
0.53
21.08
40.33
58.55
76.46
94.30
111.41
126.31
137.71
145.35
150.69
156.52
165.81
181.71
205.17
234.31
265.35
294.66
320.34
342.97
364.96
389.27
420.26
459.53
504.82
550.85
591.80
623.54
644.41
654.78
656.49
655.95
658.58
666.75
678.95
690.82
696.52
689.72
665.25
621.20
565.06
506.65
453.93
409.99
373.58
341.09
308.28
272.38
203.12
90.01
-55.53
-204.53
-328.42
-412.40
-455.74
-466.17
-453.45
-425.60
-385.29
-335.72
-282.79
-235.71
-203.77
-193.45
-208.57
-249.47
-314.53
-393.64
-475.41
-549.78
-609.78
-650.70
-669.40
-665.97
-641.66
-599.48
-541.72
-473.42
-402.60
-338.66
-288.76
-245.63
-203.14
-155.55
-101.38
-43.31
12.11
57.62
88.53
104.67
110.22
108.89
103.88
96.55
87.60
77.64
67.71
59.17
52.39
46.61
38.15
23.67
1.31
-27.73
-60.34
-91.24
-114.91
-127.67
-128.57
-119.82
-104.28
-84.13
-59.65
-28.89
7.84
49.17
91.78
130.68
160.08
176.21
178.66
170.78
158.48
147.29
141.22
141.08
145.12
150.33
153.50
151.33
140.62
119.11
87.43
51.61
21.87
8.93
18.09
45.94
80.13
105.53
110.75
93.21
60.08
23.09
-7.85
-29.70
-45.97
-62.58
-82.17
-100.86
-111.58
-105.89
-80.77
-40.60
3.86
39.43
55.69
48.03
18.29
-26.71
-77.45
-124.95
-160.28
-178.40
-179.21
-165.92
-143.01
-114.61
-83.88
-52.96
-24.11
0.05
16.64
24.07
23.30
17.65
11.66
9.34
12.89
22.14
35.25
49.55
63.11
75.52
87.54
100.23
114.48
129.30
142.54
151.42
153.30
146.59
131.28
108.88
81.39
52.45
24.70
-0.00
-20.67
-37.04
-49.34
-57.96
-63.26
-65.62
-65.46
-63.52
-60.53
-57.12
-53.75
-50.82
-48.49
-46.58
-44.86
-43.08
-41.32
-39.68
-38.42
-37.68
-37.83
-39.13
-41.56
-45.08
-49.41
-54.18
-58.91
-63.77
-67.34
-68.90
-67.85
-63.85
-57.00
-47.84
-37.29
-26.66
-17.22
-9.88
-5.39
-3.75
-4.39
-6.42
-8.95
-11.22
-13.06
-14.44
-15.43
-16.22
-16.65
-16.49
-15.46
-13.58
-11.38
-9.90
-10.20
-13.10
-18.86
-26.97
-36.50
-46.39
-55.89
-64.80
-73.48
-82.14
-91.11
-100.82
-111.59
-123.31
-134.88
-143.69
-146.07
-138.54
-119.12
-89.06
-53.05
-17.53
11.58
30.94
40.44
42.20
39.01
33.45
26.68
18.90
10.27
1.65
-5.47
-9.45
-8.95
-6.08
-1.52
4.01
9.85
15.61
21.40
27.89
35.90
46.14
58.73
74.52
93.08
112.67
130.88
145.51
155.70
161.77
165.43
168.52
174.32
184.35
197.79
212.36
225.42
235.67
243.05
248.90
254.54
263.28
277.40
297.36
321.78
347.20
368.89
380.98
379.16
348.65
287.13
206.79
129.63
75.59
52.30
58.28
81.21
110.90
141.11
170.87
199.91
222.57
233.04
226.42
201.16
159.10
105.63
47.15
-9.26
-59.23
-102.08
-139.61
-174.74
-209.29
-243.43
-275.14
-301.89
-320.87
-331.05
-333.90
-332.21
-329.29
-327.24
-326.43
-325.39
-322.10
-314.81
-303.28
-289.34
-275.79
-265.71
-261.43
-264.27
-274.67
-292.36
-315.80
-341.37
-363.35
-374.99
-371.36
-351.94
-321.36
-287.20
-256.05
-230.08
-206.17
-178.83
-144.38
-104.37
-64.77
-32.07
-9.11
6.17
18.24
30.21
41.71
50.21
53.24
51.43
49.19
52.35
64.79
86.08
112.04
137.42
158.70
173.87
182.00
183.13
178.49
171.07
164.98
163.96
169.77
181.06
191.68
192.54
175.22
134.97
72.34
-7.91
-98.67
-192.26
-270.74
-315.29
-314.42
-271.24
-201.15
-121.37
-43.67
26.85
88.78
142.18
184.61
212.23
224.03
220.51
205.32
184.30
163.31
146.49
135.91
129.75
123.89
113.90
96.74
71.81
38.34
-3.22
-51.63
-102.61
-148.09
-179.21
-191.61
-188.50
-178.18
-169.67
-168.49
-176.86
-190.05
-203.59
-215.76
-227.26
-239.77
-253.56
-267.17
-276.50
-278.96
-273.27
-260.38
-242.66
-223.01
-203.29
-183.55
-162.68
-139.21
-112.74
-83.98
-55.33
-30.13
-11.76
-2.75
-3.83
-14.25
-32.04
-54.94
-80.20
-105.52
-128.64
-147.48
-159.96
-164.08
-158.41
-142.46
-117.01
-83.87
-45.87
-6.32
31.50
64.91
92.10
112.10
124.73
130.24
129.23
122.43
110.69
94.85
75.77
54.50
32.06
9.65
-11.36
-29.71
-44.09
-53.40
-56.92
-54.47
-46.24
-33.13
-16.49
2.10
20.93
38.37
53.13
64.30
71.37
74.42
73.79
70.11
64.13
56.61
48.29
39.71
31.30
23.32
15.91
9.15
3.11
-2.17
-6.63
-10.13
-12.55
-13.71
-13.45
-11.74
-8.55
-3.94
1.86
8.46
15.44
22.27
28.46
33.57
37.19
39.17
39.53
38.48
36.30
33.48
30.40
27.51
25.12
23.24
21.87
20.75
19.70
18.50
17.08
15.42
13.72
12.23
11.06
10.36
10.08
10.12
10.40
10.89
11.59
12.76
14.60
17.27
20.91
25.46
30.86
37.04
44.07
52.01
61.02
71.13
82.07
93.46
104.68
115.13
124.56
133.05
141.10
149.34
158.35
168.23
178.80
189.50
199.71
209.29
218.49
228.05
239.07
252.86
270.43
292.46
318.59
347.18
375.18
398.55
413.03
415.55
405.08
382.97
352.46
317.47
281.51
247.17
215.91
188.35
164.64
144.44
126.93
110.89
94.92
77.79
59.06
39.04
18.71
-0.48
-17.26
-30.48
-39.40
-43.81
-44.18
-41.63
-37.67
-33.74
-30.71
-28.95
-28.31
-28.63
-29.89
-32.29
-36.02
-40.99
-46.69
-52.26
-56.81
-59.76
-61.19
-61.82
-62.80
-64.97
-68.47
-72.38
-75.03
-74.80
-70.81
-63.17
-52.56
-39.63
-24.31
-6.03
15.41
38.90
61.84
80.78
92.66
96.27
92.78
85.32
77.99
74.06
74.82
78.68
81.37
76.98
59.87
26.87
-21.27
-79.40
-139.35
-192.06
-230.13
-249.42
-249.54
-233.03
-203.87
-166.18
-123.13
-76.96
-29.25
18.39
64.16
106.23
143.18
174.25
199.28
218.62
232.56
241.04
243.38
238.63
226.19
206.42
181.02
152.87
125.45
101.78
83.38
69.95
59.70
50.37
40.34
28.76
15.35
-0.35
-19.39
-42.98
-71.55
-104.18
-138.82
-173.54
-208.10
-244.32
-284.67
-329.87
-376.66
-417.16
-440.97
-438.78
-405.68
-343.13
-258.15
-160.85
-61.75
30.33
109.10
170.42
212.11
233.90
237.51
226.67
206.56
182.53
158.91
138.29
121.11
106.23
91.95
76.99
60.99
44.77
29.78
17.48
8.93
4.22
2.71
3.36
4.98
6.34
6.45
4.73
1.24
-3.31
-7.95
-11.93
-15.08
-17.90
-20.96
-24.27
-27.03
-28.14
-26.87
-23.70
-19.99
-17.29
-16.65
-18.05
-20.75
-23.98
-27.62
-31.94
-37.44
-44.14
-51.31
-57.83
-62.51
-64.65
-64.22
-61.85
-58.42
-54.82
-51.54
