1681717717.00
64.000000
-0.00
-0.00
-0.00
-0.00
-0.00
-0.00
-0.00
-0.00
-0.00
-0.00
0.00
0.01
0.01
-0.00
-0.03
-0.05
-0.05
0.00
0.13
0.36
0.66
1.01
1.37
1.72
2.06
2.40
2.79
3.24
3.80
4.42
5.06
5.66
6.20
6.68
7.16
7.70
8.34
9.20
10.19
11.19
12.11
12.89
13.58
14.35
15.41
16.91
19.07
21.68
24.49
27.20
29.65
31.91
34.29
37.22
41.02
46.08
52.03
58.35
64.48
70.07
75.17
80.29
86.10
93.12
101.91
111.94
122.44
132.55
141.71
149.97
157.95
166.96
175.69
186.40
199.69
215.67
233.19
249.38
259.92
260.16
246.69
218.61
178.28
129.55
76.74
23.18
-29.51
-81.06
-131.61
-180.93
-228.21
-272.04
-311.50
-345.93
-374.70
-396.98
-411.57
-417.10
-412.31
-396.69
-370.57
-335.57
-294.86
-251.54
-208.23
-166.68
-127.87
-92.10
-59.37
-29.59
-2.87
20.53
40.53
57.20
70.81
81.76
90.51
97.51
103.06
107.26
110.08
111.52
111.57
110.68
109.20
107.32
105.17
102.71
99.86
96.49
92.58
88.18
83.39
78.31
73.06
67.77
62.55
57.49
52.62
47.98
43.60
39.44
35.44
31.53
27.69
23.93
20.27
16.79
13.52
10.54
7.87
5.47
3.30
1.31
-0.53
-2.25
-3.80
-5.20
-6.37
-7.27
-7.90
-8.27
-8.44
-8.47
-8.48
-8.50
-8.63
-8.88
-9.24
-9.69
-10.17
-10.66
-11.09
-11.49
-11.90
-12.37
-12.95
-13.67
-14.52
-15.45
-16.37
-17.12
-17.57
-17.60
-17.12
-16.12
-14.63
-12.80
-10.76
-8.71
-6.84
-5.30
-4.20
-3.57
-3.41
-3.64
-4.21
-5.01
-5.94
-6.94
-7.96
-8.97
-9.97
-10.99
-12.03
-13.13
-14.29
-15.51
-16.74
-17.94
-19.01
-19.85
-20.39
-20.53
-20.24
-19.51
-18.36
-16.86
-15.10
-13.19
-11.18
-9.19
-7.25
-5.40
-3.66
-2.05
-0.59
0.67
1.62
2.18
2.24
1.70
0.54
-1.26
-3.61
-6.43
-9.51
-12.68
-15.76
-18.58
-21.00
-22.91
-24.26
-24.99
-25.14
-24.70
-23.70
-22.20
-20.22
-17.85
-15.13
-12.16
-8.99
-5.70
-2.39
0.94
4.25
7.57
10.92
14.36
17.85
21.33
24.69
27.77
30.50
32.81
34.79
36.55
38.34
40.38
42.83
45.81
49.35
53.47
58.12
63.37
69.25
75.78
82.97
90.61
98.43
105.93
112.71
118.38
122.87
126.28
128.81
130.60
131.49
131.12
128.84
124.23
117.10
107.77
97.02
85.72
74.57
63.60
52.33
39.72
24.93
7.62
-11.73
-31.90
-51.59
-69.68
-86.17
-101.63
-117.43
-134.84
-154.84
-178.04
-204.16
-232.34
-260.23
-284.74
-302.20
-310.18
-308.50
-299.47
-287.04
-274.27
-262.19
-248.70
-230.75
-206.29
-176.45
-145.76
-120.13
-104.62
-100.55
-105.71
-114.83
-122.24
-123.46
-116.37
-101.89
-82.63
-63.03
-46.96
-37.45
-34.95
-37.41
-41.03
-41.36
-35.79
-23.58
-7.10
10.31
24.85
34.12
37.68
36.62
33.74
31.49
32.19
36.10
42.03
47.40
49.48
47.09
40.60
32.87
26.97
25.67
29.42
36.52
43.90
48.02
47.18
40.84
30.67
18.76
7.45
-1.54
-7.18
-8.47
-5.15
3.14
15.21
28.88
40.39
45.75
42.28
29.53
10.65
-9.44
-24.53
-30.28
-25.01
-10.62
7.99
25.17
35.57
36.75
28.65
14.21
-2.43
-16.87
-25.36
-26.24
-19.41
-7.38
6.42
17.74
23.52
22.73
16.67
9.00
3.47
3.50
9.88
21.44
35.09
47.04
54.02
53.38
44.57
28.18
7.10
-14.71
-32.49
-41.91
-40.92
-29.96
-13.05
4.45
16.63
19.93
13.92
1.54
-11.73
-20.56
-20.70
-11.52
4.78
23.23
38.27
45.77
44.31
36.40
26.64
20.61
21.43
28.96
39.49
47.57
49.01
41.74
27.61
10.17
-5.85
-16.95
-21.43
-19.57
-13.60
-6.22
-0.85
0.35
-3.78
-12.37
-23.03
-32.45
-37.26
-35.77
-27.51
-14.45
0.58
13.89
22.31
24.19
19.52
10.90
1.91
-3.03
-1.13
8.27
22.85
37.84
48.31
49.96
41.81
25.35
5.03
-13.97
-26.90
-30.78
-25.72
-13.90
-0.06
11.10
15.50
11.59
0.66
-13.70
-26.29
-32.77
-29.93
-17.74
1.53
23.24
41.71
52.27
52.00
41.84
25.29
8.26
-3.92
-7.83
-3.34
6.31
16.64
22.67
21.75
13.26
-0.55
-15.95
-28.73
-35.26
-34.38
-26.85
-16.24
-6.63
-1.81
-3.38
-10.20
-18.96
-24.99
-25.06
-17.55
-4.24
11.30
24.54
31.71
31.66
25.31
16.22
7.95
3.77
4.85
10.64
19.35
28.31
35.43
38.42
36.23
28.20
15.22
-0.56
-15.85
-26.64
-30.19
-25.06
-12.68
4.01
20.88
34.15
41.16
40.38
32.26
17.92
0.12
-18.15
-33.27
-42.07
-42.80
-35.41
-22.73
-8.72
1.52
4.55
-0.86
-12.72
-26.51
-37.09
-39.92
-33.63
-19.31
-0.92
16.84
29.73
35.10
32.96
24.95
14.81
6.03
1.72
3.15
9.75
19.58
29.32
36.18
37.37
31.92
19.91
3.27
-14.76
-30.38
-39.64
-40.51
-32.50
-17.85
0.04
17.06
29.71
35.82
34.17
25.42
10.85
-6.34
-22.44
-33.30
-35.79
-29.21
-15.13
2.00
17.42
26.53
27.15
19.43
5.98
-8.79
-20.53
-25.13
-21.13
-9.08
7.59
24.14
35.82
39.25
34.15
22.50
8.80
-2.45
-7.46
-4.88
4.00
15.94
26.01
30.26
25.98
13.74
-3.50
-20.83
-33.27
-37.71
-33.10
-21.57
-6.41
7.96
18.08
21.59
17.77
8.05
-4.97
-16.90
-23.69
-22.01
-11.38
5.75
24.45
38.46
43.18
36.28
19.79
-1.62
-21.45
-34.15
-36.92
-30.18
-18.03
-5.59
1.80
1.49
-6.50
-19.12
-31.57
-39.26
-38.58
-28.94
-11.90
8.32
26.84
39.15
42.48
37.17
25.68
12.83
3.23
0.59
5.86
17.22
30.73
41.10
44.25
37.76
22.76
2.77
-16.71
-30.52
-35.52
-31.18
-20.42
-7.39
2.94
7.42
4.99
-2.93
-13.00
-21.75
-25.82
-23.88
-15.89
-3.83
9.49
20.94
27.68
28.34
22.41
11.35
-2.75
-16.75
-27.69
-33.14
-31.61
-23.43
-9.90
5.85
20.64
31.00
34.65
30.83
20.39
6.37
-7.53
-16.79
-18.58
-11.95
1.03
15.99
27.98
32.69
28.94
17.98
3.75
-9.48
-18.11
-20.32
-16.46
-8.13
1.43
9.25
12.37
9.74
2.16
-7.63
-15.86
-19.71
-17.62
-10.76
-1.30
7.94
14.88
18.43
17.99
13.76
5.70
-4.95
-16.59
-26.49
-31.92
-31.10
-23.48
-10.83
4.34
18.52
29.27
34.90
34.99
30.02
20.69
8.65
-4.43
-15.76
-22.80
-23.33
-16.78
-4.87
8.94
19.66
23.55
18.50
6.02
-10.05
-24.43
-32.38
-31.76
-22.79
-8.83
6.25
18.35
25.04
25.42
19.95
10.50
-0.70
-10.22
-15.10
-12.77
-2.94
12.11
27.91
38.77
40.79
32.56
16.96
-0.92
-15.03
-21.17
-18.34
-8.47
3.81
14.02
18.33
15.54
6.49
-6.14
-18.80
-28.41
-32.22
-29.23
-19.26
-3.95
13.95
30.62
41.80
44.54
37.42
22.44
3.51
-13.86
-25.06
-27.69
-22.10
-11.54
0.10
8.58
11.70
8.66
0.55
-10.46
-21.79
-30.48
-34.43
-31.78
-22.51
-7.75
9.59
25.61
36.52
39.14
32.81
18.66
0.39
-17.55
-30.61
-35.52
-31.41
-19.34
-3.15
12.72
23.39
25.79
19.29
6.29
-8.22
-18.93
-21.22
-13.99
0.97
18.74
33.60
41.01
38.94
29.00
14.83
1.70
-6.39
-7.21
-1.40
7.94
16.82
21.13
19.19
11.19
0.11
-10.38
-16.94
-17.88
-14.13
-7.97
-2.96
-1.39
-4.43
-11.13
-19.36
-26.51
-30.00
-28.57
-21.57
-10.17
3.87
17.73
28.46
33.69
31.73
22.86
8.35
-8.67
-24.88
-36.62
-41.04
-36.91
-24.67
-7.49
10.33
23.32
27.54
21.41
7.01
-10.40
-24.49
-29.43
-23.18
-7.09
13.63
32.65
44.41
45.90
37.88
23.52
8.21
-3.45
-8.17
-5.44
2.87
13.38
21.79
24.98
20.91
10.24
-4.65
-19.68
-30.55
-34.22
-29.70
-19.37
-7.19
1.73
4.03
-1.09
-11.36
-22.39
-29.99
-30.94
-24.92
-13.23
0.96
14.18
23.32
26.12
22.33
13.01
1.56
-8.34
-12.93
-10.33
-1.12
11.93
24.17
31.49
30.57
20.95
4.27
-15.63
-33.84
-45.81
-48.07
-40.09
-23.37
-2.17
18.57
34.09
41.17
39.35
30.24
18.04
7.05
1.38
2.83
10.81
22.43
33.11
38.84
36.39
25.53
7.99
-12.20
-30.32
-42.15
-44.79
-38.27
-24.43
-7.63
7.67
17.37
19.28
13.51
2.03
-11.27
-22.63
-28.37
-26.79
-17.86
-3.55
12.68
27.12
35.79
36.54
28.47
13.39
-5.28
-22.95
-35.15
-39.14
-33.91
-21.13
-3.40
15.63
32.68
44.87
49.79
46.45
34.92
18.04
-0.11
-14.27
-20.49
-17.35
-6.67
6.65
17.26
20.23
13.92
-0.42
-18.44
-34.72
-44.60
-45.31
-37.68
-24.61
-11.08
-1.31
2.01
-1.22
-8.56
-16.62
-21.57
-21.51
-15.89
-6.45
4.14
12.80
16.59
14.03
4.61
-9.88
-26.78
-42.10
-52.27
-54.99
-50.06
-40.59
-31.09
-26.93
-31.30
-45.14
-65.78
-88.17
-106.69
-116.27
-115.40
-105.26
-90.17
-75.38
-66.47
-67.19
-78.19
-97.40
-119.71
-140.03
-153.78
-158.28
-152.94
-140.01
-123.00
-105.00
-87.76
-70.18
-50.57
-26.87
1.97
39.41
84.87
133.86
179.93
214.65
238.33
255.79
272.88
293.44
316.78
337.67
348.51
342.17
314.43
266.82
205.08
136.90
69.31
6.51
-50.13
-100.29
-142.84
-176.28
-199.01
-211.57
-216.74
-218.61
-221.15
-227.08
-237.09
-249.34
-260.98
-268.97
-271.49
-268.34
-260.25
-247.92
-231.42
-211.80
-186.60
-152.96
-108.64
-52.99
12.62
85.35
161.69
238.13
309.99
373.24
424.48
461.27
485.11
495.93
493.00
475.84
444.73
400.54
345.27
281.04
210.22
133.16
52.98
-26.68
-102.07
-170.00
-228.43
-276.01
-312.78
-339.42
-356.90
-366.49
-369.67
-368.65
-363.89
-355.19
-341.97
-324.19
-301.67
-274.18
-241.70
-204.70
-163.34
-117.68
-68.04
-14.75
41.12
98.85
158.19
218.85
277.05
329.55
373.34
405.62
428.77
442.77
446.96
440.89
424.34
397.56
362.12
320.18
274.21
226.99
180.48
134.71
91.04
51.00
15.79
-13.55
-36.78
-54.73
-69.01
-82.25
-97.06
-115.39
-138.86
-169.10
-206.23
-249.21
-296.12
-344.29
-390.61
-431.82
-464.59
-487.00
-497.51
-494.67
-477.46
-445.36
-398.57
-337.52
-263.16
-176.76
-80.63
22.57
129.80
237.71
342.70
441.25
530.67
608.45
672.58
721.42
754.00
770.00
769.68
753.66
718.49
662.91
587.39
494.56
388.86
276.06
162.13
52.16
-50.58
-144.63
-229.30
-304.55
-370.10
-425.21
-468.78
-500.06
-519.02
-526.61
-524.52
-513.76
-495.67
-469.83
-434.85
-388.89
-330.56
-259.09
-174.68
-79.07
24.00
127.24
220.72
293.87
338.77
352.84
340.02
309.01
269.80
230.18
193.75
160.61
129.21
99.49
71.68
46.52
24.48
5.31
-11.41
-25.74
-36.67
-42.56
-41.48
-32.54
-16.49
4.31
26.60
47.09
63.24
73.73
78.37
77.54
72.28
62.92
49.34
31.71
10.82
-12.08
-35.25
-56.75
-74.99
-89.10
-99.13
-106.62
-114.39
-125.95
-143.98
-168.74
-196.79
-221.96
-237.57
-236.97
-218.65
-185.62
-143.29
-97.42
-54.07
-17.31
8.98
21.29
18.13
1.90
-20.10
-37.19
-39.81
-23.73
8.53
48.97
87.85
116.73
130.24
126.42
105.89
71.39
27.97
-17.19
-56.77
-84.78
-99.27
-103.59
-104.41
-108.20
-118.78
-136.22
-157.42
-178.39
-195.81
-207.67
-212.87
-211.01
-199.75
-176.21
-138.96
-90.04
-36.17
12.41
45.64
57.76
50.82
34.40
21.28
21.93
40.77
75.63
120.38
168.19
212.91
250.51
278.10
293.32
294.41
282.17
259.06
230.36
201.69
176.31
153.99
131.26
105.45
73.93
36.65
-3.27
-40.61
-70.32
-89.53
-97.60
-96.16
-87.83
-74.31
-54.81
-27.02
10.25
53.96
96.59
128.83
143.89
141.30
127.08
110.18
99.33
98.70
106.28
115.47
119.00
112.14
95.48
71.84
45.56
21.99
6.80
4.56
17.47
43.57
76.37
106.44
124.48
125.41
109.81
82.74
49.98
15.14
-21.29
-60.25
-101.46
-141.72
-175.29
-196.53
-201.53
-191.64
-172.88
-153.32
-139.44
-133.52
-133.46
-134.64
-133.05
-127.21
-118.65
-109.96
-102.84
-96.88
-90.19
-81.01
-68.75
-54.66
-41.33
-31.63
-27.51
-29.22
-35.52
-44.67
-55.42
-67.52
-81.62
-98.53
-118.54
-140.87
-163.86
-185.58
-204.88
-221.87
-237.41
-252.61
-267.69
-281.35
-290.88
-293.03
-283.49
-258.03
-213.63
-149.82
-70.04
18.06
103.84
176.53
228.69
258.90
271.66
274.67
275.00
276.25
278.07
277.91
273.59
264.81
253.08
240.17
226.81
212.35
195.54
175.78
153.83
131.46
111.04
94.28
81.55
71.87
63.43
54.53
44.24
32.80
21.32
11.22
3.55
-1.50
-4.59
-6.86
-9.17
-12.17
-15.85
-19.65
-22.82
-24.82
-25.53
-25.28
-24.62
-24.10
-24.02
-24.36
-24.85
-25.15
-25.01
-24.36
-23.32
-22.08
-20.83
-19.70
-18.72
-17.85
-17.00
-16.14
-15.25
-14.36
-13.49
-12.65
-11.88
-11.17
-10.51
-9.90
-9.33
-8.80
-8.32
-7.86
-7.43
-7.05
-6.69
-6.37
-6.07
-5.79
-5.53
-5.28
-5.05
-4.83
-4.63
-4.44
-4.27
-4.10
-3.94
-3.79
-3.66
-3.52
-3.39
-3.28
-3.16
-3.05
-2.94
-2.84
-2.75
-2.65
-2.57
-2.48
-2.40
-2.33
-2.25
-2.18
-2.11
-2.05
-1.99
-1.93
-1.87
-1.81
-1.76
-1.71
-1.66
-1.61
-1.57
-1.52
-1.48
-1.44
-1.40
-1.36
-1.32
-1.29
-1.25
-1.22
-1.19
-1.16
-1.13
-1.10
-1.07
-1.05
-1.02
-0.99
-0.97
-0.95
-0.92
-0.90
-0.88
-0.87
-0.85
-0.81
-0.76
-0.68
-0.59
-0.50
-0.47
-0.49
-0.57
-0.67
-0.74
-0.74
-0.66
-0.51
-0.35
-0.25
-0.22
-0.28
-0.38
-0.43
-0.39
-0.22
0.03
0.28
0.42
0.37
0.17
-0.10
-0.25
-0.13
0.30
0.95
1.57
1.89
1.74
1.15
0.40
-0.10
0.04
0.93
2.35
3.75
4.53
4.31
3.15
1.59
0.48
0.49
1.92
4.32
6.75
8.19
7.98
6.23
3.78
1.96
1.69
3.39
6.53
9.93
12.39
12.84
10.51
4.75
-4.44
-16.05
-27.43
-34.84
-34.75
-25.74
-9.76
8.41
22.70
28.90
26.22
17.28
6.20
-3.53
-10.55
-15.46
-19.53
-23.41
-26.68
-28.39
-27.97
-25.90
-23.43
-21.96
-22.45
-24.86
-28.18
-31.05
-32.36
-31.72
-29.61
-27.04
-25.16
-24.71
-25.75
-27.75
-29.86
-31.35
-31.84
-31.42
-30.42
-29.29
-28.38
-27.66
-26.89
-25.76
-23.99
-21.53
-18.44
-14.76
-10.62
-6.01
-0.75
5.36
12.48
20.49
29.13
37.48
45.40
52.47
58.31
62.70
65.61
67.13
67.44
66.72
65.30
63.53
61.61
59.63
57.62
55.52
53.14
50.80
47.72
43.66
38.54
32.26
24.93
16.73
8.09
-0.60
-8.82
-16.26
-22.47
-27.15
-30.31
-32.06
-32.67
-32.48
-31.94
-31.43
-31.30
-31.64
-32.38
-33.43
-34.63
-35.78
-36.72
-37.42
-37.84
-38.04
-37.94
-37.47
-36.60
-35.40
-33.90
-32.23
-30.47
-28.79
-27.33
-25.95
-24.64
-23.51
-22.80
-22.86
-24.16
-27.10
-32.04
-39.13
-47.68
-56.94
-66.12
-74.61
-82.05
-88.45
-94.09
-99.41
-104.78
-109.65
-113.41
-115.52
-115.61
-113.51
-109.29
-102.70
-92.58
-81.51
-69.23
-54.76
-37.05
-15.59
9.30
36.43
64.30
91.40
116.64
140.31
162.85
184.91
207.20
230.59
255.83
282.90
310.08
333.58
348.73
350.86
337.39
308.97
269.54
224.70
179.90
138.90
103.71
75.84
56.80
48.43
52.05
67.02
89.84
114.47
133.86
142.24
136.85
118.26
89.80
56.11
21.81
-9.38
-35.21
-54.98
-69.26
-79.23
-85.93
-89.63
-89.78
-85.75
-77.74
-67.47
-57.41
-49.80
-45.78
-45.22
-47.81
-54.61
-67.98
-90.12
-120.98
-156.97
-191.67
-218.35
-232.63
-233.74
-224.06
-207.06
-185.40
-160.35
-132.59
-103.61
-76.50
-55.18
-42.79
-40.14
-45.19
-53.94
-62.31
-68.08
-71.66
-75.38
-81.68
-91.43
-102.84
-112.57
-117.66
-117.32
-113.50
-109.96
-110.27
-115.89
-125.55
-135.66
-141.91
-140.63
-129.58
-108.17
-77.26
-38.96
3.56
46.06
83.87
112.61
129.40
133.73
127.82
116.00
103.09
92.41
84.46
77.10
66.98
51.86
32.10
10.84
-7.25
-17.88
-18.74
-10.02
6.00
25.99
46.62
65.13
79.57
88.70
92.01
89.45
81.53
69.41
54.94
40.64
29.31
23.24
23.46
29.23
38.02
46.38
50.93
49.65
42.51
31.46
19.66
10.65
7.41
11.68
23.41
40.79
61.04
81.39
99.74
114.74
125.96
133.68
138.63
141.04
140.74
138.02
134.79
134.03
138.24
148.27
162.83
178.93
192.18
198.25
194.60
182.16
164.07
143.77
123.68
104.93
87.33
68.59
45.03
13.04
-28.23
-77.61
-133.49
-194.21
-257.38
-313.04
-344.95
-343.55
-315.69
-277.15
-241.69
-216.42
-201.72
-193.42
-186.21
-180.44
-176.35
-175.73
-177.93
-179.74
-177.14
-167.19
-149.24
-124.83
-97.49
-69.21
-43.20
-20.43
-0.20
18.59
36.84
55.15
73.98
93.04
111.66
128.69
144.35
159.73
175.79
192.70
209.79
225.52
237.97
245.57
247.28
243.60
236.05
226.27
215.35
203.72
191.14
176.92
160.36
140.70
117.51
90.26
58.15
20.63
-21.72
-66.66
-110.40
-148.77
-178.96
-200.46
-214.59
-223.24
-227.24
-226.30
-220.41
-211.05
-201.43
-195.56
-196.21
-203.30
-213.99
-223.26
-226.29
-220.52
-205.96
-184.24
-157.38
-127.05
-94.21
-59.87
-24.51
11.30
46.08
77.52
103.33
122.01
133.27
138.04
133.51
118.55
97.24
77.47
65.82
64.52
71.85
83.88
97.12
108.44
116.37
120.97
123.19
123.84
123.53
123.02
121.02
117.57
111.46
100.93
84.32
60.56
28.98
-10.47
-57.63
-112.05
-164.94
-204.81
-223.03
-217.05
-188.56
-141.77
-83.30
-22.19
32.28
73.27
97.16
104.09
97.63
83.77
66.76
49.98
35.85
26.21
22.30
23.95
29.95
39.10
50.71
64.28
79.54
95.22
111.74
129.12
146.97
163.87
177.42
184.79
183.35
171.68
148.29
114.46
74.53
34.39
-1.11
-29.25
-49.61
-63.25
-71.76
-80.04
-91.70
-107.62
-126.34
-146.22
-165.63
-183.23
-197.08
-204.88
-209.27
-213.18
-218.27
-225.20
-235.32
-250.18
-271.52
-299.54
-306.29
-277.75
-221.19
-157.77
-104.56
-67.89
-45.74
-34.36
-29.87
-28.95
-32.32
-38.74
-42.52
-36.45
-22.13
-0.24
21.78
34.62
32.48
12.68
-20.75
-58.16
-89.87
-111.61
-124.89
-135.68
-149.09
-166.70
-183.49
-194.78
-195.54
-183.32
-160.13
-131.07
-102.44
-78.13
-58.45
-42.85
-31.85
-27.21
-31.69
-47.08
-71.28
-98.11
-118.73
-125.22
-114.40
-88.96
-54.88
-18.59
15.51
46.10
73.87
100.30
126.57
153.23
180.06
206.88
233.43
259.25
283.69
306.13
326.58
346.14
366.06
386.42
405.61
420.53
427.60
424.02
408.42
380.73
341.63
291.65
231.48
163.41
92.34
25.16
-31.97
-77.06
-114.28
-151.55
-197.05
-253.99
-317.36
-374.77
-411.49
-417.34
-391.34
-341.81
-279.95
-216.80
-159.95
-112.06
-71.53
-34.93
0.24
34.68
68.04
104.39
145.94
189.66
227.72
251.88
257.99
248.23
230.60
216.03
220.83
252.76
305.56
362.26
404.96
422.99
415.46
389.43
355.92
334.89
339.75
371.45
421.08
478.21
536.10
591.76
643.48
630.61
522.58
336.22
123.16
-70.88
-225.43
-338.77
-416.97
-468.40
-501.48
-514.41
-505.90
-482.69
-455.03
-430.31
-410.60
-394.06
-377.68
-358.99
-329.51
-284.63
-227.03
-168.50
-120.17
-88.88
-76.34
-80.50
-97.08
-116.61
-131.61
-139.52
-141.61
-139.17
-132.25
-120.41
-104.49
-87.11
-69.78
-54.19
-42.07
-34.24
-29.70
-26.55
-23.22
-19.57
-16.66
-15.08
-15.23
-17.37
-21.85
-28.76
-37.99
-49.04
-60.84
-71.93
-80.62
-85.54
-85.78
-80.92
-70.71
-55.31
-35.49
-12.88
10.06
30.65
46.77
57.52
63.33
65.59
65.89
65.36
64.52
63.48
62.40
61.60
61.49
62.25
63.56
64.72
64.89
63.49
60.49
56.30
51.56
46.76
42.07
37.40
32.48
27.11
21.27
15.18
9.20
3.80
-0.69
-4.08
-6.46
-8.16
-9.64
-11.34
-13.64
-16.76
-20.78
-25.53
-30.53
-34.93
-37.61
-37.53
-34.16
-27.76
-19.40
-10.46
-2.15
4.86
10.43
14.75
17.94
19.89
20.36
19.19
16.56
12.99
9.18
5.78
3.16
1.38
0.38
0.12
0.64
2.12
4.59
7.90
11.60
15.04
17.57
18.76
18.52
17.06
14.76
12.03
9.14
6.23
3.36
0.63
-1.86
-3.99
-5.84
-7.71
-10.11
-13.49
-18.00
-23.32
-28.60
-32.76
-34.79
-34.04
-30.33
-23.94
-15.51
-5.91
3.85
12.87
20.49
26.52
31.06
34.39
36.63
37.66
37.22
35.25
32.08
28.43
25.18
22.98
22.00
21.93
22.23
22.52
22.65
22.80
23.18
23.85
24.48
24.52
23.39
20.76
16.80
12.09
7.34
3.09
-0.51
-3.68
-6.73
-9.86
-12.98
-15.89
-18.45
-20.78
-23.15
-25.88
-28.93
-31.84
-33.73
-33.65
-30.95
-25.57
-18.10
-9.61
-1.32
5.79
11.17
14.78
16.94
18.25
19.36
20.82
22.92
25.49
27.98
29.57
29.60
27.91
25.09
22.25
20.48
20.36
21.57
23.03
23.32
21.24
16.21
8.31
-1.56
-11.57
-19.00
-20.83
-14.80
-0.54
19.83
42.19
61.81
74.92
79.75
76.30
65.40
47.73
23.49
-7.10
-42.77
-80.65
-116.59
-146.15
-165.92
-174.43
-172.48
-162.79
-149.18
-135.46
-124.18
-115.90
-109.05
-100.66
-87.34
-66.30
-36.15
2.60
47.43
94.06
137.44
173.20
198.77
213.77
219.20
216.31
206.39
191.30
174.15
158.90
149.02
145.63
146.84
148.85
148.36
144.61
139.54
135.74
133.99
131.94
125.23
110.28
86.67
57.64
28.60
4.60
-11.51
-19.65
-21.86
-21.39
-21.60
-24.90
-32.02
-41.84
-52.12
-60.63
-66.21
-69.43
-72.33
-77.37
-86.57
-100.80
-119.64
-141.45
-163.57
-182.66
-195.16
-198.20
-190.60
-173.66
-150.78
-125.97
-102.08
-79.68
-57.41
-33.52
-7.74
17.89
39.58
53.56
57.80
52.78
41.03
25.72
9.56
-5.59
-18.44
-27.80
-32.61
-32.41
-27.99
-21.33
-15.20
-12.14
-13.64
-19.67
-28.77
-38.49
-46.16
-49.65
-47.81
-40.74
-29.70
-16.71
-4.00
6.65
14.25
18.83
21.30
23.13
25.84
30.52
37.52
46.19
55.15
62.66
67.30
68.42
66.29
61.86
56.19
50.14
44.03
37.83
31.43
24.91
18.64
13.05
8.38
4.41
0.54
-3.97
-9.59
-16.32
-23.69
-30.99
-37.62
-43.25
-47.85
-51.39
-53.88
-55.31
-55.83
-55.82
-55.77
-56.25
-57.45
-59.14
-60.43
-60.20
-57.53
-52.22
-44.92
-36.98
-29.93
-24.84
-21.90
-20.20
-18.39
-15.53
-11.68
-7.87
-5.48
-5.52
-7.87
-11.50
-14.14
-14.03
-10.72
-5.03
1.77
9.18
17.38
27.21
38.54
51.67
66.20
81.44
97.04
113.38
130.82
147.53
160.04
163.56
157.69
146.17
135.52
131.69
136.89
148.68
160.60
167.62
167.86
167.46
175.13
196.91
232.84
277.66
324.80
368.47
407.39
419.89
391.39
322.23
230.64
141.35
71.41
33.00
17.34
15.73
21.12
31.75
47.17
62.93
73.58
73.36
58.38
26.45
-20.48
-79.19
-143.23
-206.37
-264.37
-315.63
-360.85
-401.47
-439.47
-474.51
-505.14
-527.02
-535.23
-526.69
-501.77
-464.69
-421.63
-378.81
-339.05
-302.16
-265.15
-225.11
-181.53
-136.85
-95.36
-60.70
-34.48
-15.30
-0.52
12.36
24.41
35.20
43.67
49.23
52.37
54.27
56.07
58.02
59.25
58.52
55.08
49.39
42.95
37.52
34.31
33.48
34.47
36.52
39.18
42.44
46.26
50.25
53.59
55.38
55.09
52.91
49.59
45.97
42.68
39.78
36.89
33.45
29.02
23.43
16.92
9.98
3.25
-2.66
-7.41
-11.01
-13.84
-16.55
-19.70
-23.61
-28.30
-33.59
-39.18
-44.79
-50.08
-54.49
-57.51
-58.96
-59.34
-59.98
-62.25
-66.04
-68.51
-64.34
-48.16
-17.94
22.53
63.94
95.04
107.27
98.39
72.83
39.10
6.04
-19.48
-32.73
-30.55
-11.53
22.59
65.23
105.37
130.76
133.05
111.94
76.17
40.31
19.02
21.42
47.63
89.04
132.05
163.16
173.57
161.43
131.35
91.67
50.81
14.58
-14.68
-37.12
-53.49
-64.10
-69.09
-69.35
-67.20
-65.91
-68.46
-75.91
-86.79
-97.86
-105.52
-107.63
-104.42
-98.22
-92.21
-88.64
-87.73
-87.59
-85.41
-78.89
-67.43
-52.31
-36.01
-21.16
-9.79
-3.06
-1.21
-3.22
-6.65
-7.92
-3.45
8.83
28.29
51.80
75.17
95.15
110.70
122.53
131.78
138.55
141.76
140.02
133.20
122.97
112.24
103.67
98.27
95.18
92.47
88.42
82.30
74.49
66.05
57.97
50.85
44.68
39.00
33.19
26.81
19.89
13.08
7.50
4.23
3.77
5.66
8.65
11.07
11.55
9.44
4.96
-1.04
-7.55
-13.75
-19.25
-23.99
-28.24
-32.45
-37.15
-42.82
-49.62
-57.26
-65.03
-72.04
-77.51
-81.00
-82.39
-81.66
-78.64
-72.89
-64.02
-52.02
-37.55
-21.87
-6.46
7.47
19.27
28.85
36.42
42.09
45.79
47.40
46.91
44.61
41.08
36.96
32.73
28.56
24.44
20.20
15.72
11.05
6.50
2.62
-0.05
-1.32
-1.62
-1.88
-3.11
-5.86
-9.91
-14.42
-18.45
-21.55
-23.94
-26.24
-28.88
-31.70
-34.00
-34.93
-34.12
-31.89
-29.10
-26.68
-25.25
-24.94
-25.31
-25.55
-24.69
-21.88
-16.74
-9.55
-1.20
7.16
14.55
20.55
25.31
29.29
32.81
35.79
37.82
38.51
37.75
35.91
33.60
31.35
29.37
27.49
25.42
22.95
20.09
17.14
14.42
12.11
10.09
8.13
6.04
3.91
2.11
1.13
1.39
3.07
6.00
9.76
13.85
17.73
20.99
23.35
24.65
24.89
24.20
22.77
20.84
18.64
16.36
14.16
12.12
10.25
8.47
6.69
4.81
2.85
0.85
-1.09
-2.94
-4.68
-6.31
-7.77
-8.98
-9.94
-10.70
-11.44
-12.27
-13.24
-14.16
-14.85
-15.18
-15.33
-15.74
-16.94
-19.25
-22.71
-27.04
-31.83
-36.70
-41.30
-45.16
-47.65
-47.90
-45.21
-39.37
-31.04
-21.69
-13.20
-7.22
-4.59
-5.10
-7.66
-10.92
-13.83
-15.96
-17.51
-18.95
-20.62
-22.42
-23.95
-24.72
-24.54
-23.53
-22.07
-20.52
-19.04
-17.54
-15.89
-14.06
-12.21
-10.64
-9.64
-9.34
-9.74
-10.66
-11.91
-13.29
-14.60
-15.70
-16.53
-17.13
-17.59
-18.08
-18.71
-19.54
-20.55
-21.73
-23.08
-24.56
-25.97
-26.91
-26.82
-25.14
-21.63
-16.45
-10.22
-3.78
2.10
6.97
10.72
13.50
15.53
16.98
17.92
18.43
18.59
18.52
18.33
18.06
17.74
17.35
16.92
16.51
16.22
16.12
16.26
16.63
17.17
17.78
18.26
18.38
18.00
17.03
15.59
13.88
12.11
10.33
8.45
6.22
3.41
-0.02
-3.98
-8.25
-12.66
-17.17
-21.73
-26.23
-30.33
-33.55
-35.41
-35.67
-34.31
-31.53
-27.65
-22.95
-17.72
-12.25
-6.92
-2.10
1.95
5.15
7.57
9.35
10.53
11.07
10.95
10.23
9.09
7.83
6.68
5.76
5.06
4.48
3.92
3.36
2.80
2.29
1.86
1.56
1.34
1.12
0.74
0.01
-1.19
-2.90
-5.00
-7.30
-9.57
-11.65
-13.51
-15.17
-16.67
-18.11
-19.57
-21.14
-22.94
-24.93
-26.86
-28.26
-28.54
-27.24
-24.17
-19.50
-13.73
-7.49
-1.39
4.08
8.59
12.00
14.30
15.62
16.23
16.38
16.28
16.06
15.73
15.34
14.95
14.65
14.48
14.43
14.37
14.16
13.73
13.10
12.38
11.69
11.08
10.43
9.55
8.28
6.53
4.37
1.97
-0.53
-3.01
-5.45
-7.84
-10.14
-12.25
-14.10
-15.72
-17.29
-19.10
-21.39
-24.10
-26.84
-28.93
-29.58
-28.25
-24.80
-19.60
-13.29
-6.64
-0.26
5.44
10.28
14.15
17.00
18.81
19.59
19.47
18.74
17.73
16.74
15.98
15.51
15.25
15.03
14.74
14.32
13.89
13.61
13.59
13.77
13.96
13.87
13.25
12.05
10.39
8.47
6.49
4.49
2.35
-0.02
-2.68
-5.50
-8.29
-10.89
-13.23
-15.39
-17.54
-19.82
-22.33
-25.04
-27.79
-30.27
-32.08
-32.78
-32.01
-29.58
-25.57
-20.25
-14.21
-8.01
-2.20
2.84
6.95
10.16
12.63
14.57
16.14
17.37
18.30
18.94
19.36
19.67
19.96
20.24
20.48
20.57
20.47
20.22
19.85
19.38
18.81
18.08
17.12
15.91
14.45
12.81
11.07
9.23
7.27
5.17
2.88
0.40
-2.20
-4.90
-7.60
-10.26
-12.87
-15.43
-17.99
-20.67
-23.56
-26.70
-29.91
-32.78
-34.63
-34.72
-32.55
-28.06
-21.73
-14.38
-6.95
-0.20
5.45
9.90
13.28
15.86
17.88
19.52
20.86
21.84
22.40
22.52
22.29
21.88
21.42
20.95
20.35
19.56
18.57
17.58
16.78
16.26
15.84
15.18
13.95
12.10
9.94
7.98
6.69
6.28
6.59
7.22
7.72
7.78
7.22
6.05
4.35
2.18
-0.37
-3.14
-5.96
-8.66
-11.14
-13.46
-15.75
-18.07
-20.20
-21.61
-21.59
-19.47
-15.03
-8.62
-1.14
6.29
12.66
17.42
20.49
22.14
22.82
22.90
22.68
22.37
22.07
21.84
21.65
21.40
20.94
20.19
19.16
17.94
16.67
15.46
14.39
13.49
12.75
12.13
11.51
10.67
9.39
7.55
5.28
2.96
1.07
-0.02
-0.29
-0.11
-0.09
-0.79
-2.46
-5.02
-8.12
-11.38
-14.57
-17.64
-20.72
-23.94
-27.38
-30.94
-34.38
-37.25
-38.95
-38.90
-36.68
-32.23
-25.92
-18.39
-10.46
-2.82
4.09
10.04
14.97
18.88
21.74
23.54
24.37
24.42
23.96
23.26
22.54
21.89
21.30
20.77
20.35
20.15
20.27
20.70
21.25
21.58
21.37
20.41
18.73
16.48
13.93
11.27
8.61
6.04
3.55
1.11
-1.45
-4.31
-7.64
-11.37
-15.20
-18.69
-21.47
-23.47
-24.94
-26.36
-28.13
-30.44
-33.23
-36.28
-39.32
-42.04
-43.97
-44.48
-42.95
-38.96
-32.60
-24.56
-15.91
-7.81
-1.12
3.84
7.23
9.55
11.34
13.01
14.70
16.34
17.73
18.68
19.18
19.30
19.24
19.11
18.95
18.66
18.15
17.45
16.75
16.28
16.23
16.55
16.99
17.13
16.56
15.07
12.71
9.80
6.77
4.04
1.90
0.41
-0.61
-1.50
-2.65
-4.47
-7.21
-10.94
-15.48
-20.41
-25.16
-29.18
-32.10
-33.78
-34.37
-34.10
-33.17
-31.56
-29.09
-25.50
-20.72
-14.94
-8.62
-2.30
3.51
8.55
12.71
15.97
18.31
19.65
20.02
19.51
18.44
17.22
16.25
15.74
15.67
15.81
15.92
15.80
15.46
15.06
14.82
14.91
15.34
15.88
16.18
15.87
14.74
12.82
10.34
7.62
4.93
2.36
-0.09
-2.47
-4.81
-7.12
-9.41
-11.71
-14.07
-16.48
-18.89
-21.16
-23.22
-25.09
-26.86
-28.56
-30.03
-30.90
-30.60
-28.67
-24.91
-19.53
-13.00
-5.98
0.95
7.35
12.93
17.55
21.09
23.44
24.56
24.47
23.37
21.59
19.52
17.53
15.85
14.54
13.57
12.90
12.52
12.50
12.85
13.46
14.07
14.34
13.99
12.94
11.35
9.52
7.73
6.10
4.53
2.82
0.76
-1.69
-4.42
-7.22
-9.84
-12.13
-14.08
-15.76
-17.37
-19.12
-21.19
-23.67
-26.44
-29.11
-31.06
-31.53
-29.93
-26.05
-20.20
-13.13
-5.80
0.92
6.55
11.01
14.50
17.33
19.69
21.56
22.79
23.22
22.84
21.77
20.28
18.62
17.01
15.65
14.66
14.13
14.07
14.35
14.78
15.12
15.18
14.84
14.13
13.05
11.65
9.94
7.95
5.80
3.64
1.66
0.03
-1.20
-2.14
-2.98
-4.03
-5.60
-7.95
-11.15
-15.07
-19.31
-23.28
-26.31
-27.73
-27.09
-24.19
-19.18
-12.49
-4.75
3.28
10.87
17.44
22.65
26.38
28.74
29.96
30.32
30.05
29.32
28.27
27.03
25.70
24.33
22.93
21.47
19.89
18.15
16.28
14.39
12.61
11.06
9.76
8.61
7.40
5.88
3.85
1.28
-1.73
-4.93
-8.09
-11.08
-13.89
-16.63
-19.42
-22.31
-25.27
-28.25
-31.26
-34.36
-37.56
-40.72
-43.42
-45.03
-44.84
-42.36
-37.55
-30.80
-22.85
-14.57
-6.69
0.29
6.11
10.72
14.23
16.78
18.61
19.90
20.82
21.43
21.69
21.59
21.12
20.34
19.38
18.33
17.25
16.10
14.87
13.54
12.14
10.73
9.30
7.80
6.17
4.34
2.28
-0.01
-2.50
-5.24
-8.24
-11.46
-14.73
-17.82
-20.47
-22.61
-24.39
-26.16
-28.30
-31.07
-34.43
-37.93
-40.91
-42.56
-42.20
-39.42
-34.27
-27.10
-18.59
-9.51
-0.65
7.34
13.97
19.01
22.44
24.49
25.55
26.06
26.40
26.75
27.09
27.30
27.27
26.95
26.45
25.96
25.62
25.50
25.52
25.54
25.39
24.97
24.24
23.17
21.77
19.98
17.79
15.28
12.58
9.91
7.45
5.30
3.42
1.64
-0.24
-2.34
-4.70
-7.25
-9.89
-12.52
-15.07
-17.49
-19.76
-21.86
-23.82
-25.64
-27.42
-29.32
-31.51
-34.14
-37.24
-40.63
-43.84
-46.18
-46.87
-45.26
-41.07
-34.56
-26.44
-17.73
-9.40
-2.14
3.76
8.34
11.84
14.49
16.48
17.92
18.89
19.45
19.67
19.60
19.25
18.62
17.76
16.83
16.03
15.55
15.48
15.73
16.01
16.06
15.62
14.58
12.95
10.80
8.21
5.29
2.13
-1.13
-4.31
-7.21
-9.72
-11.82
-13.60
-15.24
-16.95
-18.90
-21.22
-23.94
-26.98
-30.19
-33.31
-35.96
-37.66
-37.87
-36.12
-32.18
-26.21
-18.72
-10.53
-2.50
4.69
10.68
15.40
18.96
21.50
23.11
23.86
23.87
23.36
22.62
21.88
21.26
20.73
20.20
19.63
19.03
18.51
18.15
17.95
17.82
17.59
17.10
16.27
15.11
13.62
11.83
9.75
7.39
4.81
2.08
-0.71
-3.46
-6.14
-8.72
-11.18
-13.50
-15.69
-17.80
-19.95
-22.30
-24.99
-28.06
-31.35
-34.46
-36.75
-37.47
-35.98
-31.98
-25.69
-17.78
-9.18
-0.83
6.63
12.88
17.89
21.74
24.55
26.37
27.31
27.51
27.24
26.76
26.25
25.78
25.34
24.90
24.49
24.20
24.14
24.34
24.70
25.01
24.97
24.40
23.30
21.79
20.11
18.35
16.46
14.27
11.55
8.24
4.57
0.95
-2.15
-4.45
-6.01
-7.24
-8.75
-11.26
-15.50
-21.92
-30.51
-40.57
-50.71
-59.07
-63.85
-63.88
-59.04
-50.26
-39.19
-27.59
-16.82
-7.58
0.09
6.51
12.17
17.48
22.69
27.92
33.18
38.32
43.19
47.46
50.84
53.06
54.06
54.05
53.44
52.69
52.12
51.80
51.48
50.77
49.23
46.65
43.02
38.53
33.49
28.22
22.90
17.50
11.82
5.61
-1.23
-8.51
-15.78
-22.47
-28.10
-32.44
-35.61
-37.97
-39.94
-41.96
-44.30
-47.19
-50.64
-54.54
-58.69
-62.77
-66.26
-68.50
-68.91
-67.25
-63.85
-59.16
-53.55
-47.28
-40.52
-33.49
-26.72
-21.18
-18.05
-18.39
-22.06
-27.76
-33.92
-39.64
-45.15
-51.64
-60.34
-71.36
-83.17
-91.98
-93.30
-84.09
-64.48
-37.74
-8.93
17.20
40.05
58.64
73.07
84.54
94.21
102.04
107.08
109.19
109.83
110.95
113.31
116.25
118.24
119.14
118.54
116.50
113.61
110.03
104.55
95.19
81.17
64.03
47.28
34.63
27.27
24.09
24.18
25.51
25.71
23.16
17.10
7.31
-6.61
-26.61
-53.98
-87.70
-124.49
-159.64
-188.52
-208.13
-217.94
-208.85
-178.81
-133.93
-85.38
-43.17
-12.46
6.03
14.53
17.04
16.16
14.84
14.98
17.51
22.28
28.17
33.57
37.07
37.67
36.36
32.28
24.91
15.23
5.51
-1.80
-5.51
-6.33
-6.62
-9.33
-17.54
-32.54
-52.98
-75.38
-95.56
-109.77
-115.40
-111.16
-97.28
-75.86
-50.19
-23.92
-0.28
18.40
31.10
38.10
40.68
40.55
39.15
37.63
36.71
36.69
37.27
37.76
37.43
35.85
33.12
29.72
26.22
22.99
20.02
17.01
13.69
10.04
6.29
2.72
-0.51
-3.52
-6.53
-9.57
-12.42
-14.60
-15.63
-15.31
-13.77
-11.34
-8.39
-5.16
-1.82
1.42
4.13
5.73
5.68
3.84
0.60
-3.14
-6.34
-8.11
-7.99
-5.99
-2.41
2.32
7.75
13.40
18.78
23.46
27.10
29.60
31.10
31.96
32.60
33.43
34.74
36.75
39.53
42.96
46.65
50.03
52.49
53.59
53.29
51.85
49.65
46.94
43.66
39.56
34.48
28.58
22.35
16.49
11.53
7.69
4.78
2.41
0.21
-1.98
-4.18
-6.35
-8.45
-10.61
-12.94
-15.58
-18.54
-21.77
-25.15
-28.48
-31.39
-33.38
-33.86
-32.27
-28.33
-22.12
-14.17
-5.31
3.52
11.45
17.84
22.28
24.58
24.85
23.47
20.99
17.97
14.80
11.65
8.43
4.82
0.53
-4.54
-10.09
-15.52
-20.12
-23.30
-24.61
-24.10
-22.51
-21.08
-21.21
-23.78
-28.90
-35.99
-44.00
-51.56
-57.46
-61.19
-63.01
-63.77
-64.49
-66.11
-69.02
-72.53
-74.46
-71.93
-62.74
-46.28
-23.71
2.99
31.86
61.21
87.57
107.12
117.72
119.24
112.67
99.46
81.83
62.46
44.02
28.72
18.33
14.42
17.41
27.15
42.40
60.53
77.27
87.93
88.98
79.66
62.24
40.77
19.46
1.15
-11.76
-18.83
-21.33
-21.18
-19.85
-18.01
-15.85
-13.62
-11.80
-10.97
-11.91
-14.99
-19.73
-24.92
-29.17
-31.71
-32.92
-33.96
-35.86
-39.40
-44.46
-49.78
-53.33
-53.13
-47.99
-38.31
-25.48
-10.99
3.36
16.07
26.50
34.65
40.85
45.29
47.16
45.22
38.58
28.53
17.10
7.16
1.22
0.40
4.35
10.68
13.60
11.65
4.41
-7.67
-23.13
-39.99
-56.65
-67.97
-71.33
-65.64
-50.88
-29.10
-3.88
20.41
39.36
49.47
49.13
38.48
20.21
-0.85
-19.77
-32.79
-38.22
-36.83
-31.21
-24.55
-19.82
-18.14
-18.44
-18.64
-16.72
-11.71
-4.14
4.28
11.67
16.58
18.92
19.93
21.31
24.58
30.38
38.29
47.01
54.68
59.31
59.38
54.05
43.12
26.99
6.58
-16.69
-41.12
-64.89
-86.52
-104.90
-119.45
-129.93
-136.27
-138.51
-136.91
-132.04
-124.76
-116.08
-106.86
-97.60
-88.43
-79.43
-70.84
-63.21
-57.17
-53.05
-50.55
-48.67
-45.95
-40.88
-32.44
-20.37
-5.28
11.53
28.42
43.85
56.77
66.69
73.68
78.12
80.45
81.05
80.17
77.98
74.66
70.49
65.86
61.23
56.98
53.35
50.40
48.07
46.24
44.76
43.43
41.83
39.39
35.36
29.13
20.46
9.74
-2.04
-13.58
-23.66
-31.52
-37.06
-40.76
-43.39
-45.75
-48.40
-51.63
-55.41
-59.41
-63.02
-65.41
-65.68
-63.04
-57.15
-48.33
-37.48
-25.82
-14.39
-3.74
6.15
15.59
24.82
33.71
41.69
48.05
52.21
54.01
53.67
51.62
48.27
43.92
38.78
33.15
27.51
22.42
18.41
15.70
14.15
13.27
12.44
11.11
8.93
5.85
2.09
-2.03
-6.17
-10.12
-13.82
-17.37
-20.99
-24.92
-29.31
-34.16
-39.25
-44.00
-47.61
-49.15
-47.83
-43.29
-35.76
-26.01
-15.15
-4.33
5.52
13.86
20.47
25.37
28.70
30.65
31.41
31.25
30.45
29.29
27.97
26.67
25.53
24.67
24.26
24.39
25.06
26.04
26.92
27.15
26.25
23.96
20.40
15.99
11.34
6.94
3.03
-0.51
-3.98
-7.71
-11.86
-16.37
-21.05
-25.74
-30.37
-34.94
-39.33
-43.12
-45.49
-45.40
-41.98
-34.85
-24.42
-11.77
1.68
14.56
25.92
35.35
42.80
48.38
52.22
54.42
55.13
54.73
53.67
52.41
51.12
49.62
47.43
44.07
39.36
33.53
27.21
21.11
15.80
11.52
8.20
5.60
3.50
1.76
0.31
-1.01
-2.36
-3.95
-5.92
-8.25
-10.77
-13.25
-15.58
-17.83
-20.27
-23.33
-27.36
-32.50
-38.45
-44.46
-49.39
-52.04
-51.44
-47.23
-39.79
-30.03
-19.18
-8.31
1.77
10.67
18.29
24.66
29.80
33.74
36.49
38.11
38.77
38.65
38.01
37.07
36.05
35.09
34.29
33.66
33.18
32.78
32.31
31.66
30.66
29.20
27.25
24.89
22.27
19.57
16.93
14.39
11.88
9.30
6.49
3.35
-0.17
-4.06
-8.22
-12.44
-16.49
-20.14
-23.30
-26.14
-29.07
-32.58
-37.01
-42.27
-47.64
-51.98
-54.02
-52.76
-47.90
-39.86
-29.77
-19.07
-9.19
-1.18
4.42
7.71
9.22
9.70
9.82
9.93
10.03
9.84
9.05
7.38
4.68
0.86
-3.93
-9.06
-13.24
-14.62
-11.39
-2.56
11.38
28.45
45.79
60.70
71.60
78.34
82.00
84.27
86.68
90.19
95.10
100.98
106.70
110.45
109.90
102.74
87.42
63.94
34.35
2.66
-26.06
-47.12
-57.74
-58.04
-50.85
-40.49
-30.99
-24.57
-21.07
-18.55
-14.70
-8.13
1.00
11.16
20.24
26.54
29.24
28.31
24.18
17.43
8.64
-1.57
-12.37
-22.68
-31.29
-37.18
-39.82
-39.34
-36.52
-32.53
-28.53
-25.31
-23.06
-21.44
-19.80
-17.59
-14.57
-10.98
-7.35
-4.29
-2.22
-1.21
-1.02
-1.27
-1.65
-2.01
-2.47
-3.23
-4.43
-6.09
-8.05
-10.13
-12.16
-14.10
-15.95
-17.81
-19.66
-21.51
-23.34
-25.22
-27.26
-29.65
-32.52
-35.83
-39.40
-42.78
-45.37
-46.46
-45.38
-41.68
-35.31
-26.68
-16.64
-6.28
3.40
11.71
18.37
23.50
27.35
30.14
31.97
32.86
32.87
32.22
31.23
30.24
29.52
29.09
28.81
28.55
28.20
27.80
27.46
27.24
27.07
26.83
26.30
25.34
23.95
22.22
20.27
18.19
15.92
13.38
10.58
7.60
4.70
2.12
-0.04
-1.89
-3.64
-5.55
-7.73
-10.16
-12.69
-15.18
-17.56
-19.82
-21.97
-24.01
-25.97
-27.95
-30.12
-32.69
-35.72
-39.02
-42.07
-44.06
-44.14
-41.68
-36.51
-29.00
-20.00
-10.49
-1.43
6.51
13.00
17.98
21.58
23.97
25.37
26.02
26.19
26.13
25.98
25.76
25.35
24.69
23.72
22.56
21.46
20.67
20.37
20.56
21.08
21.64
21.92
21.68
20.80
19.30
17.28
14.97
12.59
10.30
8.14
6.05
3.97
1.88
-0.15
-2.05
-3.75
-5.32
-6.90
-8.65
-10.63
-12.78
-14.95
-16.97
-18.82
-20.55
-22.34
-24.38
-26.88
-29.90
-33.35
-36.92
-40.07
-42.12
-42.39
-40.37
-35.90
-29.28
-21.22
-12.65
-4.55
2.37
7.75
11.61
14.24
16.02
17.24
18.04
18.43
18.39
17.99
17.36
16.71
16.21
15.90
15.76
15.69
15.66
15.71
15.92
16.32
16.82
17.20
17.15
16.46
15.09
13.20
11.09
9.05
7.26
5.71
4.30
2.88
1.32
-0.42
-2.40
-4.62
-7.06
-9.65
-12.22
-14.58
-16.56
-18.16
-19.52
-20.93
-22.67
-24.97
-27.81
-30.98
-34.04
-36.39
-37.39
-36.52
-33.54
-28.58
-22.12
-14.89
-7.65
-1.03
4.63
9.21
12.80
15.54
17.55
18.93
19.75
20.06
19.94
19.46
18.75
17.97
17.31
16.89
16.79
16.91
17.09
17.14
16.98
16.63
16.19
15.73
15.24
14.59
13.63
12.30
10.63
8.76
6.84
4.95
3.13
1.35
-0.40
-2.15
-3.90
-5.69
-7.54
-9.47
-11.47
-13.49
-15.42
-17.17
-18.72
-20.13
-21.55
-23.22
-25.39
-28.12
-31.21
-34.17
-36.26
-36.76
-35.16
-31.33
-25.55
-18.46
-10.85
-3.51
2.96
8.16
11.97
14.46
15.83
16.35
16.28
15.88
15.38
14.98
14.83
14.99
15.34
15.67
15.74
15.44
14.86
14.24
13.86
13.88
14.24
14.69
14.94
14.77
14.12
13.04
11.63
9.95
8.10
6.10
4.05
2.08
0.26
-1.42
-3.05
-4.79
-6.76
-9.00
-11.37
-13.68
-15.71
-17.39
-18.75
-19.98
-21.30
-22.95
-25.09
-27.72
-30.63
-33.38
-35.33
-35.77
-34.16
-30.29
-24.40
-17.14
-9.37
-1.97
4.46
9.58
13.34
15.87
17.33
17.91
17.82
17.28
16.57
15.92
15.47
15.19
14.95
14.56
13.98
13.32
12.81
12.66
12.92
13.44
13.90
13.96
13.40
12.17
10.40
8.32
6.17
4.15
2.41
0.96
-0.26
-1.40
-2.64
-4.16
-6.02
-8.18
-10.49
-12.72
-14.69
-16.31
-17.61
-18.73
-19.92
-21.37
-23.21
-25.36
-27.51
-29.19
-29.83
-28.93
-26.23
-21.78
-15.98
-9.45
-2.90
3.05
8.03
11.91
14.77
16.75
18.05
18.82
19.21
19.33
19.32
19.27
19.23
19.18
19.10
19.02
18.99
19.12
19.44
19.93
20.51
21.02
21.37
21.45
21.21
20.56
19.43
17.80
15.72
13.39
11.03
8.87
7.02
5.44
3.94
2.33
0.46
-1.65
-3.87
-6.04
-8.07
-10.03
-12.17
-14.76
-18.00
-21.83
-25.89
-29.58
-32.22
-33.21
-32.23
-29.30
-24.78
-19.25
-13.35
-7.65
-2.57
1.65
4.88
7.07
8.21
8.37
7.69
6.45
5.00
3.69
2.78
2.39
2.47
2.82
3.24
3.59
3.82
3.99
4.14
4.27
4.28
4.03
3.39
2.34
0.99
-0.52
-2.07
-3.63
-5.26
-7.06
-9.12
-11.40
-13.78
-16.13
-18.32
-20.32
-22.20
-24.12
-26.26
-28.81
-31.87
-35.38
-39.09
-42.49
-44.91
-45.69
-44.40
-41.05
-36.09
-30.34
-24.60
-19.48
-15.21
-11.62
-8.38
-5.16
-1.81
1.57
4.58
6.58
7.00
5.64
3.01
0.50
-0.03
3.20
11.10
23.29
38.27
54.01
68.70
81.25
91.22
98.47
102.72
103.52
100.44
93.60
83.86
72.60
61.28
50.82
41.43
32.76
24.34
16.12
8.56
2.31
-2.28
-5.43
-7.87
-10.40
-13.46
-16.96
-20.53
-23.94
-27.38
-31.35
-36.18
-41.65
-46.89
-50.80
-52.71
-52.88
-52.42
-52.76
-54.99
-59.26
-64.84
-70.48
-75.05
-77.90
-79.07
-79.13
-78.77
-78.58
-78.75
-79.10
-79.15
-78.34
-76.27
-72.80
-68.24
-63.16
-58.34
-54.41
-51.73
-50.21
-49.42
-48.81
-47.83
-46.09
-43.28
-39.07
-33.12
-25.09
-14.74
-1.96
13.21
30.58
49.78
70.14
90.57
109.70
126.14
138.93
147.79
153.16
155.80
156.31
154.76
150.61
143.08
131.65
116.44
98.26
78.43
58.40
39.33
21.93
6.52
-6.73
-17.73
-26.30
-32.37
-36.11
-38.04
-38.96
-39.67
-40.68
-42.08
-43.63
-45.03
-46.11
-46.97
-47.84
-48.88
-50.04
-51.00
-51.36
-50.88
-49.69
-48.27
-47.36
-47.55
-49.09
-51.62
-54.22
-55.66
-54.85
-51.27
-45.15
-37.43
-29.25
-21.63
-15.14
-9.84
-5.47
-1.71
1.68
4.81
7.73
10.48
13.10
15.53
17.63
19.21
20.07
20.18
19.59
18.46
16.96
15.26
13.56
12.06
10.89
10.05
9.36
8.50
7.16
5.20
2.74
0.08
-2.47
-4.72
-6.66
-8.41
-10.13
-11.92
-13.87
-16.05
-18.45
-20.90
-22.97
-24.06
-23.52
-21.02
-16.63
-10.91
-4.74
1.05
5.87
9.51
12.05
13.73
14.77
15.31
15.48
15.40
15.28
15.36
15.93
17.16
19.11
21.61
24.36
26.91
28.79
29.66
29.32
27.83
25.38
22.27
18.80
15.25
11.89
8.96
6.66
5.09
4.20
3.79
3.54
3.13
2.34
1.11
-0.44
-2.14
-3.91
-5.81
-8.07
-10.98
-14.70
-19.20
-24.08
-28.65
-32.09
-33.63
-32.75
-29.33
-23.64
-16.33
-8.23
-0.16
7.24
13.73
19.52
25.05
30.82
37.00
43.32
49.09
53.44
55.66
55.38
52.61
47.55
40.49
31.76
21.90
11.68
2.24
-5.15
-9.48
-10.30
-7.91
-3.20
2.68
8.67
13.96
18.07
20.72
21.89
21.77
20.70
19.11
17.17
14.51
10.19
3.06
-7.57
-21.26
-36.25
-49.87
-59.45
-63.29
-61.27
-54.68
-45.69
-36.59
-29.20
-24.79
-23.97
-26.44
-30.54
-33.10
-30.12
-18.30
3.24
31.99
62.75
89.68
108.74
119.16
123.25
124.78
127.05
131.85
139.43
149.16
160.22
171.66
181.99
188.81
189.04
179.93
160.27
131.38
97.16
63.17
34.96
16.25
7.91
7.86
12.04
15.86
15.52
8.98
-3.89
-21.58
-41.52
-60.82
-77.00
-88.63
-95.72
-99.44
-101.40
-102.81
-104.19
-105.36
-106.04
-106.32
-106.64
-107.43
-108.68
-109.73
-109.54
-107.33
-102.95
-96.99
-90.44
-84.17
-78.46
-73.01
-67.14
-60.17
-51.84
-42.38
-32.44
-22.80
-14.18
-7.10
-1.91
1.09
1.64
-0.23
-3.96
-8.39
-11.98
-13.46
-12.34
-9.20
-5.38
-2.32
-0.81
-0.69
-1.12
-1.11
-0.18
1.53
3.47
5.14
6.37
7.35
8.39
9.59
10.69
11.24
10.79
9.20
6.75
4.05
1.82
0.59
0.50
1.17
1.92
1.93
0.61
-2.26
-6.50
-11.71
-17.41
-23.22
-28.83
-33.83
-37.73
-39.89
-39.76
-37.07
-31.99
-25.09
-17.18
-9.13
-1.68
4.61
9.37
12.45
13.94
14.09
13.36
12.25
11.21
10.46
10.04
9.80
9.53
9.10
8.53
8.01
7.90
8.58
10.34
13.22
16.90
20.79
24.14
26.33
26.99
26.13
24.01
20.98
17.37
13.44
9.36
5.32
1.53
-1.85
-4.75
-7.24
-9.48
-11.66
-13.88
-16.12
-18.31
-20.38
-22.38
-24.49
-26.90
-29.67
-32.52
-34.93
-36.23
-35.90
-33.72
-29.92
-24.98
-19.48
-13.92
-8.51
-3.31
1.69
6.49
11.02
15.15
18.61
21.11
22.31
22.09
20.65
18.54
16.48
15.20
15.09
16.02
17.36
18.20
17.89
16.29
13.75
10.93
8.42
6.37
4.20
0.65
-5.68
-15.26
-27.60
-41.35
-54.95
-66.97
-76.60
-83.92
-89.74
-95.36
-101.23
-107.70
-115.13
-123.92
-133.67
-142.69
-147.97
-146.06
-134.29
-110.39
-74.67
-30.38
16.72
60.78
97.86
126.92
149.64
169.05
190.05
215.95
247.34
281.78
316.15
347.86
375.07
396.48
398.68
372.57
318.34
248.15
179.10
125.18
92.14
78.10
77.31
83.37
94.70
110.42
129.33
147.42
159.89
161.44
148.09
118.95
76.06
24.46
-29.24
-76.30
-118.30
-160.92
-206.22
-255.58
-308.48
-363.00
-416.29
-465.87
-509.14
-543.76
-564.66
-566.89
-546.68
-502.90
-437.85
-357.19
-267.72
-174.76
-81.87
19.45
128.28
234.77
324.75
388.21
422.26
430.97
427.23
417.25
403.32
384.56
359.84
329.23
295.01
257.85
219.01
180.28
143.98
112.08
84.84
62.07
36.38
7.74
-22.54
-53.91
-88.20
-121.78
-154.89
-188.82
-223.50
-256.68
-283.11
-298.21
-299.08
-285.54
-260.57
-229.90
-199.41
-173.20
-152.86
-136.95
-123.74
-111.73
-100.18
-89.04
-79.29
-71.56
-65.88
-61.84
-58.28
-54.61
-50.59
-45.94
-40.26
-33.47
-25.44
-16.26
-6.57
2.99
11.48
18.24
23.23
26.83
29.42
31.35
32.83
33.91
34.62
34.82
34.33
33.10
31.35
29.51
28.25
28.22
29.68
32.35
35.41
37.90
39.09
38.77
37.32
35.40
33.59
32.19
31.10
30.05
28.80
27.33
25.84
24.55
23.48
22.40
20.87
18.50
15.28
11.55
7.89
4.90
2.89
1.76
1.01
-0.11
-2.37
-6.28
-11.88
-18.63
-25.50
-31.13
-34.22
-33.96
-30.22
-23.67
-15.50
-7.10
0.29
5.86
9.30
10.75
10.66
9.63
8.23
6.88
5.78
4.90
4.08
3.05
1.71
0.13
-1.42
-2.53
-2.91
-2.52
-1.65
-0.78
-0.35
-0.57
-1.40
-2.59
-3.93
-5.42
-7.21
-9.56
-12.63
-16.37
-20.51
-24.74
-28.77
-32.52
-36.02
-39.37
-42.64
-45.85
-48.82
-51.21
-52.45
-51.76
-48.27
-41.29
-30.56
-16.55
-0.60
15.33
29.14
39.25
45.13
47.52
48.20
49.32
52.70
59.16
68.26
78.50
87.91
94.69
97.70
96.51
91.22
82.15
69.72
54.60
37.96
21.51
7.27
-3.00
-8.37
-8.88
-5.49
0.46
7.61
14.81
21.13
25.93
28.85
29.90
29.48
28.09
26.09
23.43
19.75
14.68
8.17
0.70
-6.85
-13.61
-19.04
-23.11
-26.19
-28.84
-31.43
-34.13
-36.81
-39.26
-41.29
-42.88
-44.17
-45.45
-47.07
-49.20
-51.65
-53.86
-55.02
-54.33
-51.41
-46.49
-40.43
-34.42
-29.51
-26.46
-25.25
-25.04
-23.98
-19.35
-8.05
12.58
43.63
83.80
129.23
174.36
213.57
242.83
260.80
268.65
268.94
264.07
255.14
241.71
222.58
196.83
164.86
128.57
90.85
54.80
22.78
-3.97
-25.22
-41.37
-53.02
-60.72
-64.86
-65.90
-64.50
-61.65
-58.59
-56.44
-55.84
-56.76
-58.49
-59.92
-60.06
-58.31
-54.75
-49.89
-44.45
-39.01
-33.81
-28.91
-24.21
-19.73
-15.61
-12.08
-9.33
-7.35
-6.01
-5.02
-4.12
-3.13
-1.98
-0.69
0.64
1.91
3.07
4.14
5.19
6.37
7.73
9.12
10.21
10.63
10.17
8.93
7.29
5.65
4.14
2.37
-0.44
-5.13
-12.36
-22.40
-35.24
-50.72
-68.50
-87.85
-107.58
-125.98
-141.24
-152.07
-158.09
-159.83
-158.26
-154.22
-147.99
-139.35
-127.97
-113.88
-97.71
-80.53
-63.47
-47.35
-32.57
-19.24
-7.39
2.74
10.84
16.60
20.03
21.53
21.74
21.42
21.15
21.24
21.79
22.82
24.34
26.36
28.81
31.49
34.16
36.61
38.80
40.81
42.77
44.71
46.49
47.82
48.36
47.83
46.12
43.26
39.48
35.11
30.46
25.81
21.19
16.41
11.09
4.77
-2.82
-11.49
-20.59
-29.05
-35.68
-39.54
-40.20
-37.86
-33.16
-26.98
-20.17
-13.42
-7.18
-1.76
2.71
6.15
8.64
10.34
11.44
12.13
12.60
13.00
13.47
14.10
14.86
15.60
16.13
16.31
16.07
15.52
14.74
13.82
12.73
11.37
9.66
7.63
5.46
3.38
1.62
0.23
-0.89
-1.96
-3.18
-4.74
-6.65
-8.78
-10.95
-12.93
-14.60
-15.95
-17.13
-18.40
-20.05
-22.18
-24.64
-26.98
-28.57
-28.81
-27.31
-24.04
-19.30
-13.62
-7.57
-1.65
3.79
8.53
12.43
15.41
17.47
18.73
19.43
19.89
20.39
21.13
22.08
23.08
23.94
24.49
24.67
24.53
24.12
23.53
22.83
22.13
21.47
20.85
20.18
19.32
18.13
16.56
14.72
12.82
11.00
9.30
7.59
5.66
3.36
0.70
-2.13
-4.86
-7.27
-9.34
-11.15
-12.89
-14.74
-16.78
-19.00
-21.30
-23.49
-25.33
-26.53
-26.72
-25.63
-23.14
-19.38
-14.70
-9.65
-4.81
-0.62
2.72
5.31
7.38
9.20
10.88
12.35
13.44
13.98
14.03
13.75
13.43
13.28
13.35
13.57
13.82
14.01
14.09
14.08
13.99
13.78
13.41
12.80
11.95
10.87
9.67
8.47
7.43
6.62
6.05
5.59
5.04
4.21
2.98
1.38
-0.47
-2.36
-4.19
-5.90
-7.54
-9.29
-11.26
-13.58
-16.18
-18.89
-21.34
-23.13
-23.87
-23.29
-21.31
-18.06
-13.84
-9.07
-4.21
0.29
4.14
7.22
9.56
11.32
12.65
13.67
14.42
14.97
15.40
15.84
16.33
16.85
17.28
17.53
17.55
17.41
17.27
17.21
17.24
17.21
16.96
16.34
15.32
13.91
12.19
10.20
7.99
5.58
3.05
0.53
-1.90
-4.12
-6.10
-7.86
-9.44
-10.90
-12.32
-13.79
-15.41
-17.29
-19.50
-22.03
-24.68
-27.06
-28.62
-28.83
-27.34
-24.13
-19.53
-14.11
-8.44
-2.96
2.03
6.40
10.08
13.02
15.19
16.66
17.58
18.13
18.45
18.58
18.50
18.16
17.62
16.95
16.33
15.91
15.76
15.90
16.27
16.76
17.22
17.42
17.19
16.38
14.99
13.15
11.09
9.00
6.99
5.02
2.98
0.81
-1.51
-3.91
-6.30
-8.61
-10.80
-12.87
-14.85
-16.79
-18.78
-20.92
-23.30
-25.88
-28.45
-30.59
-31.84
-31.73
-30.00
-26.62
-21.85
-16.17
-10.20
-4.52
0.46
4.55
7.85
10.56
12.86
14.84
16.42
17.47
17.94
17.93
17.63
17.29
17.05
16.90
16.80
16.72
16.72
16.90
17.32
17.92
18.47
18.73
18.48
17.71
16.54
15.18
13.80
12.44
11.04
9.47
7.57
5.24
2.46
-0.67
-3.94
-7.07
-9.81
-12.00
-13.69
-15.11
-16.56
-18.29
-20.42
-22.91
-25.54
-28.07
-30.17
-31.47
-31.62
-30.31
-27.41
-23.07
-17.73
-11.98
-6.44
-1.49
2.69
6.13
8.93
11.14
12.73
13.69
14.08
14.06
13.86
13.69
13.66
13.79
14.06
14.47
15.02
15.75
16.61
17.52
18.33
18.93
19.23
19.19
18.84
18.19
17.28
16.12
14.76
13.31
11.87
10.53
9.28
8.02
6.56
4.77
2.60
0.15
-2.40
-4.85
-7.11
-9.25
-11.40
-13.74
-16.37
-19.28
-22.37
-25.43
-28.18
-30.24
-31.18
-30.62
-28.34
-24.35
-18.97
-12.73
-6.28
-0.19
5.07
9.27
12.36
14.49
15.83
16.57
16.83
16.69
16.21
15.48
14.69
14.05
13.71
13.73
14.03
14.45
14.83
15.09
15.26
15.37
15.46
15.48
15.30
14.77
13.81
12.46
10.85
9.19
7.60
6.09
4.56
2.90
1.04
-1.01
-3.18
-5.40
-7.59
-9.72
-11.80
-13.80
-15.70
-17.48
-19.18
-20.88
-22.71
-24.71
-26.82
-28.72
-29.92
-29.86
-28.16
-24.74
-19.87
-14.11
-8.11
-2.44
2.59
6.81
10.18
12.69
14.32
15.07
15.08
14.59
13.90
13.28
12.87
12.67
12.60
12.54
12.44
12.34
12.31
12.42
12.61
12.77
12.76
12.44
11.75
10.73
9.53
8.28
7.10
6.05
5.08
4.10
2.98
1.58
-0.16
-2.25
-4.59
-6.99
-9.21
-11.10
-12.62
-13.88
-15.13
-16.63
-18.51
-20.74
-23.12
-25.32
-27.01
-27.92
-27.81
-26.57
-24.15
-20.62
-16.17
-11.12
-5.85
-0.76
3.80
7.59
10.49
12.52
13.82
14.55
14.90
14.94
14.64
13.96
12.91
11.62
10.37
9.42
8.92
8.82
8.92
9.02
9.01
8.99
9.13
9.60
10.37
11.20
11.72
11.64
10.84
9.45
7.71
5.91
4.18
2.56
0.97
-0.70
-2.54
-4.61
-6.93
-9.50
-12.25
-15.06
-17.76
-20.25
-22.54
-24.79
-27.21
-29.85
-32.54
-34.85
-36.19
-36.06
-34.21
-30.72
-26.01
-20.66
-15.31
-10.46
-6.42
-3.29
-1.06
0.39
1.10
1.11
0.40
-0.99
-2.90
-5.03
-7.02
-8.57
-9.58
-10.23
-10.97
-12.34
-14.74
-18.19
-22.33
-26.49
-30.05
-32.74
-34.89
-37.32
-41.05
-46.79
-54.52
-63.35
-71.82
-78.43
-82.25
-83.20
-81.97
-79.58
-76.75
-73.53
-69.28
-62.92
-53.26
-39.27
-20.42
3.11
29.95
57.54
82.49
101.58
112.71
115.80
112.70
106.56
100.68
97.40
97.40
99.60
101.77
101.44
97.16
89.19
79.53
70.99
65.67
63.73
63.27
61.61
57.27
51.29
46.97
48.12
56.65
71.06
86.94
99.05
103.85
100.94
92.76
82.68
72.97
63.67
52.98
38.90
20.89
0.57
-18.84
-33.98
-42.95
-46.09
-45.66
-44.80
-46.14
-50.89
-58.64
-67.80
-76.39
-82.87
-86.61
-87.95
-87.66
-86.44
-84.48
-81.45
-76.83
-70.42
-62.70
-54.82
-48.14
-43.65
-41.41
-40.49
-39.27
-36.12
-30.11
-21.40
-11.19
-1.20
6.97
12.43
15.17
15.88
15.52
14.88
14.30
13.79
13.23
12.55
11.84
11.26
10.94
10.81
10.78
10.70
10.52
10.16
9.44
7.91
5.10
0.69
-5.13
-11.55
-17.33
-21.27
-22.59
-21.40
-18.59
-15.59
-13.87
-14.49
-17.86
-23.62
-30.79
-37.97
-43.78
-47.08
-47.19
-44.08
-38.20
-30.39
-21.68
-13.04
-5.25
1.18
6.07
9.56
11.97
13.70
15.12
16.45
17.71
18.80
19.58
20.02
20.27
20.64
21.54
23.31
26.03
29.44
32.98
35.87
37.36
36.87
34.14
29.26
22.61
14.80
6.60
-1.03
-7.08
-10.64
-11.16
-8.74
-4.21
0.96
5.07
6.66
4.90
-0.23
-8.05
-17.40
-27.01
-35.68
-42.45
-46.68
-48.03
-46.50
-42.41
-36.39
-29.27
-21.90
-15.07
-9.24
-4.60
-1.00
1.85
4.18
6.06
7.41
8.04
7.90
7.09
5.92
4.78
3.98
3.69
3.94
4.66
5.74
7.10
8.67
10.33
11.91
13.19
13.97
14.14
13.68
12.67
11.27
9.63
7.91
6.22
4.70
3.46
2.55
1.89
1.24
0.25
-1.46
-4.02
-7.24
-10.55
-13.15
-14.34
-13.73
-11.42
-7.95
-4.09
-0.49
2.45
4.70
6.46
7.99
9.41
10.73
11.84
12.68
13.23
13.59
13.89
14.24
14.75
15.49
16.48
17.65
18.79
19.59
19.72
19.03
17.53
15.45
13.09
10.78
8.70
6.92
5.37
3.92
2.44
0.83
-0.97
-2.89
-4.89
-6.92
-8.96
-11.14
-13.65
-16.63
-20.12
-23.98
-27.85
-31.23
-33.58
-34.44
-33.53
-30.82
-26.51
-21.03
-14.89
-8.56
-2.46
3.13
7.99
12.00
15.08
17.23
18.51
19.05
19.03
18.68
18.21
17.81
17.58
17.57
17.73
17.94
18.06
17.95
17.54
16.80
15.79
14.57
13.22
11.77
10.14
8.23
5.91
3.11
-0.08
-3.46
-6.76
-9.77
-12.45
-14.94
-17.48
-20.29
-23.49
-26.98
-30.51
-33.69
-36.12
-37.41
-37.22
-35.33
-31.67
-26.40
-19.91
-12.80
-5.70
0.86
6.52
11.13
14.72
17.44
19.45
20.87
21.76
22.20
22.30
22.21
22.09
22.10
22.40
23.06
24.10
25.40
26.72
27.75
28.16
27.71
26.31
24.05
21.23
18.15
15.06
12.05
9.08
6.02
2.82
-0.50
-3.82
-6.95
-9.79
-12.35
-14.80
-17.35
-20.20
-23.33
-26.65
-29.93
-32.88
-35.14
-36.27
-35.82
-33.51
-29.27
-23.46
-16.76
-9.99
-3.82
1.35
5.47
8.77
11.57
14.20
16.85
19.58
22.34
24.98
27.33
29.21
30.51
31.22
31.39
31.14
30.64
30.03
29.49
29.10
28.91
28.79
28.57
27.99
26.82
24.97
22.48
19.53
16.40
13.38
10.59
8.05
5.58
2.95
-0.02
-3.30
-6.69
-9.90
-12.71
-15.09
-17.20
-19.33
-21.78
-24.73
-28.15
-31.79
-35.18
-37.75
-38.87
-38.05
-35.09
-30.13
-23.64
-16.34
-8.92
-1.95
4.23
9.46
13.71
17.02
19.47
21.19
22.38
23.21
23.84
24.34
24.71
24.93
25.00
24.94
24.81
24.65
24.45
24.19
23.79
23.17
22.33
21.27
20.05
18.70
17.21
15.52
13.58
11.42
9.15
6.92
4.85
2.88
0.86
-1.41
-4.04
-6.90
-9.68
-12.10
-14.01
-15.52
-16.92
-18.52
-20.50
-22.91
-25.69
-28.74
-31.97
-35.18
-38.00
-39.86
-40.13
-38.37
-34.53
-28.98
-22.43
-15.65
-9.26
-3.58
1.31
5.50
9.11
12.22
14.84
16.96
18.62
19.82
20.59
20.93
20.86
20.45
19.85
19.19
18.60
18.11
17.68
17.25
16.88
16.67
16.71
17.02
17.35
17.31
16.45
14.57
11.81
8.63
5.59
3.13
1.35
0.02
-1.26
-2.84
-4.84
-7.14
-9.50
-11.67
-13.54
-15.17
-16.72
-18.40
-20.34
-22.57
-25.04
-27.54
-29.79
-31.38
-31.83
-30.75
-27.90
-23.36
-17.58
-11.25
-5.17
0.02
3.99
6.78
8.67
10.06
11.28
12.48
13.66
14.69
15.47
15.94
16.10
16.03
15.79
15.44
15.02
14.55
14.11
13.74
13.46
13.22
12.86
12.24
11.28
9.98
8.49
6.96
5.55
4.32
3.25
2.17
0.90
-0.69
-2.64
-4.87
-7.18
-9.37
-11.29
-12.89
-14.29
-15.66
-17.20
-19.05
-21.24
-23.71
-26.25
-28.55
-30.18
-30.70
-29.75
-27.22
-23.31
-18.47
-13.30
-8.36
-4.05
-0.47
2.49
5.04
7.34
9.45
11.31
12.82
13.86
14.43
14.58
14.44
14.15
13.80
13.45
13.14
12.91
12.85
12.98
13.27
13.57
13.67
13.40
12.64
11.47
10.01
8.44
6.92
5.51
4.19
2.96
1.79
0.63
-0.60
-1.98
-3.55
-5.33
-7.28
-9.30
-11.36
-13.35
-15.22
-16.91
-18.37
-19.68
-20.98
-22.49
-24.32
-26.37
-28.30
-29.56
-29.59
-28.04
-24.91
-20.59
-15.70
-10.88
-6.59
-2.99
-0.02
2.55
4.85
6.89
8.58
9.80
10.53
10.88
11.05
11.18
11.36
11.52
11.57
11.44
11.17
10.90
10.78
10.89
11.19
11.51
11.65
11.45
10.86
9.94
8.80
7.60
6.39
5.25
4.16
3.15
2.19
1.25
0.24
-0.94
-2.40
-4.17
-6.10
-8.01
-9.64
-10.85
-11.69
-12.35
-13.16
-14.36
-16.04
-18.11
-20.33
-22.37
-23.93
-24.71
-24.52
-23.25
-20.85
-17.45
-13.32
-8.84
-4.44
-0.47
2.80
5.33
7.17
8.49
9.46
10.15
10.60
10.79
10.69
10.35
9.87
9.43
9.18
9.19
9.45
9.88
10.35
10.77
11.06
11.21
11.19
11.01
10.66
10.10
9.32
8.35
7.19
5.94
4.69
3.49
2.38
1.30
0.21
-0.89
-1.98
-3.01
-3.95
-4.86
-5.85
-7.03
-8.43
-9.98
-11.58
-13.19
-14.81
-16.46
-18.19
-19.93
-21.49
-22.65
-23.14
-22.75
-21.35
-18.98
-15.80
-12.18
-8.55
-5.29
-2.65
-0.63
0.95
2.34
3.71
5.07
6.25
7.05
7.36
7.17
6.66
6.06
5.60
5.43
5.59
6.03
6.65
7.34
7.96
8.42
8.68
8.75
8.68
8.49
8.15
7.60
6.76
5.61
4.20
2.66
1.11
-0.36
-1.71
-2.92
-4.05
-5.18
-6.35
-7.62
-8.94
-10.26
-11.52
-12.72
-13.93
-15.25
-16.75
-18.33
-19.77
-20.75
-20.94
-20.14
-18.28
-15.49
-12.00
-8.16
-4.34
-0.90
1.93
4.03
5.45
6.32
6.78
6.99
7.06
7.10
7.19
7.42
7.80
8.25
8.65
8.86
8.86
8.76
8.71
8.81
9.07
9.35
9.50
9.38
8.92
8.17
7.18
6.05
4.87
3.72
2.62
1.55
0.41
-0.95
-2.56
-4.35
-6.10
-7.59
-8.68
-9.47
-10.23
-11.27
-12.77
-14.66
-16.71
-18.63
-20.16
-21.17
-21.63
-21.48
-20.64
-19.04
-16.64
-13.52
-9.92
-6.23
-2.85
-0.08
1.95
3.36
4.30
5.01
5.63
6.19
6.65
6.98
7.19
7.38
7.62
7.97
8.41
8.87
9.27
9.58
9.86
10.15
10.48
10.81
10.98
10.83
10.22
9.12
7.62
5.92
4.18
2.57
1.15
-0.08
-1.17
-2.14
-3.06
-3.94
-4.83
-5.79
-6.89
-8.20
-9.76
-11.62
-13.78
-16.20
-18.78
-21.37
-23.71
-25.46
-26.25
-25.77
-23.87
-20.69
-16.60
-12.10
-7.70
-3.76
-0.44
2.25
4.43
6.20
7.65
8.83
9.75
10.43
10.84
11.02
11.02
10.93
10.87
10.92
11.12
11.46
11.93
12.45
12.92
13.19
13.06
12.39
11.16
9.51
7.69
5.97
4.57
3.53
2.80
2.27
1.79
1.29
0.71
-0.01
-0.94
-2.16
-3.71
-5.57
-7.63
-9.71
-11.66
-13.44
-15.13
-16.85
-18.65
-20.37
-21.65
-22.04
-21.13
-18.80
-15.22
-10.82
-6.08
-1.48
2.56
5.78
7.99
9.19
9.52
9.30
8.88
8.54
8.41
8.48
8.70
9.08
9.65
10.49
11.57
12.74
13.78
14.52
14.91
15.01
14.91
14.63
14.09
13.16
11.78
9.97
7.90
5.75
3.65
1.60
-0.47
-2.62
-4.81
-6.89
-8.66
-10.02
-11.03
-11.89
-12.84
-14.12
-15.80
-17.88
-20.30
-22.97
-25.79
-28.49
-30.67
-31.77
-31.33
-29.07
-25.11
-19.90
-14.12
-8.42
-3.29
1.08
4.70
7.67
10.11
12.04
13.45
14.32
14.66
14.54
14.13
13.58
13.06
12.65
12.39
12.29
12.33
12.50
12.82
13.20
13.50
13.51
13.02
11.98
10.46
8.68
6.89
5.22
3.63
1.96
-0.03
-2.47
-5.30
-8.35
-11.37
-14.15
-16.67
-19.00
-21.37
-23.98
-26.96
-30.23
-33.51
-36.29
-37.94
-37.86
-35.62
-31.15
-24.76
-17.13
-9.11
-1.53
4.98
10.13
13.83
16.22
17.49
17.82
17.38
16.35
14.93
13.44
12.22
11.59
11.77
12.79
14.52
16.72
19.10
21.42
23.50
25.23
26.48
27.09
26.89
25.76
23.73
20.95
17.74
14.40
11.21
8.23
5.44
2.65
-0.30
-3.50
-6.91
-10.41
-13.82
-16.97
-19.79
-22.32
-24.69
-27.06
-29.65
-32.58
-35.78
-38.93
-41.43
-42.54
-41.59
-38.20
-32.48
-25.03
-16.72
-8.47
-0.96
5.53
11.00
15.63
19.57
22.80
25.24
26.83
27.67
28.00
28.16
28.42
28.88
29.48
30.09
30.57
30.89
31.08
31.18
31.21
31.07
30.67
29.88
28.63
26.89
24.71
22.14
19.28
16.25
13.18
10.19
7.36
4.65
1.99
-0.72
-3.55
-6.48
-9.43
-12.29
-15.00
-17.54
-20.04
-22.67
-25.62
-29.01
-32.84
-36.95
-40.98
-44.39
-46.55
-46.82
-44.71
-40.11
-33.28
-24.92
-15.92
-7.17
0.67
7.29
12.72
17.20
20.95
24.11
26.67
28.54
29.68
30.17
30.21
30.09
30.01
29.99
29.90
29.57
28.90
27.94
26.84
25.81
24.95
24.25
23.62
22.93
22.07
20.97
19.62
18.00
16.09
13.90
11.46
8.84
6.12
3.41
0.73
-1.92
-4.59
-7.34
-10.17
-13.03
-15.73
-18.15
-20.25
-22.23
-24.43
-27.23
-30.83
-35.11
-39.60
-43.53
-46.10
-46.62
-44.74
-40.48
-34.21
-26.57
-18.33
-10.17
-2.62
4.03
9.66
14.28
18.00
20.94
23.19
24.84
25.96
26.57
26.73
26.61
26.40
26.33
26.57
27.09
27.77
28.41
28.81
28.87
28.51
27.74
26.53
24.91
22.91
20.64
18.16
15.58
12.94
10.31
7.78
5.44
3.36
1.48
-0.39
-2.47
-4.94
-7.79
-10.85
-13.86
-16.60
-19.05
-21.36
-23.83
-26.74
-30.28
-34.44
-38.95
-43.35
-46.94
-48.99
-48.78
-45.90
-40.40
-32.81
-24.02
-15.09
-6.90
0.04
5.61
10.04
13.65
16.67
19.21
21.23
22.69
23.61
24.12
24.45
24.76
25.17
25.70
26.30
26.93
27.55
28.12
28.59
28.85
28.81
28.36
27.45
26.08
24.27
22.08
19.58
16.92
14.26
11.78
9.53
7.52
5.61
3.67
1.56
-0.76
-3.33
-6.12
-9.12
-12.32
-15.70
-19.22
-22.81
-26.35
-29.80
-33.15
-36.42
-39.69
-42.96
-46.08
-48.69
-50.21
-49.95
-47.34
-42.17
-34.70
-25.67
-16.07
-6.86
1.27
7.95
13.15
17.01
19.82
21.86
23.38
24.59
25.60
26.42
26.98
27.19
27.02
26.52
25.82
25.11
24.59
24.36
24.39
24.50
24.44
23.96
22.93
21.41
19.60
17.70
15.87
14.11
12.36
10.54
8.68
6.84
5.10
3.45
1.80
-0.04
-2.23
-4.87
-7.90
-11.15
-14.42
-17.54
-20.34
-22.79
-24.96
-26.99
-29.11
-31.55
-34.41
-37.61
-40.79
-43.40
-44.79
-44.37
-41.77
-36.99
-30.39
-22.61
-14.43
-6.61
0.30
6.00
10.46
13.84
16.38
18.30
19.75
20.78
21.41
21.67
21.65
21.47
21.25
21.07
20.94
20.84
20.78
20.76
20.82
20.89
20.85
20.52
19.74
18.46
16.73
14.72
12.58
10.46
8.40
6.40
4.44
2.52
0.65
-1.18
-3.04
-5.03
-7.25
-9.79
-12.61
-15.58
-18.49
-21.18
-23.57
-25.74
-27.92
-30.37
-33.31
-36.68
-40.14
-43.05
-44.65
-44.24
-41.46
-36.40
-29.55
-21.74
-13.80
-6.39
0.07
5.44
9.79
13.34
16.45
19.47
22.68
26.16
29.77
33.09
35.64
37.04
37.13
35.98
33.87
31.14
28.12
25.10
22.28
19.84
17.88
16.39
15.25
14.28
13.23
11.93
10.32
8.44
6.48
4.57
2.74
0.91
-1.12
-3.52
-6.38
-9.68
-13.28
-17.01
-20.68
-24.13
-27.28
-30.10
-32.68
-35.15
-37.60
-39.99
-42.03
-43.24
-43.12
-41.23
-37.47
-32.02
-25.31
-17.96
-10.61
-3.84
1.93
6.48
9.87
12.29
14.06
15.40
16.43
17.14
17.47
17.38
16.98
16.43
15.90
15.50
15.23
15.04
14.84
14.61
14.31
13.93
13.45
12.88
12.25
11.62
11.02
10.46
9.85
9.04
7.85
6.15
3.92
1.31
-1.42
-3.98
-6.14
-7.81
-9.07
-10.12
-11.24
-12.64
-14.44
-16.66
-19.24
-21.99
-24.65
-26.79
-27.87
-27.39
-25.03
-20.74
-14.88
-8.06
-1.04
5.47
10.99
15.26
18.28
20.12
20.93
20.79
19.86
18.29
16.35
14.40
12.77
11.67
11.16
11.12
11.35
11.74
12.26
12.91
13.70
14.52
15.19
15.46
15.16
14.20
12.67
10.73
8.53
6.22
3.89
1.58
-0.71
-3.02
-5.39
-7.85
-10.40
-13.00
-15.57
-18.05
-20.38
-22.54
-24.60
-26.73
-29.13
-31.94
-35.10
-38.21
-40.60
-41.45
-40.12
-36.34
-30.38
-22.99
-15.10
-7.55
-0.88
4.70
9.23
12.82
15.59
17.57
18.84
19.55
19.86
20.01
20.13
20.29
20.46
20.62
20.77
20.99
21.32
21.77
22.25
22.57
22.55
22.07
21.05
19.53
17.59
15.32
12.87
10.37
7.99
5.83
3.93
2.19
0.46
-1.39
-3.45
-5.68
-8.02
-10.42
-12.91
-15.56
-18.48
-21.70
-25.16
-28.70
-32.07
-34.91
-36.80
-37.32
-36.09
-32.99
-28.17
-22.10
-15.46
-8.96
-3.11
1.82
5.83
9.08
11.73
13.86
15.46
16.49
16.98
17.06
17.01
17.06
17.38
17.94
18.59
19.10
19.34
19.29
19.02
18.62
18.15
17.59
16.85
15.88
14.66
13.23
11.62
9.89
7.99
5.91
3.58
1.00
-1.76
-4.58
-7.32
-9.85
-12.21
-14.46
-16.75
-19.17
-21.76
-24.53
-27.51
-30.66
-33.84
-36.69
-38.57
-38.76
-36.67
-32.15
-25.60
-17.87
-9.95
-2.71
3.38
8.17
11.80
14.52
16.56
18.15
19.37
20.30
20.96
21.34
21.46
21.37
21.18
20.95
20.74
20.51
20.22
19.89
19.57
19.33
19.20
19.11
18.91
18.43
17.55
16.25
14.62
12.75
10.71
8.53
6.22
3.75
1.16
-1.50
-4.16
-6.77
-9.29
-11.73
-14.05
-16.30
-18.54
-20.91
-23.60
-26.72
-30.28
-34.04
-37.46
-39.87
-40.59
-39.15
-35.44
-29.82
-22.96
-15.69
-8.73
-2.59
2.54
6.69
10.02
12.70
14.83
16.48
17.66
18.45
18.96
19.36
19.79
20.36
21.07
21.82
22.48
22.90
23.06
23.03
22.95
22.90
22.85
22.60
21.90
20.55
18.52
15.99
13.26
10.61
8.24
6.14
4.21
2.26
0.15
-2.19
-4.76
-7.54
-10.45
-13.36
-16.12
-18.61
-20.81
-22.82
-24.84
-27.10
-29.73
-32.69
-35.75
-38.46
-40.24
-40.54
-38.96
-35.40
-30.08
-23.59
-16.60
-9.87
-3.87
1.20
5.42
8.99
12.16
15.08
17.79
20.20
22.20
23.65
24.49
24.74
24.55
24.15
23.72
23.37
23.11
22.84
22.47
21.95
21.28
20.55
19.78
18.96
18.00
16.80
15.27
13.43
11.38
9.24
7.22
5.45
3.94
2.57
1.13
-0.65
-2.87
-5.48
-8.25
-10.85
-13.06
-14.91
-16.58
-18.41
-20.64
-23.37
-26.47
-29.74
-32.93
-35.79
-38.03
-39.24
-38.98
-36.92
-32.98
-27.47
-21.01
-14.33
-8.10
-2.69
1.82
5.57
8.75
11.47
13.71
15.39
16.44
16.95
17.11
17.20
17.46
17.95
18.64
19.40
20.10
20.69
21.16
21.54
21.84
21.97
21.84
21.34
20.38
19.00
17.25
15.29
13.24
11.24
9.34
7.53
5.72
3.81
1.72
-0.59
-3.07
-5.64
-8.17
-10.57
-12.77
-14.82
-16.84
-18.99
-21.45
-24.31
-27.60
-31.12
-34.53
-37.31
-38.86
-38.66
-36.40
-32.11
-26.15
-19.18
-11.95
-5.13
0.80
5.63
9.37
12.21
14.33
15.99
17.31
18.36
19.13
19.56
19.61
19.27
18.70
18.11
17.75
17.77
18.18
18.84
19.53
20.03
20.20
20.03
19.56
18.86
17.93
16.75
15.27
13.48
11.42
9.22
7.06
5.05
3.19
1.35
-0.62
-2.89
-5.45
-8.17
-10.85
-13.34
-15.55
-17.56
-19.51
-21.56
-23.86
-26.49
-29.45
-32.58
-35.60
-38.08
-39.52
-39.48
-37.68
-34.10
-28.99
-22.80
-16.08
-9.36
-3.10
2.40
6.99
10.64
13.41
15.36
16.60
17.21
17.31
17.01
16.49
15.87
15.37
15.16
15.36
16.07
17.24
18.72
20.25
21.57
22.41
22.67
22.38
21.70
20.77
19.71
18.49
17.02
15.23
13.08
10.69
8.24
5.86
3.62
1.45
-0.79
-3.19
-5.77
-8.47
-11.12
-13.59
-15.84
-17.83
-19.71
-21.62
-23.77
-26.27
-29.14
-32.23
-35.25
-37.76
-39.24
-39.23
-37.39
-33.65
-28.23
-21.65
-14.55
-7.60
-1.29
4.14
8.63
12.26
15.12
17.25
18.69
19.46
19.68
19.56
19.30
19.14
19.19
19.44
19.78
20.00
19.96
19.65
19.16
18.65
18.21
17.84
17.36
16.62
15.50
14.03
12.38
10.71
9.15
7.74
6.43
5.09
3.65
2.05
0.26
-1.74
-3.93
-6.31
-8.80
-11.29
-13.70
-15.99
-18.23
-20.59
-23.28
-26.44
-30.02
-33.73
-37.02
-39.32
-40.06
-38.90
-35.76
-30.84
-24.56
-17.50
-10.23
-3.33
2.76
7.77
11.58
14.22
15.85
16.63
16.74
16.35
15.64
14.75
13.89
13.21
12.81
12.76
13.01
13.45
13.95
14.42
14.79
15.04
15.12
14.91
14.33
13.29
11.83
10.10
8.31
6.61
5.04
3.47
1.67
-0.54
-3.20
-6.14
-9.09
-11.76
-14.00
-15.85
-17.46
-19.09
-20.97
-23.24
-25.91
-28.81
-31.59
-33.75
-34.71
-33.95
-31.25
-26.70
-20.81
-14.30
-7.91
-2.16
2.70
6.67
9.86
12.36
14.20
15.40
15.99
16.15
16.08
15.99
16.02
16.15
16.32
16.45
16.51
16.47
16.40
16.33
16.27
16.16
15.90
15.40
14.61
13.51
12.17
10.66
9.05
7.34
5.46
3.29
0.74
-2.19
-5.43
-8.76
-11.97
-14.86
-17.40
-19.65
-21.81
-24.07
-26.60
-29.42
-32.38
-35.14
-37.20
-38.08
-37.32
-34.73
-30.44
-24.85
-18.53
-12.06
-5.90
-0.34
4.45
8.44
11.61
13.99
15.70
16.90
17.75
18.38
18.84
19.16
19.38
19.51
19.66
19.88
20.19
20.56
20.91
21.16
21.22
21.03
20.48
19.48
17.99
16.06
13.82
11.51
9.35
7.47
5.83
4.26
2.52
0.44
-2.06
-4.84
-7.72
-10.49
-13.05
-15.49
-18.02
-20.89
-24.21
-27.93
-31.76
-35.28
-37.99
-39.44
-39.25
-37.19
-33.22
-27.56
-20.68
-13.24
-5.96
0.57
6.02
10.36
13.79
16.55
18.82
20.66
21.99
22.77
23.05
23.00
22.88
22.87
23.05
23.30
23.50
23.53
23.35
23.08
22.77
22.46
22.05
21.39
20.36
18.90
17.08
15.01
12.84
10.63
8.40
6.11
3.70
1.14
-1.52
-4.21
-6.82
-9.27
-11.54
-13.71
-15.88
-18.22
-20.81
-23.67
-26.77
-30.03
-33.31
-36.41
-38.97
-40.46
-40.43
-38.49
-34.57
-28.94
-22.15
-14.90
-7.83
-1.43
4.06
8.60
12.31
15.41
18.04
20.28
22.09
23.38
24.09
24.28
24.10
23.74
23.36
22.99
22.62
22.25
21.95
21.83
21.94
22.18
22.34
22.09
21.17
19.50
17.21
14.58
11.90
9.34
6.96
4.70
2.43
0.07
-2.40
-4.94
-7.49
-10.00
-12.48
-14.94
-17.40
-19.84
-22.25
-24.63
-27.02
-29.48
-31.94
-34.17
-35.77
-36.22
-35.07
-32.05
-27.23
-20.99
-13.95
-6.79
-0.14
5.58
10.17
13.69
16.31
18.27
19.72
20.66
21.06
20.92
20.35
19.63
19.04
18.80
18.98
19.54
20.33
21.19
22.01
22.67
23.07
23.12
22.69
21.74
20.29
18.39
16.14
13.70
11.17
8.73
6.44
4.31
2.22
-0.01
-2.49
-5.24
-8.09
-10.86
-13.32
-15.46
-17.39
-19.36
-21.61
-24.33
-27.53
-31.08
-34.67
-37.86
-40.09
-40.82
-39.61
-36.28
-31.04
-24.41
-17.10
-9.84
-3.15
2.66
7.47
11.33
14.30
16.47
17.97
18.96
19.68
20.35
21.13
22.02
22.92
23.66
24.05
24.04
23.68
23.11
22.56
22.18
22.02
21.99
21.90
21.48
20.53
18.98
16.88
14.37
11.67
8.96
6.44
4.25
2.45
0.95
-0.46
-2.05
-4.04
-6.50
-9.30
-12.19
-14.95
-17.48
-19.83
-22.16
-24.57
-27.10
-29.74
-32.46
-35.23
-37.91
-40.17
-41.46
-41.16
-38.77
-34.18
-27.77
-20.27
-12.52
-5.26
1.08
6.36
10.63
14.01
16.59
18.48
19.76
20.59
21.12
21.50
21.83
22.10
22.30
22.36
22.28
22.09
21.90
21.79
21.80
21.85
21.81
21.48
20.77
19.68
18.31
16.78
15.17
13.48
11.65
9.63
7.46
5.27
3.22
1.40
-0.20
-1.71
-3.33
-5.23
-7.48
-10.02
-12.71
-15.41
-18.00
-20.40
-22.59
-24.63
-26.67
-28.87
-31.41
-34.33
-37.42
-40.16
-41.80
-41.56
-38.95
-33.99
-27.17
-19.37
-11.56
-4.47
1.52
6.38
10.28
13.42
15.92
17.82
19.10
19.82
20.11
20.15
20.09
20.02
19.94
19.88
19.86
19.93
20.09
20.29
20.36
20.13
19.53
18.61
17.57
16.61
15.84
15.25
14.67
13.90
12.81
11.37
9.66
7.75
5.74
3.68
1.62
-0.44
-2.55
-4.77
-7.18
-9.82
-12.59
-15.33
-17.85
-19.99
-21.82
-23.53
-25.46
-27.85
-30.76
-33.96
-36.94
-39.02
-39.60
-38.25
-34.87
-29.70
-23.27
-16.24
-9.24
-2.75
2.92
7.63
11.38
14.23
16.29
17.69
18.56
19.02
19.15
19.08
18.88
18.68
18.59
18.65
18.88
19.21
19.53
19.75
19.80
19.66
19.30
18.67
17.70
16.36
14.69
12.80
10.86
9.02
7.34
5.79
4.29
2.74
1.03
-0.86
-2.93
-5.13
-7.40
-9.68
-11.96
-14.20
-16.46
-18.80
-21.28
-23.96
-26.84
-29.88
-32.87
-35.50
-37.31
-37.80
-36.53
-33.31
-28.26
-21.80
-14.60
-7.38
-0.79
4.73
9.00
12.13
14.30
15.79
16.79
17.41
17.72
17.79
17.78
17.82
18.04
18.44
18.94
19.39
19.69
19.77
19.66
19.38
18.97
18.44
17.80
17.01
16.06
14.90
13.48
11.77
9.80
7.65
5.47
3.38
1.47
-0.31
-2.11
-4.06
-6.21
-8.49
-10.77
-12.89
-14.78
-16.51
-18.18
-19.96
-22.00
-24.41
-27.27
-30.57
-34.06
-37.26
-39.53
-40.13
-38.52
-34.53
-28.45
-21.01
-13.05
-5.39
1.40
7.04
11.54
15.04
17.69
19.61
20.82
21.36
21.28
20.72
19.85
18.88
17.96
17.22
16.79
16.74
17.11
17.81
18.64
19.34
19.65
19.41
18.58
17.31
15.75
14.03
12.27
10.53
8.88
7.35
5.93
4.55
3.10
1.49
-0.33
-2.36
-4.57
-6.90
-9.30
-11.66
-13.90
-15.90
-17.64
-19.24
-20.92
-22.94
-25.45
-28.44
-31.67
-34.73
-37.14
-38.37
-38.01
-35.82
-31.83
-26.37
-19.97
-13.28
-6.85
-1.05
3.93
8.01
11.21
13.53
15.08
16.02
16.57
16.93
17.18
17.32
17.30
17.14
16.91
16.76
16.81
17.10
17.59
18.16
18.67
18.98
19.03
18.78
18.22
17.35
16.18
14.75
13.09
11.30
9.47
7.69
5.98
4.26
2.41
0.29
-2.14
-4.78
-7.41
-9.80
-11.78
-13.34
-14.59
-15.75
-17.06
-18.74
-20.92
-23.62
-26.76
-30.09
-33.23
-35.66
-36.82
-36.26
-33.76
-29.40
-23.63
-17.12
-10.61
-4.67
0.39
4.55
7.98
10.84
13.19
14.97
16.12
16.64
16.70
16.51
16.28
16.12
16.01
15.88
15.68
15.45
15.29
15.25
15.38
15.62
15.87
16.00
15.87
15.36
14.36
12.84
10.89
8.69
6.46
4.38
2.45
0.56
-1.46
-3.72
-6.17
-8.63
-10.86
-12.70
-14.13
-15.30
-16.45
-17.86
-19.73
-22.15
-25.05
-28.09
-30.75
-32.36
-32.32
-30.31
-26.44
-21.17
-15.18
-9.12
-3.42
1.71
6.24
10.14
13.37
15.80
17.37
18.11
18.18
17.82
17.22
16.54
15.85
15.16
14.53
14.02
13.70
13.57
13.61
13.71
13.78
13.75
13.56
13.14
12.39
11.22
9.58
7.54
5.31
3.12
1.11
-0.72
-2.51
-4.46
-6.65
-9.03
-11.42
-13.64
-15.65
-17.55
-19.54
-21.86
-24.62
-27.79
-31.10
-34.12
-36.27
-36.97
-35.80
-32.69
-27.92
-22.05
-15.74
-9.52
-3.68
1.63
6.37
10.43
13.65
15.93
17.26
17.84
17.98
17.96
17.96
18.00
18.04
18.00
17.83
17.52
17.16
16.78
16.48
16.25
16.08
15.91
15.68
15.29
14.67
13.76
12.51
10.93
9.05
6.96
4.73
2.43
0.05
-2.47
-5.16
-8.00
-10.85
-13.57
-16.08
-18.35
-20.53
-22.80
-25.38
-28.37
-31.73
-35.19
-38.21
-40.17
-40.39
-38.44
-34.24
-28.20
-21.08
-13.73
-6.89
-0.94
4.00
8.02
11.26
13.85
15.92
17.56
18.91
20.08
21.12
21.98
22.58
22.88
22.92
22.85
22.82
22.95
23.27
23.71
24.16
24.49
24.57
24.20
23.22
21.54
19.21
16.49
13.76
11.36
9.49
8.08
6.80
5.23
3.06
0.23
-3.08
-6.51
-9.67
-12.34
-14.50
-16.33
-18.14
-20.24
-22.88
-26.10
-29.80
-33.63
-37.10
-39.58
-40.50
-39.40
-36.15
-30.97
-24.37
-17.10
-9.85
-3.19
2.59
7.42
11.44
14.79
17.67
20.19
22.40
24.31
25.82
26.86
27.33
27.27
26.80
26.15
25.54
25.17
25.09
25.22
25.38
25.39
25.09
24.40
23.33
21.96
20.39
18.74
17.05
15.32
13.55
11.69
9.79
7.90
6.07
4.32
2.58
0.73
-1.34
-3.67
-6.25
-8.98
-11.77
-14.49
-17.09
-19.57
-22.00
-24.47
-27.14
-30.14
-33.49
-37.09
-40.54
-43.26
-44.54
-43.75
-40.58
-35.17
-28.12
-20.25
-12.41
-5.23
1.01
6.29
10.72
14.45
17.61
20.26
22.42
24.10
25.21
25.71
25.62
25.03
24.19
23.34
22.68
22.30
22.22
22.36
22.65
22.96
23.22
23.32
23.14
22.58
21.58
20.11
18.17
15.84
13.27
10.62
8.05
5.65
3.37
1.15
-1.12
-3.48
-5.86
-8.16
-10.32
-12.33
-14.30
-16.30
-18.41
-20.66
-23.08
-25.69
-28.52
-31.48
-34.31
-36.51
-37.48
-36.62
-33.65
-28.68
-22.25
-15.13
-8.13
-1.86
3.38
7.58
10.87
13.46
15.45
16.91
17.87
18.39
18.59
18.65
18.76
19.01
19.45
19.95
20.39
20.63
20.57
20.13
19.26
18.00
16.44
14.78
13.19
11.87
10.88
10.18
9.67
9.25
8.91
8.65
8.45
8.20
7.73
6.77
5.10
2.65
-0.50
-4.15
-8.00
-11.80
-15.39
-18.69
-21.74
-24.63
-27.44
-30.23
-32.98
-35.52
-37.53
-38.65
-38.46
-36.72
-33.40
-28.70
-23.04
-16.91
-10.74
-4.86
0.51
5.26
9.26
12.49
14.98
16.82
18.20
19.28
20.14
20.78
21.10
21.04
20.64
20.09
19.60
19.44
19.69
20.30
21.08
21.72
21.95
21.55
20.49
18.85
16.83
14.63
12.43
10.31
8.26
6.25
4.27
2.35
0.55
-1.06
-2.48
-3.82
-5.27
-6.98
-9.04
-11.35
-13.71
-15.91
-17.84
-19.55
-21.29
-23.28
-25.67
-28.34
-30.97
-33.06
-34.06
-33.57
-31.37
-27.55
-22.50
-16.79
-11.06
-5.84
-1.42
2.19
5.12
7.60
9.84
11.88
13.68
15.18
16.31
17.09
17.60
17.90
18.08
18.17
18.21
18.18
18.13
18.08
18.05
18.04
17.99
17.83
17.43
16.74
15.73
14.45
12.97
11.40
9.77
8.13
6.50
4.91
3.37
1.87
0.30
-1.42
-3.39
-5.57
-7.83
-9.93
-11.70
-13.07
-14.16
-15.24
-16.58
-18.40
-20.77
-23.62
-26.73
-29.77
-32.32
-33.95
-34.29
-33.11
-30.39
-26.36
-21.41
-15.98
-10.52
-5.38
-0.83
3.01
6.11
8.56
10.52
12.13
13.44
14.43
15.04
15.28
15.19
14.94
14.67
14.48
14.40
14.42
14.47
14.53
14.59
14.64
14.64
14.56
14.32
13.88
13.22
12.31
11.17
9.82
8.31
6.68
5.00
3.33
1.71
0.17
-1.32
-2.84
-4.44
-6.19
-8.05
-9.98
-11.88
-13.70
-15.41
-17.05
-18.67
-20.34
-22.15
-24.14
-26.29
-28.39
-30.10
-30.90
-30.30
-28.01
-24.07
-18.87
-13.06
-7.33
-2.24
1.89
5.05
7.35
9.03
10.28
11.27
12.03
12.58
12.89
12.98
12.92
12.84
12.88
13.11
13.51
13.96
14.29
14.36
14.09
13.54
12.76
11.83
10.78
9.67
8.54
7.45
6.46
5.59
4.78
3.97
3.07
2.00
0.69
-0.90
-2.78
-4.91
-7.17
-9.39
-11.41
-13.16
-14.68
-16.16
-17.81
-19.76
-22.00
-24.35
-26.47
-27.95
-28.37
-27.46
-25.18
-21.67
-17.30
-12.53
-7.78
-3.33
0.66
4.12
7.03
9.38
11.17
12.45
13.23
13.60
13.58
13.24
12.67
12.02
11.51
11.29
11.42
11.81
12.30
12.70
12.92
12.99
12.97
12.94
12.88
12.69
12.25
11.47
10.35
8.95
7.42
5.88
4.41
3.04
1.74
0.43
-0.98
-2.56
-4.33
-6.19
-8.03
-9.71
-11.15
-12.41
-13.64
-15.06
-16.89
-19.27
-22.18
-25.45
-28.69
-31.39
-33.01
-33.12
-31.47
-28.13
-23.44
-17.92
-12.18
-6.70
-1.80
2.41
5.94
8.91
11.39
13.41
14.98
16.05
16.64
16.81
16.67
16.34
15.95
15.59
15.36
15.28
15.37
15.61
15.90
16.13
16.16
15.91
15.32
14.47
13.46
12.39
11.28
10.11
8.82
7.41
5.92
4.46
3.09
1.78
0.40
-1.23
-3.22
-5.51
-7.96
-10.35
-12.56
-14.56
-16.48
-18.42
-20.42
-22.42
-24.31
-26.02
-27.54
-28.79
-29.62
-29.73
-28.74
-26.37
-22.57
-17.64
-12.16
-6.74
-1.89
2.12
5.29
7.73
9.56
10.84
11.62
11.96
12.04
12.05
12.15
12.40
12.73
13.02
13.16
13.23
13.32
13.59
14.08
14.73
15.40
15.88
16.05
15.81
15.19
14.18
12.86
11.32
9.68
8.06
6.57
5.27
4.08
2.89
1.54
-0.06
-1.94
-4.00
-6.12
-8.15
-9.99
-11.66
-13.25
-14.92
-16.81
-19.04
-21.56
-24.26
-26.86
-29.08
-30.58
-31.07
-30.35
-28.26
-24.85
-20.29
-14.96
-9.36
-4.05
0.57
4.26
7.04
9.08
10.64
11.87
12.85
13.57
13.94
13.97
13.78
13.51
13.33
13.33
13.49
13.69
13.82
13.81
13.71
13.62
13.57
13.48
13.14
12.34
10.98
9.18
7.25
5.52
4.17
3.15
2.25
1.19
-0.18
-1.85
-3.68
-5.52
-7.31
-9.06
-10.89
-12.84
-14.95
-17.19
-19.51
-21.88
-24.22
-26.43
-28.27
-29.46
-29.63
-28.50
-25.97
-22.17
-17.42
-12.16
-6.82
-1.73
2.91
6.98
10.39
13.05
14.91
15.96
16.31
16.12
15.59
14.91
14.22
13.62
13.20
12.98
12.92
12.98
13.09
13.16
13.14
12.98
12.59
11.89
10.84
9.46
7.83
6.10
4.35
2.63
0.89
-0.95
-2.91
-4.96
-7.06
-9.14
-11.19
-13.25
-15.36
-17.55
-19.85
-22.27
-24.81
-27.38
-29.76
-31.60
-32.48
-32.00
-29.88
-26.13
-20.98
-14.91
-8.51
-2.36
3.05
7.43
10.72
13.02
14.50
15.33
15.63
15.48
15.04
14.54
14.25
14.32
14.74
15.32
15.84
16.12
16.14
16.01
15.83
15.58
15.17
14.44
13.36
11.98
10.42
8.80
7.11
5.29
3.25
0.95
-1.54
-4.12
-6.69
-9.19
-11.64
-14.06
-16.54
-19.13
-21.87
-24.80
-27.87
-30.97
-33.83
-36.02
-37.11
-36.64
-34.35
-30.23
-24.53
-17.81
-10.74
-3.96
2.05
7.06
11.07
14.18
16.56
18.32
19.57
20.38
20.85
21.06
21.09
20.98
20.76
20.48
20.22
20.07
20.10
20.25
20.40
20.34
19.89
18.96
17.54
15.75
13.71
11.50
9.22
6.85
4.40
1.82
-0.89
-3.75
-6.70
-9.66
-12.48
-15.06
-17.41
-19.72
-22.28
-25.38
-29.15
-33.40
-37.59
-40.92
-42.58
-41.97
-38.91
-33.67
-26.93
-19.45
-11.94
-4.85
1.59
7.31
12.24
16.32
19.52
21.86
23.49
24.59
25.35
25.85
26.11
26.17
26.08
25.94
25.83
25.79
25.74
25.59
25.26
24.75
24.10
23.29
22.23
20.81
18.92
16.57
13.92
11.19
8.54
6.04
3.62
1.15
-1.45
-4.18
-6.96
-9.67
-12.25
-14.70
-17.10
-19.55
-22.16
-25.05
-28.31
-31.94
-35.76
-39.37
-42.11
-43.22
-42.06
-38.31
-32.20
-24.43
-16.02
-7.96
-0.92
4.89
9.66
13.72
17.33
20.52
23.13
25.03
26.17
26.73
26.99
27.22
27.55
27.96
28.40
28.81
29.21
29.63
30.05
30.39
30.47
30.09
29.14
27.56
25.39
22.72
19.69
16.45
13.21
10.09
7.19
4.48
1.81
-0.97
-3.99
-7.21
-10.47
-13.52
-16.22
-18.56
-20.73
-23.06
-25.86
-29.31
-33.31
-37.48
-41.18
-43.65
-44.18
-42.28
-37.85
-31.21
-23.08
-14.37
-5.94
1.57
7.84
12.85
16.77
19.78
22.02
23.59
24.55
25.00
25.03
24.80
24.45
24.12
23.88
23.76
23.77
23.89
24.11
24.36
24.55
24.52
24.12
23.20
21.77
19.88
17.67
15.28
12.82
10.33
7.76
5.12
2.36
-0.51
-3.52
-6.71
-10.03
-13.40
-16.65
-19.58
-22.15
-24.50
-26.94
-29.77
-33.14
-36.73
-39.89
-41.76
-41.56
-38.88
-33.81
-26.88
-18.88
-10.64
-2.81
4.22
10.24
15.23
19.24
22.31
24.54
26.03
26.91
27.35
27.52
27.54
27.52
27.52
27.54
27.59
27.59
27.46
27.10
26.48
25.59
24.51
23.31
22.01
20.56
18.86
16.86
14.58
12.12
9.64
7.25
4.98
2.74
0.43
-2.06
-4.76
-7.62
-10.55
-13.45
-16.18
-18.69
-20.97
-23.08
-25.21
-27.58
-30.41
-33.77
-37.46
-40.97
-43.56
-44.44
-43.01
-39.09
-33.00
-25.42
-17.28
-9.42
-2.42
3.42
8.12
11.88
14.95
17.54
19.78
21.70
23.30
24.54
25.42
25.95
26.21
26.28
26.28
26.25
26.23
26.17
26.01
25.70
25.17
24.39
23.32
21.94
20.27
18.33
16.20
14.00
11.84
9.84
8.00
6.28
4.53
2.60
0.40
-2.06
-4.69
-7.34
-9.89
-12.28
-14.53
-16.69
-18.82
-20.95
-23.14
-25.52
-28.27
-31.50
-35.10
-38.61
-41.29
-42.34
-41.16
-37.56
-31.84
-24.67
-16.87
-9.24
-2.37
3.38
7.89
11.26
13.76
15.74
17.48
19.12
20.59
21.74
22.41
22.59
22.40
22.09
21.84
21.72
21.72
21.74
21.74
21.70
21.64
21.52
21.23
20.63
19.64
18.25
16.55
14.65
12.67
10.64
8.58
6.48
4.40
2.40
0.51
-1.32
-3.23
-5.39
-7.86
-10.57
-13.33
-15.91
-18.19
-20.17
-22.02
-23.99
-26.27
-28.91
-31.78
-34.61
-37.02
-38.61
-38.93
-37.66
-34.62
-29.92
-23.96
-17.33
-10.71
-4.65
0.52
4.77
8.17
10.88
13.00
14.58
15.66
16.30
16.64
16.82
16.98
17.20
17.51
17.87
18.21
18.44
18.51
18.33
17.91
17.30
16.60
15.94
15.32
14.69
13.92
12.88
11.50
9.83
8.00
6.13
4.31
2.54
0.75
-1.10
-3.01
-4.93
-6.77
-8.45
-9.97
-11.39
-12.77
-14.22
-15.81
-17.65
-19.90
-22.63
-25.81
-29.18
-32.20
-34.21
-34.60
-33.03
-29.54
-24.56
-18.71
-12.62
-6.81
-1.58
2.92
6.60
9.49
11.66
13.21
14.28
14.95
15.30
15.37
15.24
15.00
14.77
14.66
14.69
14.77
14.80
14.68
14.43
14.13
13.87
13.64
13.36
12.88
12.09
11.01
9.75
8.42
7.09
5.71
4.20
2.54
0.79
-0.96
-2.63
-4.23
-5.87
-7.62
-9.52
-11.47
-13.34
-14.99
-16.31
-17.32
-18.12
-18.92
-19.99
-21.56
-23.71
-26.28
-28.81
-30.66
-31.21
-30.01
-26.99
-22.38
-16.76
-10.77
-5.04
-0.05
3.97
6.97
9.11
10.59
11.65
12.44
13.07
13.60
14.03
14.38
14.67
14.94
15.20
15.48
15.71
15.85
15.84
15.60
15.11
14.37
13.43
12.34
11.20
10.03
8.91
7.89
6.93
6.02
5.07
4.06
3.02
2.02
1.12
0.31
-0.47
-1.41
-2.63
-4.22
-6.16
-8.34
-10.62
-12.81
-14.85
-16.72
-18.53
-20.39
-22.46
-24.82
-27.38
-29.85
-31.79
-32.65
-31.96
-29.54
-25.49
-20.24
-14.47
-8.83
-3.85
0.21
3.32
5.62
7.34
8.68
9.80
10.75
11.53
12.13
12.57
12.91
13.22
13.58
14.01
14.46
14.86
15.15
15.30
15.29
15.12
14.74
14.08
13.13
11.90
10.52
9.14
7.89
6.83
5.89
4.99
4.00
2.88
1.60
0.23
-1.19
-2.65
-4.15
-5.71
-7.36
-9.07
-10.77
-12.40
-13.92
-15.35
-16.79
-18.36
-20.14
-22.16
-24.29
-26.28
-27.76
-28.34
-27.66
-25.60
-22.21
-17.88
-13.08
-8.36
-4.11
-0.52
2.37
4.68
6.52
7.95
9.00
9.67
10.00
10.07
10.03
10.07
10.33
10.87
11.61
12.38
12.97
13.26
13.24
13.02
12.72
12.43
12.08
11.54
10.69
9.46
7.92
6.21
4.49
2.88
1.46
0.25
-0.85
-1.92
-3.12
-4.48
-5.97
-7.50
-9.00
-10.44
-11.93
-13.63
-15.59
-17.79
-20.07
-22.22
-24.04
-25.38
-26.08
-25.94
-24.72
-22.26
-18.59
-14.02
-9.09
-4.35
-0.21
3.18
5.94
8.29
10.37
12.13
13.41
14.03
14.00
13.51
12.88
12.41
12.28
12.47
12.84
13.24
13.56
13.78
13.94
14.06
14.08
13.89
13.38
12.49
11.24
9.72
8.03
6.27
4.49
2.68
0.79
-1.17
-3.16
-5.11
-6.91
-8.50
-9.86
-11.03
-12.13
-13.30
-14.70
-16.40
-18.43
-20.69
-22.97
-25.02
-26.53
-27.17
-26.62
-24.67
-21.31
-16.79
-11.57
-6.25
-1.40
2.64
5.76
8.07
9.73
10.96
11.86
12.56
13.11
13.62
14.12
14.59
14.97
15.18
15.19
15.06
14.95
14.97
15.15
15.43
15.65
15.59
15.13
14.19
12.84
11.17
9.32
7.43
5.63
4.02
2.60
1.33
0.11
-1.15
-2.53
-4.03
-5.62
-7.27
-8.99
-10.79
-12.73
-14.88
-17.27
-19.95
-22.87
-25.91
-28.79
-31.07
-32.21
-31.72
-29.40
-25.28
-19.80
-13.57
-7.31
-1.56
3.37
7.38
10.56
13.04
14.94
16.32
17.18
17.55
17.48
17.14
16.70
16.35
16.18
16.19
16.24
16.18
15.94
15.51
15.03
14.59
14.22
13.82
13.22
12.26
10.90
9.25
7.47
5.75
4.17
2.73
1.35
-0.11
-1.73
-3.59
-5.71
-8.06
-10.57
-13.14
-15.62
-17.93
-20.10
-22.25
-24.62
-27.34
-30.36
-33.36
-35.82
-37.14
-36.84
-34.72
-30.90
-25.79
-20.03
-14.32
-9.24
-5.19
-2.33
-0.57
0.31
0.65
0.84
1.33
2.47
4.49
7.34
10.70
14.09
17.08
19.43
21.11
22.26
23.01
23.43
23.50
23.24
22.73
22.11
21.53
21.05
20.65
20.30
19.98
19.66
19.34
18.97
18.49
17.87
17.06
16.07
14.89
13.51
11.87
10.00
7.93
5.76
3.61
1.52
-0.50
-2.50
-4.54
-6.63
-8.70
-10.65
-12.37
-13.82
-15.11
-16.45
-18.12
-20.29
-22.97
-25.90
-28.64
-30.65
-31.43
-30.64
-28.14
-24.03
-18.67
-12.61
-6.49
-0.84
3.97
7.90
11.04
13.55
15.51
16.89
17.68
17.92
17.79
17.53
17.34
17.26
17.21
17.08
16.80
16.45
16.11
15.88
15.73
15.55
15.17
14.50
13.50
12.19
10.67
9.03
7.34
5.69
4.11
2.60
1.13
-0.42
-2.14
-4.13
-6.37
-8.75
-11.16
-13.47
-15.64
-17.76
-20.01
-22.55
-25.41
-28.37
-30.97
-32.66
-32.92
-31.42
-28.16
-23.42
-17.68
-11.51
-5.42
0.18
5.01
8.93
11.92
14.05
15.46
16.30
16.77
16.99
17.09
17.13
17.15
17.18
17.19
17.17
17.07
16.91
16.72
16.60
16.62
16.80
17.02
17.06
16.68
15.74
14.25
12.34
10.26
8.18
6.21
4.31
2.42
0.44
-1.62
-3.74
-5.83
-7.83
-9.76
-11.69
-13.78
-16.17
-18.91
-21.94
-25.11
-28.18
-30.86
-32.87
-33.85
-33.49
-31.52
-27.85
-22.67
-16.46
-9.90
-3.69
1.65
5.93
9.25
11.87
14.05
15.87
17.24
18.05
18.25
18.00
17.56
17.25
17.21
17.45
17.81
18.11
18.23
18.18
18.02
17.81
17.55
17.19
16.64
15.84
14.79
13.54
12.15
10.68
9.16
7.59
5.92
4.09
2.06
-0.14
-2.44
-4.76
-7.01
-9.18
-11.29
-13.43
-15.64
-17.94
-20.33
-22.77
-25.28
-27.86
-30.43
-32.72
-34.27
-34.49
-32.95
-29.51
-24.42
-18.25
-11.71
-5.42
0.20
4.93
8.70
11.52
13.47
14.73
15.54
16.14
16.69
17.19
17.54
17.68
17.59
17.38
17.21
17.19
17.32
17.50
17.62
17.58
17.38
17.00
16.45
15.65
14.52
13.06
11.34
9.51
7.70
5.97
4.30
2.60
0.76
-1.26
-3.42
-5.66
-7.88
-10.02
-12.04
-13.94
-15.79
-17.66
-19.67
-21.91
-24.46
-27.23
-29.98
-32.31
-33.64
-33.44
-31.37
-27.44
-22.03
-15.76
-9.36
-3.38
1.83
6.13
9.56
12.17
14.06
15.32
16.10
16.54
16.79
16.89
16.87
16.70
16.38
15.98
15.60
15.34
15.24
15.31
15.44
15.53
15.49
15.23
14.69
13.80
12.52
10.89
9.04
7.12
5.28
3.56
1.88
0.05
-2.07
-4.57
-7.34
-10.15
-12.74
-14.97
-16.83
-18.53
-20.35
-22.56
-25.25
-28.29
-31.21
-33.42
-34.27
-33.30
-30.37
-25.68
-19.74
-13.22
-6.81
-1.02
3.80
7.56
10.37
12.45
14.06
15.43
16.64
17.64
18.35
18.66
18.59
18.26
17.86
17.53
17.35
17.29
17.27
17.23
17.15
17.02
16.84
16.49
15.79
14.61
12.86
10.65
8.18
5.69
3.36
1.21
-0.84
-2.90
-5.02
-7.21
-9.39
-11.44
-13.31
-15.00
-16.67
-18.51
-20.73
-23.48
-26.70
-30.09
-33.16
-35.33
-36.03
-34.91
-31.86
-27.10
-21.08
-14.38
-7.60
-1.23
4.33
8.91
12.44
15.01
16.76
17.88
18.55
18.90
19.01
18.92
18.65
18.25
17.79
17.38
17.10
16.98
16.96
17.01
17.04
17.01
16.86
16.50
15.82
14.72
13.16
11.20
9.03
6.82
4.73
2.73
0.70
-1.52
-4.04
-6.82
-9.68
-12.40
-14.84
-16.91
-18.67
-20.27
-21.88
-23.67
-25.77
-28.20
-30.82
-33.24
-34.92
-35.23
-33.70
-30.19
-24.94
-18.54
-11.68
-5.01
1.04
6.25
10.55
13.94
16.45
18.15
19.19
19.73
20.00
20.16
20.33
20.54
20.78
20.99
21.12
21.09
20.90
20.54
20.05
19.49
18.90
18.26
17.49
16.49
15.17
13.51
11.54
9.36
7.09
4.84
2.66
0.55
-1.55
-3.71
-5.95
-8.28
-10.63
-12.95
-15.16
-17.27
-19.33
-21.51
-23.98
-26.89
-30.18
-33.55
-36.45
-38.22
-38.27
-36.31
-32.39
-26.95
-20.56
-13.87
-7.39
-1.45
3.74
8.06
11.43
13.82
15.27
15.93
16.03
15.82
15.53
15.28
15.11
15.02
15.01
15.12
15.42
15.96
16.66
17.38
17.89
18.01
17.65
16.80
15.52
13.92
12.08
10.09
8.07
6.11
4.23
2.38
0.42
-1.82
-4.37
-7.13
-9.89
-12.47
-14.80
-16.99
-19.23
-21.71
-24.47
-27.42
-30.34
-32.88
-34.63
-35.14
-34.00
-30.98
-26.16
-19.90
-12.87
-5.81
0.69
6.21
10.61
13.90
16.18
17.55
18.16
18.20
17.89
17.50
17.13
16.83
16.56
16.25
15.93
15.69
15.64
15.87
16.35
16.92
17.37
17.48
17.09
16.10
14.54
12.49
10.10
7.55
4.99
2.51
0.10
-2.34
-4.93
-7.71
-10.63
-13.59
-16.43
-19.09
-21.60
-24.12
-26.90
-30.05
-33.54
-37.06
-40.07
-41.91
-41.98
-39.92
-35.69
-29.60
-22.24
-14.32
-6.54
0.53
6.51
11.24
14.76
17.23
18.86
19.89
20.48
20.77
20.86
20.83
20.71
20.49
20.20
19.88
19.61
19.46
19.47
19.55
19.56
19.33
18.72
17.69
16.28
14.60
12.73
10.71
8.56
6.25
3.75
1.05
-1.83
-4.86
-7.95
-11.01
-13.95
-16.70
-19.32
-21.91
-24.69
-27.83
-31.41
-35.30
-39.19
-42.54
-44.70
-45.08
-43.25
-39.14
-32.97
-25.31
-16.88
-8.42
-0.57
6.29
12.00
16.61
20.28
23.20
25.50
27.21
28.27
28.62
28.29
27.40
26.19
24.92
23.84
23.09
22.69
22.58
22.65
22.71
22.60
22.14
21.22
19.82
18.04
15.96
13.74
11.44
9.07
6.59
3.96
1.19
-1.75
-4.85
-8.04
-11.26
-14.43
-17.46
-20.37
-23.26
-26.29
-29.68
-33.48
-37.56
-41.56
-44.88
-46.86
-46.89
-44.59
-39.94
-33.27
-25.23
-16.56
-7.98
-0.05
6.90
12.72
17.40
20.95
23.47
25.11
26.09
26.63
26.93
27.09
27.14
27.09
26.95
26.79
26.67
26.61
26.62
26.57
26.36
25.90
25.11
23.96
22.45
20.54
18.26
15.67
12.84
9.89
6.90
3.89
0.83
-2.31
-5.53
-8.77
-11.97
-15.06
-18.01
-20.88
-23.76
-26.79
-30.07
-33.66
-37.48
-41.26
-44.53
-46.63
-46.91
-44.86
-40.33
-33.55
-25.11
-15.85
-6.59
2.02
9.55
15.82
20.87
24.80
27.74
29.76
30.86
31.10
30.60
29.62
28.53
27.66
27.22
27.18
27.34
27.46
27.35
27.00
26.44
25.75
24.86
23.64
21.95
19.75
17.16
14.38
11.65
9.08
6.68
4.33
1.89
-0.80
-3.80
-7.07
-10.51
-13.94
-17.18
-20.13
-22.79
-25.28
-27.83
-30.65
-33.93
-37.71
-41.80
-45.71
-48.74
-50.07
-48.97
-45.07
-38.49
-29.87
-20.16
-10.36
-1.26
6.68
13.32
18.75
23.10
26.48
28.95
30.57
31.45
31.75
31.66
31.33
30.87
30.36
29.83
29.35
28.98
28.72
28.55
28.38
28.12
27.65
26.91
25.76
24.15
22.02
19.41
16.49
13.50
10.66
8.06
5.63
3.19
0.54
-2.43
-5.70
-9.14
-12.59
-15.92
-19.03
-21.87
-24.46
-26.87
-29.28
-31.98
-35.17
-38.97
-43.22
-47.47
-51.03
-53.07
-52.87
-50.00
-44.44
-36.63
-27.34
-17.48
-7.96
0.58
7.82
13.78
18.68
22.80
26.34
29.33
31.71
33.36
34.25
34.43
34.07
33.38
32.55
31.71
30.90
30.15
29.45
28.77
28.10
27.43
26.73
25.95
24.97
23.64
21.83
19.49
16.75
13.82
10.92
8.22
5.69
3.22
0.62
-2.21
-5.28
-8.51
-11.75
-14.89
-17.87
-20.65
-23.27
-25.80
-28.39
-31.23
-34.45
-38.10
-42.03
-45.87
-49.10
-51.05
-51.12
-48.83
-43.99
-36.82
-27.92
-18.16
-8.48
0.31
7.73
13.61
18.08
21.39
23.77
25.40
26.41
26.94
27.12
27.10
26.98
26.80
26.57
26.32
26.11
26.00
26.05
26.19
26.28
26.12
25.56
24.58
23.23
21.57
19.60
17.28
14.61
11.65
8.60
5.69
3.09
0.79
-1.39
-3.68
-6.30
-9.28
-12.54
-15.88
-19.10
-22.06
-24.73
-27.20
-29.60
-32.10
-34.92
-38.13
-41.62
-44.99
-47.52
-48.35
-46.72
-42.31
-35.36
-26.61
-17.11
-7.88
0.35
7.22
12.68
16.90
20.03
22.24
23.65
24.39
24.60
24.44
24.08
23.71
23.42
23.28
23.29
23.38
23.46
23.44
23.25
22.88
22.31
21.56
20.61
19.41
17.87
15.95
13.64
11.06
8.41
5.89
3.63
1.56
-0.50
-2.82
-5.58
-8.76
-12.13
-15.37
-18.22
-20.58
-22.55
-24.36
-26.34
-28.76
-31.81
-35.45
-39.37
-42.93
-45.29
-45.63
-43.45
-38.70
-31.83
-23.64
-15.03
-6.77
0.64
6.91
11.97
15.90
18.84
21.01
22.60
23.71
24.37
24.56
24.28
23.64
22.84
22.10
21.59
21.36
21.39
21.61
21.96
22.36
22.76
22.99
22.86
22.19
20.87
18.92
16.47
13.74
10.96
8.30
5.83
3.57
1.47
-0.62
-2.86
-5.38
-8.24
-11.38
-14.61
-17.72
-20.49
-22.85
-24.88
-26.76
-28.78
-31.24
-34.31
-37.95
-41.78
-45.12
-47.11
-46.94
-44.18
-38.86
-31.54
-23.08
-14.41
-6.25
0.95
7.00
11.92
15.80
18.78
20.98
22.54
23.55
24.14
24.42
24.49
24.43
24.26
23.98
23.61
23.21
22.87
22.69
22.68
22.74
22.74
22.49
21.89
20.92
19.65
18.15
16.47
14.61
12.58
10.41
8.16
5.90
3.66
1.42
-0.87
-3.26
-5.79
-8.41
-11.07
-13.69
-16.20
-18.54
-20.72
-22.82
-24.95
-27.32
-30.10
-33.43
-37.22
-41.12
-44.46
-46.41
-46.15
-43.23
-37.67
-30.04
-21.29
-12.43
-4.30
2.64
8.26
12.62
15.87
18.17
19.66
20.52
20.99
21.25
21.46
21.65
21.77
21.78
21.71
21.65
21.71
21.91
22.20
22.43
22.48
22.25
21.77
21.07
20.20
19.12
17.79
16.18
14.32
12.30
10.21
8.14
6.05
3.88
1.56
-0.95
-3.59
-6.29
-8.97
-11.56
-14.06
-16.49
-18.84
-21.10
-23.26
-25.36
-27.52
-29.93
-32.74
-35.91
-39.11
-41.74
-43.04
-42.36
-39.33
-34.03
-27.00
-19.04
-11.00
-3.57
2.82
8.04
12.12
15.20
17.39
18.78
19.44
19.48
19.04
18.33
17.56
16.91
16.45
16.20
16.08
16.04
16.02
16.03
16.12
16.31
16.51
16.58
16.28
15.46
14.11
12.34
10.40
8.56
6.96
5.52
4.07
2.38
0.31
-2.10
-4.72
-7.34
-9.82
-12.13
-14.39
-16.72
-19.27
-22.12
-25.25
-28.64
-32.17
-35.60
-38.49
-40.28
-40.34
-38.25
-33.91
-27.63
-20.12
-12.12
-4.33
2.80
9.06
14.33
18.50
21.49
23.25
23.86
23.61
22.84
21.90
21.04
20.39
19.95
19.66
19.45
19.26
19.08
18.89
18.64
18.30
17.80
17.06
15.98
14.53
12.76
10.78
8.73
6.73
4.85
3.04
1.20
-0.81
-3.06
-5.56
-8.21
-10.86
-13.38
-15.73
-17.97
-20.23
-22.66
-25.37
-28.40
-31.68
-35.08
-38.28
-40.81
-42.04
-41.33
-38.28
-32.92
-25.78
-17.75
-9.77
-2.55
3.58
8.64
12.82
16.25
18.97
20.92
22.08
22.57
22.64
22.61
22.72
23.02
23.41
23.72
23.81
23.69
23.50
23.43
23.53
23.70
23.71
23.31
22.36
20.83
18.79
16.32
13.51
10.46
7.31
4.23
1.31
-1.46
-4.23
-7.18
-10.36
-13.69
-16.91
-19.80
-22.26
-24.39
-26.44
-28.71
-31.44
-34.69
-38.33
-41.97
-45.01
-46.70
-46.35
-43.52
-38.23
-30.97
-22.59
-14.08
-6.26
0.39
5.73
9.91
13.17
15.73
17.72
19.20
20.23
20.85
21.19
21.33
21.36
21.36
21.38
21.48
21.70
22.11
22.70
23.44
24.21
24.85
25.17
24.98
24.16
22.67
20.57
18.01
15.18
12.31
9.50
6.78
4.05
1.20
-1.83
-5.01
-8.17
-11.16
-13.80
-16.06
-18.04
-19.98
-22.15
-24.85
-28.22
-32.21
-36.47
-40.39
-43.21
-44.18
-42.78
-38.86
-32.68
-24.89
-16.32
-7.84
-0.14
6.34
11.48
15.41
18.34
20.48
21.92
22.69
22.86
22.57
22.04
21.45
20.94
20.48
20.04
19.60
19.21
18.98
18.99
19.20
19.47
19.58
19.30
18.45
17.00
14.98
12.54
9.88
7.16
4.51
1.95
-0.57
-3.14
-5.80
-8.56
-11.34
-14.04
-16.61
-19.02
-21.34
-23.72
-26.33
-29.28
-32.54
-35.85
-38.67
-40.32
-40.08
-37.50
-32.50
-25.47
-17.18
-8.54
-0.45
6.51
12.02
16.13
19.01
20.86
21.93
22.35
22.30
21.96
21.51
21.10
20.79
20.58
20.40
20.24
20.12
20.10
20.18
20.33
20.40
20.16
19.44
18.13
16.27
14.01
11.55
9.06
6.61
4.17
1.66
-0.99
-3.84
-6.83
-9.89
-12.90
-15.75
-18.35
-20.63
-22.60
-24.38
-26.23
-28.48
-31.42
-35.03
-38.89
-42.23
-44.11
-43.70
-40.63
-35.07
-27.69
-19.38
-11.02
-3.25
3.56
9.23
13.77
17.26
19.83
21.71
23.06
24.02
24.67
24.99
24.97
24.68
24.23
23.78
23.46
23.33
23.35
23.40
23.39
23.26
22.95
22.39
21.47
20.07
18.13
15.68
12.85
9.85
6.87
4.01
1.31
-1.32
-3.93
-6.62
-9.41
-12.29
-15.25
-18.22
-21.13
-23.96
-26.71
-29.52
-32.58
-36.00
-39.67
-43.16
-45.75
-46.66
-45.27
-41.42
-35.34
-27.68
-19.20
-10.67
-2.69
4.35
10.26
15.05
18.82
21.78
24.10
25.91
27.25
28.08
28.43
28.40
28.15
27.83
27.56
27.35
27.17
26.96
26.70
26.38
26.02
25.56
24.91
23.94
22.53
20.64
18.33
15.74
13.05
10.42
7.95
5.63
3.34
0.90
-1.86
-4.99
-8.41
-11.91
-15.28
-18.37
-21.18
-23.83
-26.51
-29.41
-32.68
-36.36
-40.37
-44.41
-47.95
-50.24
-50.49
-48.11
-42.95
-35.41
-26.35
-16.85
-7.83
0.07
6.62
11.90
16.11
19.50
22.23
24.39
25.97
26.98
27.44
27.46
27.19
26.80
26.42
26.13
25.87
25.60
25.28
24.97
24.76
24.73
24.79
24.69
24.08
22.65
20.29
17.15
13.65
10.26
7.34
5.00
3.07
1.21
-0.95
-3.63
-6.82
-10.33
-13.86
-17.12
-20.00
-22.56
-25.01
-27.66
-30.72
-34.32
-38.28
-42.17
-45.30
-46.88
-46.14
-42.66
-36.51
-28.28
-18.95
-9.61
-1.08
6.20
12.19
17.04
20.92
23.90
25.95
27.07
27.33
26.98
26.32
25.68
25.27
25.15
25.25
25.37
25.37
25.17
24.81
24.42
24.09
23.83
23.46
22.77
21.55
19.75
17.45
14.87
12.21
9.56
6.91
4.15
1.21
-1.92
-5.11
-8.26
-11.27
-14.17
-17.03
-19.89
-22.74
-25.50
-28.11
-30.62
-33.21
-36.14
-39.59
-43.46
-47.28
-50.27
-51.53
-50.35
-46.40
-39.91
-31.53
-22.10
-12.52
-3.46
4.64
11.59
17.33
21.88
25.29
27.68
29.22
30.11
30.55
30.71
30.70
30.59
30.45
30.34
30.30
30.35
30.46
30.53
30.49
30.25
29.77
29.02
27.98
26.61
24.87
22.69
20.06
17.05
13.78
10.52
7.51
4.92
2.72
0.68
-1.55
-4.28
-7.60
-11.34
-15.15
-18.67
-21.71
-24.28
-26.59
-28.87
-31.31
-34.05
-37.18
-40.73
-44.60
-48.39
-51.41
-52.74
-51.51
-47.27
-40.14
-30.90
-20.65
-10.56
-1.46
6.19
12.35
17.22
21.02
23.97
26.16
27.66
28.56
28.95
28.97
28.79
28.55
28.35
28.24
28.21
28.21
28.17
28.03
27.76
27.32
26.66
25.78
24.67
23.31
21.77
20.07
18.25
16.31
14.23
11.95
9.47
6.83
4.09
1.35
-1.35
-4.02
-6.71
-9.50
-12.42
-15.42
-18.39
-21.22
-23.87
-26.36
-28.81
-31.37
-34.19
-37.35
-40.78
-44.19
-47.05
-48.65
-48.31
-45.53
-40.22
-32.75
-23.85
-14.47
-5.48
2.43
8.88
13.79
17.28
19.64
21.17
22.16
22.78
23.08
23.09
22.85
22.45
22.03
21.73
21.60
21.63
21.76
21.93
22.12
22.31
22.43
22.37
21.92
20.91
19.24
16.90
14.09
11.06
8.07
5.31
2.79
0.39
-2.11
-4.89
-7.99
-11.27
-14.50
-17.44
-19.96
-22.10
-24.04
-26.02
-28.24
-30.85
-33.91
-37.29
-40.71
-43.63
-45.27
-44.87
-41.88
-36.19
-28.28
-19.03
-9.48
-0.56
7.17
13.48
18.38
22.03
24.57
26.11
26.76
26.65
25.96
24.94
23.81
22.75
21.90
21.30
20.94
20.82
20.92
21.22
21.65
22.09
22.35
22.22
21.51
20.08
17.96
15.26
12.25
9.25
6.51
4.19
2.22
0.37
-1.64
-4.03
-6.84
-9.94
-13.12
-16.19
-19.09
-21.79
-24.34
-26.79
-29.23
-31.81
-34.68
-37.92
-41.37
-44.55
-46.72
-47.06
-45.00
-40.39
-33.55
-25.18
-16.18
-7.34
0.72
7.64
13.32
17.78
21.17
23.60
25.19
26.04
26.26
25.97
25.36
24.58
23.74
22.88
22.03
21.19
20.47
19.96
19.73
19.81
20.06
20.32
20.35
19.96
19.00
17.42
15.27
12.74
10.08
7.56
5.29
3.20
1.07
-1.38
-4.31
-7.66
-11.17
-14.55
-17.59
-20.29
-22.81
-25.36
-28.16
-31.29
-34.71
-38.30
-41.86
-45.00
-47.18
-47.74
-46.09
-41.88
-35.22
-26.69
-17.18
-7.70
0.86
7.97
13.47
17.51
20.39
22.45
23.85
24.66
24.87
24.48
23.63
22.56
21.55
20.82
20.40
20.20
20.03
19.84
19.61
19.37
19.12
18.74
18.02
16.83
15.13
13.07
10.90
8.82
6.91
5.07
3.07
0.69
-2.19
-5.51
-9.05
-12.52
-15.71
-18.51
-21.02
-23.43
-25.95
-28.71
-31.75
-35.01
-38.27
-41.21
-43.30
-43.92
-42.46
-38.53
-32.20
-24.05
-15.03
-6.19
1.64
8.03
12.93
16.55
19.15
20.87
21.75
21.82
21.14
19.91
18.45
17.07
16.02
15.38
15.12
15.09
15.17
15.26
15.33
15.37
15.35
15.16
14.64
13.67
12.19
10.20
7.81
5.12
2.19
-0.89
-4.08
-7.27
-10.39
-13.40
-16.31
-19.19
-22.17
-25.33
-28.66
-32.11
-35.55
-38.74
-41.29
-42.70
-42.38
-39.86
-35.00
-28.08
-19.79
-11.06
-2.75
4.50
10.43
15.05
18.55
21.15
23.00
24.17
24.66
24.52
23.85
22.86
21.80
20.92
20.36
20.12
20.04
19.93
19.59
18.95
18.03
16.92
15.69
14.32
12.70
10.71
8.30
5.52
2.56
-0.42
-3.32
-6.09
-8.78
-11.47
-14.19
-16.95
-19.80
-22.84
-26.23
-30.11
-34.44
-38.89
-42.86
-45.51
-46.02
-43.89
-39.05
-31.97
-23.47
-14.50
-5.87
1.88
8.55
14.16
18.76
22.42
25.16
27.04
28.16
28.66
28.71
28.45
27.96
27.23
26.36
25.47
24.70
24.20
23.97
23.84
23.54
22.81
21.48
19.57
17.25
14.70
12.11
9.53
6.96
4.35
1.66
-1.10
-3.94
-6.86
-9.84
-12.91
-16.10
-19.42
-22.94
-26.69
-30.75
-35.12
-39.63
-43.86
-47.12
-48.60
-47.60
-43.78
-37.33
-28.93
-19.54
-10.13
-1.43
6.17
12.53
17.70
21.79
24.90
27.15
28.69
29.69
30.28
30.58
30.68
30.60
30.38
30.02
29.54
28.98
28.40
27.85
27.37
26.94
26.44
25.64
24.31
22.34
19.74
16.73
13.63
10.74
8.16
5.78
3.28
0.33
-3.21
-7.25
-11.47
-15.46
-18.94
-21.89
-24.50
-27.09
-29.98
-33.33
-37.10
-41.14
-45.09
-48.42
-50.49
-50.60
-48.21
-43.14
-35.70
-26.64
-16.94
-7.55
0.90
8.16
14.22
19.21
23.26
26.40
28.65
30.01
30.59
30.56
30.12
29.48
28.80
28.20
27.70
27.33
27.05
26.83
26.61
26.31
25.88
25.22
24.21
22.76
20.84
18.52
15.99
13.46
11.12
8.99
6.93
4.70
2.10
-0.95
-4.34
-7.82
-11.13
-14.11
-16.78
-19.24
-21.61
-24.00
-26.47
-29.14
-32.11
-35.39
-38.80
-41.82
-43.73
-43.70
-41.18
-36.05
-28.77
-20.19
-11.34
-3.05
4.18
10.22
15.18
19.26
22.59
25.18
26.99
28.03
28.40
28.28
27.87
27.36
26.85
26.48
26.29
26.31
26.47
26.62
26.59
26.28
25.67
24.82
23.79
22.59
21.14
19.30
17.00
14.26
11.22
8.16
5.31
2.88
0.87
-0.88
-2.66
-4.80
-7.46
-10.60
-13.98
-17.24
-20.14
-22.59
-24.68
-26.68
-28.85
-31.44
-34.57
-38.20
-42.09
-45.67
-48.23
-49.01
-47.41
-43.22
-36.70
-28.52
-19.57
-10.79
-2.86
3.78
9.10
13.30
16.75
19.75
22.43
24.73
26.47
27.52
27.89
27.77
27.43
27.11
26.92
26.83
26.83
26.85
26.92
27.02
27.09
27.02
26.63
25.81
24.50
22.73
20.55
18.10
15.52
12.97
10.59
8.42
6.42
4.49
2.51
0.43
-1.72
-3.88
-6.01
-8.13
-10.37
-12.79
-15.37
-18.00
-20.48
-22.64
-24.45
-26.06
-27.75
-29.88
-32.73
-36.33
-40.38
-44.21
-46.98
-47.86
-46.32
-42.28
-36.13
-28.60
-20.51
-12.58
-5.34
0.95
6.13
10.25
13.42
15.87
17.86
19.55
21.07
22.38
23.36
23.92
24.04
23.83
23.47
23.22
23.16
23.30
23.51
23.64
23.53
23.12
22.40
21.43
20.27
19.04
17.80
16.56
15.32
13.97
12.40
10.54
8.39
6.08
3.76
1.59
-0.36
-2.15
-3.91
-5.80
-7.91
-10.26
-12.75
-15.24
-17.59
-19.73
-21.69
-23.58
-25.58
-27.89
-30.66
-33.86
-37.23
-40.26
-42.28
-42.62
-40.86
-36.96
-31.29
-24.55
-17.46
-10.65
-4.46
1.00
5.75
9.78
13.02
15.37
16.83
17.52
17.73
17.79
17.92
18.19
18.49
18.64
18.55
18.25
17.92
17.74
17.80
18.05
18.32
18.38
18.08
17.37
16.29
14.96
13.46
11.86
10.18
8.46
6.74
5.14
3.69
2.40
1.19
-0.10
-1.63
-3.49
-5.69
-8.13
-10.65
-13.07
-15.31
-17.33
-19.23
-21.14
-23.24
-25.63
-28.38
-31.36
-34.29
-36.67
-37.87
-37.37
-34.85
-30.41
-24.58
-18.08
-11.62
-5.71
-0.56
3.83
7.54
10.67
13.22
15.20
16.61
17.53
18.04
18.25
18.23
18.04
17.78
17.55
17.43
17.49
17.72
18.03
18.27
18.26
17.88
17.10
16.04
14.88
13.80
12.94
12.29
11.74
11.12
10.24
9.00
7.37
5.42
3.26
1.02
-1.23
-3.44
-5.57
-7.63
-9.65
-11.65
-13.67
-15.72
-17.78
-19.78
-21.67
-23.41
-25.10
-26.97
-29.22
-31.93
-34.83
-37.32
-38.60
-38.01
-35.27
-30.59
-24.55
-17.90
-11.30
-5.14
0.40
5.23
9.32
12.58
14.97
16.52
17.40
17.76
17.80
17.60
17.26
16.84
16.45
16.16
16.03
16.06
16.18
16.34
16.50
16.66
16.82
16.92
16.87
16.54
15.85
14.79
13.46
11.98
10.49
9.01
7.54
6.00
4.30
2.41
0.32
-1.92
-4.24
-6.59
-8.94
-11.27
-13.57
-15.79
-17.89
-19.82
-21.52
-23.03
-24.44
-25.98
-27.84
-30.12
-32.63
-34.92
-36.32
-36.20
-34.21
-30.33
-24.94
-18.59
-11.92
-5.47
0.35
5.28
9.17
12.05
14.12
15.60
16.74
17.65
18.28
18.59
18.57
18.30
18.01
17.86
17.96
18.27
18.65
18.94
19.07
19.00
18.73
18.30
17.70
16.90
15.88
14.58
12.96
11.05
8.94
6.76
4.63
2.65
0.81
-0.96
-2.73
-4.56
-6.45
-8.39
-10.34
-12.25
-14.07
-15.78
-17.38
-18.95
-20.68
-22.76
-25.36
-28.45
-31.77
-34.80
-36.90
-37.47
-36.14
-32.88
-27.96
-21.90
-15.27
-8.64
-2.44
3.01
7.55
11.12
13.73
15.47
16.47
16.89
16.93
16.76
16.51
16.29
16.12
16.03
16.00
16.02
16.11
16.30
16.58
16.93
17.28
17.51
17.48
17.04
16.12
14.73
12.97
11.01
8.97
6.95
4.92
2.80
0.50
-2.00
-4.65
-7.34
-9.91
-12.27
-14.41
-16.43
-18.45
-20.60
-22.93
-25.45
-28.10
-30.78
-33.24
-35.14
-35.98
-35.21
-32.44
-27.59
-21.07
-13.60
-6.02
1.00
7.08
12.12
16.20
19.35
21.59
23.00
23.72
24.04
24.24
24.51
24.90
25.35
25.74
26.02
26.21
26.41
26.65
26.96
27.28
27.55
27.66
27.43
26.66
25.18
22.90
19.97
16.68
13.39
10.33
7.47
4.58
1.31
-2.52
-6.93
-11.58
-16.06
-20.02
-23.29
-25.87
-27.96
-29.83
-31.73
-33.93
-36.59
-39.79
-43.37
-46.86
-49.53
-50.53
-49.19
-45.29
-39.09
-31.31
-22.88
-14.65
-7.21
-0.81
4.52
8.87
12.36
15.09
17.17
18.70
19.74
20.30
20.41
20.11
19.55
18.94
18.50
18.44
18.81
19.55
20.49
21.46
22.24
22.62
22.36
21.26
19.24
16.49
13.41
10.47
8.05
6.24
4.89
3.65
2.16
0.20
-2.25
-5.06
-8.02
-10.87
-13.46
-15.78
-18.01
-20.51
-23.67
-27.79
-32.86
-38.42
-43.68
-47.63
-49.34
-48.19
-44.01
-37.14
-28.33
-18.58
-8.93
-0.22
7.06
12.76
17.05
20.24
22.66
24.56
26.11
27.41
28.52
29.46
30.17
30.60
30.70
30.51
30.15
29.81
29.66
29.77
30.11
30.53
30.79
30.60
29.66
27.75
24.83
21.09
16.90
12.75
9.00
5.81
3.08
0.58
-1.96
-4.70
-7.62
-10.61
-13.56
-16.41
-19.20
-22.08
-25.20
-28.68
-32.57
-36.78
-41.00
-44.72
-47.27
-47.94
-46.23
-41.94
-35.27
-26.80
-17.35
-7.78
1.15
8.91
15.24
20.04
23.39
25.41
26.27
26.19
25.43
24.28
22.99
21.81
20.86
20.20
19.85
19.76
19.92
20.24
20.63
20.94
21.04
20.83
20.20
19.11
17.50
15.41
12.96
10.32
7.70
5.20
2.80
0.34
-2.34
-5.34
-8.58
-11.89
-15.06
-18.01
-20.78
-23.53
-26.42
-29.57
-33.02
-36.69
-40.38
-43.69
-45.98
-46.52
-44.62
-39.98
-32.79
-23.75
-13.86
-4.12
4.68
12.09
17.98
22.39
25.47
27.36
28.27
28.41
28.02
27.33
26.46
25.57
24.74
24.03
23.48
23.16
23.14
23.45
24.05
24.80
25.48
25.80
25.49
24.36
22.36
19.57
16.18
12.42
8.54
4.77
1.20
-2.13
-5.23
-8.16
-10.97
-13.66
-16.24
-18.74
-21.24
-23.91
-26.91
-30.34
-34.21
-38.37
-42.52
-46.16
-48.64
-49.29
-47.51
-43.04
-36.04
-27.17
-17.31
-7.42
1.71
9.61
16.12
21.30
25.29
28.23
30.26
31.47
31.97
31.92
31.49
30.86
30.18
29.53
28.98
28.58
28.36
28.35
28.51
28.69
28.66
28.19
27.11
25.39
23.13
20.44
17.47
14.33
11.12
7.97
5.02
2.39
0.05
-2.14
-4.47
-7.15
-10.29
-13.77
-17.36
-20.79
-23.93
-26.85
-29.74
-32.92
-36.55
-40.54
-44.54
-47.91
-49.93
-49.95
-47.58
-42.77
-35.88
-27.49
-18.31
-9.11
-0.51
6.97
12.97
17.39
20.31
22.04
23.01
23.64
24.17
24.62
24.86
24.74
24.25
23.54
22.83
22.33
22.10
22.01
21.96
21.81
21.54
21.20
20.80
20.24
19.34
17.91
15.91
13.52
11.00
8.66
6.67
4.98
3.38
1.61
-0.51
-3.04
-5.88
-8.86
-11.85
-14.72
-17.41
-19.92
-22.32
-24.78
-27.57
-30.91
-34.85
-39.09
-42.98
-45.66
-46.30
-44.39
-39.87
-33.14
-24.87
-15.81
-6.64
2.12
10.12
17.19
23.26
28.34
32.49
35.70
37.94
39.18
39.39
38.63
37.01
34.72
31.99
29.11
26.39
24.17
22.62
21.74
21.31
20.96
20.37
19.34
17.87
16.09
14.13
12.10
10.04
7.99
6.04
4.28
2.74
1.25
-0.47
-2.75
-5.72
-9.20
-12.78
-15.98
-18.49
-20.38
-22.03
-23.94
-26.53
-29.89
-33.70
-37.35
-40.12
-41.27
-40.36
-37.27
-32.22
-25.74
-18.51
-11.24
-4.47
1.40
6.22
9.99
12.85
14.98
16.59
17.83
18.80
19.53
19.99
20.08
19.66
18.60
16.80
14.23
11.05
7.59
4.27
1.52
-0.40
-1.43
-1.74
-1.54
-1.11
-0.66
-0.37
-0.41
-0.99
-2.25
-4.27
-6.96
-10.08
-13.28
-16.15
-18.41
-19.91
-20.68
-20.85
-20.72
-20.61
-20.83
-21.54
-22.67
-23.95
-24.85
-24.79
-23.20
-19.77
-14.49
-7.72
-0.01
7.97
15.57
22.30
27.84
32.05
34.97
36.81
37.83
38.29
38.40
38.22
37.75
36.98
35.91
34.63
33.21
31.75
30.39
29.34
28.82
29.01
29.75
30.48
30.28
28.19
23.71
17.07
9.28
1.77
-4.19
-8.00
-9.88
-10.70
-11.47
-12.89
-15.10
-17.78
-20.41
-22.60
-24.30
-25.75
-27.31
-29.28
-31.75
-34.59
-37.48
-40.03
-41.76
-42.28
-41.20
-38.33
-33.75
-27.77
-20.98
-14.05
-7.64
-2.24
1.84
4.50
5.82
5.99
5.28
3.97
2.31
0.49
-1.39
-3.27
-5.09
-6.81
-8.30
-9.41
-9.95
-9.78
-8.88
-7.37
-5.56
-3.81
-2.48
-1.75
-1.63
-1.97
-2.56
-3.21
-3.84
-4.46
-5.19
-6.16
-7.51
-9.33
-11.59
-14.14
-16.71
-19.00
-20.81
-22.16
-23.21
-24.27
-25.60
-27.25
-29.02
-30.46
-31.01
-30.11
-27.43
-22.88
-16.68
-9.32
-1.46
6.17
12.93
18.35
22.23
24.61
25.77
26.10
25.96
25.61
25.17
24.65
24.00
23.22
22.32
21.31
20.21
18.96
17.56
16.00
14.33
12.61
10.87
9.13
7.39
5.66
3.94
2.25
0.54
-1.28
-3.28
-5.49
-7.81
-10.11
-12.25
-14.16
-15.90
-17.61
-19.43
-21.45
-23.72
-26.19
-28.76
-31.20
-33.13
-34.03
-33.41
-30.93
-26.55
-20.60
-13.62
-6.30
0.76
7.12
12.51
16.81
19.96
22.01
23.03
23.14
22.56
21.52
20.22
18.84
17.50
16.30
15.33
14.68
14.38
14.38
14.54
14.67
14.61
14.28
13.70
12.88
11.80
10.37
8.49
6.13
3.36
0.31
-2.87
-6.11
-9.39
-12.68
-15.89
-18.92
-21.69
-24.25
-26.73
-29.28
-31.91
-34.37
-36.16
-36.69
-35.40
-32.03
-26.68
-19.80
-12.05
-4.15
3.26
9.76
15.14
19.35
22.49
24.69
26.10
26.87
27.09
26.81
26.05
24.79
23.06
20.98
18.76
16.66
14.92
13.66
12.88
12.46
12.26
12.14
11.99
11.75
11.29
10.43
8.96
6.75
3.80
0.36
-3.20
-6.49
-9.25
-11.49
-13.44
-15.44
-17.82
-20.73
-24.12
-27.81
-31.45
-34.68
-37.03
-37.99
-37.08
-33.94
-28.52
-21.17
-12.61
-3.78
4.37
11.18
16.31
19.81
21.99
23.23
23.91
24.23
24.29
24.05
23.47
22.60
21.54
20.47
19.57
18.95
18.61
18.49
18.43
18.26
17.82
16.97
15.65
13.91
11.86
9.66
7.47
5.33
3.25
1.15
-1.03
-3.30
-5.65
-8.05
-10.46
-12.88
-15.39
-18.08
-21.10
-24.51
-28.27
-32.13
-35.59
-37.98
-38.61
-36.99
-32.94
-26.72
-18.93
-10.41
-1.96
5.73
12.26
17.48
21.43
24.29
26.21
27.31
27.70
27.47
26.78
25.86
24.99
24.37
24.12
24.18
24.38
24.49
24.38
23.98
23.31
22.45
21.42
20.20
18.70
16.87
14.74
12.44
10.10
7.84
5.63
3.33
0.72
-2.33
-5.82
-9.54
-13.21
-16.55
-19.42
-21.87
-24.12
-26.41
-29.00
-31.96
-35.18
-38.26
-40.56
-41.27
-39.70
-35.48
-28.76
-20.19
-10.72
-1.39
6.97
13.80
18.92
22.35
24.26
24.93
24.67
23.83
22.75
21.74
20.98
20.53
20.27
20.06
19.73
19.25
18.67
18.11
17.67
17.30
16.83
16.06
14.85
13.26
11.41
9.50
7.60
5.74
3.84
1.83
-0.33
-2.68
-5.20
-7.90
-10.71
-13.53
-16.20
-18.54
-20.49
-22.15
-23.81
-25.75
-28.19
-31.07
-33.97
-36.25
-37.15
-36.06
-32.70
-27.26
-20.31
-12.58
-4.82
2.39
8.69
13.91
18.02
21.01
22.90
23.77
23.74
23.01
21.82
20.41
19.00
17.74
16.75
16.08
15.70
15.57
15.61
15.77
15.98
16.15
16.12
15.71
14.75
13.19
11.19
9.00
6.95
5.20
3.68
2.15
0.30
-2.05
-4.90
-8.03
-11.15
-13.98
-16.37
-18.28
-19.86
-21.30
-22.91
-24.99
-27.70
-31.01
-34.56
-37.66
-39.47
-39.27
-36.66
-31.72
-24.98
-17.26
-9.43
-2.15
4.17
9.37
13.50
16.64
18.90
20.38
21.18
21.42
21.28
20.93
20.50
20.05
19.59
19.11
18.59
18.10
17.70
17.45
17.38
17.39
17.36
17.13
16.56
15.55
14.09
12.21
9.98
7.53
5.02
2.63
0.50
-1.33
-2.95
-4.59
-6.44
-8.64
-11.10
-13.62
-15.99
-18.07
-19.91
-21.64
-23.45
-25.42
-27.59
-29.96
-32.48
-34.99
-37.20
-38.66
-38.84
-37.24
-33.67
-28.31
-21.67
-14.46
-7.40
-1.01
4.42
8.80
12.24
14.84
16.78
18.15
19.04
19.54
19.72
19.61
19.25
18.71
18.06
17.44
17.01
16.94
17.34
18.15
19.17
20.10
20.65
20.59
19.91
18.74
17.28
15.75
14.29
12.94
11.62
10.22
8.58
6.61
4.30
1.69
-1.05
-3.70
-6.06
-8.04
-9.65
-11.04
-12.35
-13.74
-15.27
-16.99
-18.89
-20.99
-23.33
-25.96
-28.82
-31.70
-34.24
-35.92
-36.19
-34.63
-31.06
-25.69
-19.05
-11.92
-5.05
0.95
5.83
9.60
12.48
14.63
16.18
17.14
17.52
17.45
17.11
16.78
16.59
16.61
16.79
17.05
17.32
17.60
17.88
18.10
18.17
17.97
17.41
16.54
15.47
14.36
13.36
12.54
11.84
11.11
10.20
8.98
7.47
5.73
3.90
2.07
0.26
-1.58
-3.45
-5.34
-7.19
-8.94
-10.60
-12.24
-13.90
-15.59
-17.25
-18.79
-20.26
-21.80
-23.66
-25.95
-28.61
-31.23
-33.18
-33.74
-32.36
-28.89
-23.60
-17.18
-10.51
-4.37
0.76
4.78
7.85
10.26
12.19
13.71
14.79
15.44
15.73
15.85
15.93
16.04
16.13
16.12
16.02
15.91
15.92
16.11
16.38
16.56
16.43
15.87
14.92
13.73
12.49
11.32
10.21
9.08
7.84
6.41
4.81
3.08
1.31
-0.45
-2.17
-3.89
-5.65
-7.49
-9.36
-11.16
-12.80
-14.20
-15.43
-16.62
-17.93
-19.50
-21.37
-23.50
-25.79
-28.09
-30.11
-31.45
-31.62
-30.19
-26.95
-22.07
-16.07
-9.69
-3.65
1.57
5.79
9.05
11.50
13.25
14.37
14.86
14.83
14.43
13.88
13.36
12.97
12.71
12.55
12.46
12.49
12.70
13.12
13.74
14.39
14.91
15.14
14.97
14.37
13.36
12.01
10.41
8.67
6.95
5.34
3.91
2.62
1.33
-0.10
-1.81
-3.84
-6.13
-8.53
-10.91
-13.13
-15.12
-16.88
-18.47
-20.03
-21.70
-23.64
-25.92
-28.47
-31.06
-33.25
-34.52
-34.40
-32.54
-28.92
-23.78
-17.65
-11.17
-4.97
0.48
4.92
8.28
10.68
12.30
13.39
14.14
14.71
15.21
15.71
16.24
16.77
17.27
17.67
17.93
18.03
17.99
17.84
17.68
17.53
17.40
17.22
16.86
16.20
15.14
13.71
11.96
10.04
8.07
6.14
4.26
2.39
0.44
-1.63
-3.83
-6.14
-8.50
-10.87
-13.19
-15.41
-17.47
-19.35
-21.08
-22.77
-24.58
-26.71
-29.27
-32.17
-35.06
-37.33
-38.24
-37.18
-33.85
-28.45
-21.56
-14.01
-6.65
-0.09
5.36
9.68
13.02
15.56
17.40
18.60
19.22
19.37
19.24
19.01
18.85
18.82
18.92
19.13
19.42
19.81
20.32
20.92
21.52
21.98
22.17
21.98
21.29
20.04
18.22
15.96
13.47
10.98
8.68
6.61
4.64
2.57
0.25
-2.33
-5.02
-7.63
-10.02
-12.18
-14.21
-16.22
-18.30
-20.48
-22.75
-25.16
-27.78
-30.64
-33.65
-36.49
-38.60
-39.32
-38.08
-34.61
-29.05
-21.95
-14.10
-6.29
0.83
6.88
11.74
15.46
18.23
20.26
21.78
22.97
23.93
24.69
25.24
25.58
25.71
25.73
25.69
25.63
25.56
25.47
25.33
25.21
25.13
25.08
24.96
24.60
23.82
22.48
20.60
18.28
15.75
13.22
10.83
8.65
6.63
4.68
2.67
0.51
-1.89
-4.56
-7.50
-10.58
-13.64
-16.47
-18.93
-21.07
-23.11
-25.41
-28.24
-31.72
-35.65
-39.57
-42.84
-44.80
-44.89
-42.77
-38.37
-31.90
-23.88
-15.09
-6.38
1.46
7.88
12.73
16.18
18.62
20.42
21.82
22.84
23.41
23.49
23.16
22.66
22.29
22.28
22.70
23.43
24.24
24.89
25.19
25.07
24.56
23.72
22.61
21.25
19.63
17.76
15.69
13.52
11.37
9.32
7.39
5.52
3.60
1.55
-0.64
-2.92
-5.17
-7.33
-9.38
-11.38
-13.44
-15.63
-17.97
-20.47
-23.12
-25.98
-29.15
-32.68
-36.44
-40.02
-42.76
-43.86
-42.62
-38.73
-32.34
-24.09
-14.95
-5.93
2.15
8.79
13.85
17.46
19.86
21.37
22.25
22.67
22.77
22.67
22.49
22.37
22.45
22.77
23.30
23.90
24.39
24.64
24.62
24.40
24.07
23.67
23.10
22.23
20.92
19.08
16.79
14.18
11.40
8.64
6.06
3.74
1.71
-0.14
-1.97
-4.04
-6.48
-9.31
-12.36
-15.35
-18.02
-20.24
-22.07
-23.66
-25.22
-27.01
-29.23
-32.02
-35.31
-38.79
-41.81
-43.52
-43.12
-40.11
-34.55
-27.01
-18.44
-9.82
-1.94
4.75
10.11
14.22
17.26
19.42
20.91
21.90
22.52
22.87
23.02
23.03
22.95
22.87
22.88
23.02
23.34
23.76
24.24
24.71
25.12
25.36
25.37
25.02
24.30
23.23
21.91
20.45
18.87
17.14
15.17
12.88
10.24
7.33
4.25
1.10
-2.01
-5.03
-7.90
-10.58
-13.01
-15.21
-17.20
-19.07
-20.95
-22.94
-25.15
-27.66
-30.47
-33.56
-36.81
-39.99
-42.76
-44.60
-44.98
-43.45
-39.80
-34.17
-27.05
-19.11
-11.08
-3.54
3.11
8.67
13.10
16.54
19.16
21.20
22.82
24.10
25.06
25.68
25.96
25.98
25.88
25.80
25.87
26.10
26.51
27.01
27.48
27.74
27.61
26.99
25.88
24.39
22.68
20.86
19.00
17.10
15.14
13.11
10.99
8.71
6.26
3.62
0.91
-1.69
-3.98
-5.89
-7.51
-9.08
-10.86
-12.94
-15.25
-17.57
-19.66
-21.46
-23.04
-24.61
-26.37
-28.48
-30.97
-33.75
-36.59
-39.17
-40.98
-41.50
-40.22
-36.86
-31.46
-24.45
-16.54
-8.58
-1.33
4.68
9.23
12.44
14.59
16.03
17.02
17.70
18.11
18.26
18.18
18.00
17.85
17.84
18.04
18.41
18.94
19.57
20.22
20.76
21.05
20.91
20.30
19.22
17.82
16.22
14.56
12.87
11.19
9.51
7.80
6.04
4.21
2.25
0.18
-1.96
-4.06
-6.06
-7.92
-9.70
-11.47
-13.26
-15.04
-16.75
-18.38
-20.02
-21.86
-24.12
-26.86
-29.92
-32.90
-35.22
-36.30
-35.67
-33.08
-28.53
-22.31
-14.98
-7.28
-0.05
6.04
10.62
13.74
15.75
17.08
18.02
18.69
19.02
18.95
18.55
18.02
17.62
17.52
17.77
18.20
18.60
18.75
18.55
18.02
17.27
16.41
15.52
14.57
13.47
12.13
10.54
8.76
6.97
5.33
3.91
2.70
1.56
0.34
-1.11
-2.84
-4.83
-6.96
-9.14
-11.29
-13.37
-15.39
-17.35
-19.25
-21.06
-22.83
-24.65
-26.70
-29.16
-32.04
-35.08
-37.75
-39.36
-39.22
-36.94
-32.56
-26.51
-19.55
-12.46
-5.87
-0.15
4.55
8.25
11.02
12.96
14.26
15.09
15.72
16.33
16.99
17.66
18.19
18.48
18.51
18.37
18.20
18.12
18.17
18.26
18.26
18.07
17.63
16.95
16.09
15.10
13.98
12.70
11.25
9.63
7.93
6.22
4.60
3.09
1.66
0.25
-1.19
-2.68
-4.21
-5.72
-7.21
-8.68
-10.21
-11.86
-13.71
-15.78
-18.07
-20.58
-23.29
-26.24
-29.43
-32.76
-35.93
-38.41
-39.56
-38.81
-35.91
-31.00
-24.66
-17.69
-10.87
-4.81
0.22
4.19
7.26
9.65
11.57
13.10
14.30
15.13
15.60
15.75
15.74
15.74
15.91
16.30
16.86
17.52
18.17
18.79
19.40
20.03
20.61
20.96
20.89
20.25
19.04
17.37
15.46
13.49
11.52
9.54
7.45
5.24
2.98
0.83
-1.09
-2.75
-4.25
-5.80
-7.58
-9.64
-11.91
-14.20
-16.34
-18.28
-20.07
-21.90
-23.97
-26.41
-29.13
-31.80
-33.89
-34.76
-33.88
-31.00
-26.33
-20.38
-13.91
-7.64
-2.07
2.56
6.24
9.11
11.34
13.04
14.33
15.25
15.81
16.01
15.88
15.50
15.01
14.59
14.33
14.30
14.46
14.75
15.11
15.51
15.96
16.39
16.72
16.80
16.47
15.60
14.19
12.34
10.22
8.05
6.02
4.20
2.61
1.14
-0.35
-2.00
-3.89
-6.07
-8.47
-10.99
-13.52
-15.90
-18.05
-19.92
-21.59
-23.19
-24.96
-27.04
-29.43
-31.80
-33.59
-34.11
-32.78
-29.38
-24.14
-17.65
-10.70
-3.97
2.05
7.08
11.06
13.96
15.83
16.78
16.96
16.62
16.01
15.35
14.80
14.44
14.25
14.23
14.34
14.57
14.88
15.22
15.52
15.69
15.62
15.21
14.38
13.15
11.56
9.73
7.80
5.89
4.08
2.43
0.93
-0.51
-1.97
-3.57
-5.32
-7.19
-9.06
-10.78
-12.27
-13.54
-14.74
-16.11
-17.93
-20.40
-23.53
-27.15
-30.85
-34.03
-35.99
-36.15
-34.13
-29.96
-24.08
-17.28
-10.42
-4.24
0.88
4.91
8.05
10.54
12.54
14.07
15.14
15.79
16.13
16.29
16.38
16.45
16.50
16.53
16.61
16.82
17.22
17.79
18.41
18.88
19.02
18.69
17.84
16.51
14.82
12.90
10.89
8.85
6.87
4.96
3.15
1.46
-0.14
-1.75
-3.46
-5.37
-7.49
-9.72
-11.89
-13.86
-15.57
-17.11
-18.75
-20.80
-23.51
-26.87
-30.60
-34.08
-36.54
-37.19
-35.56
-31.58
-25.68
-18.64
-11.34
-4.54
1.28
5.95
9.56
12.31
14.42
16.04
17.27
18.13
18.64
18.85
18.89
18.95
19.21
19.76
20.59
21.56
22.45
23.10
23.48
23.67
23.75
23.77
23.61
23.10
22.07
20.41
18.18
15.57
12.84
10.20
7.83
5.76
3.91
2.09
0.07
-2.31
-5.09
-8.13
-11.17
-13.97
-16.36
-18.41
-20.33
-22.41
-24.90
-27.87
-31.20
-34.51
-37.24
-38.75
-38.49
-36.09
-31.57
-25.33
-18.09
-10.73
-3.98
1.70
6.17
9.58
12.21
14.30
15.95
17.18
17.96
18.36
18.49
18.58
18.80
19.25
19.88
20.54
21.05
21.31
21.32
21.18
20.95
20.69
20.34
19.76
18.80
17.35
15.40
13.10
10.65
8.27
6.05
4.01
2.05
0.04
-2.13
-4.48
-6.93
-9.37
-11.70
-13.90
-16.02
-18.14
-20.37
-22.80
-25.47
-28.33
-31.26
-34.00
-36.13
-37.14
-36.53
-33.99
-29.52
-23.52
-16.63
-9.61
-3.09
2.55
7.19
10.88
13.77
15.96
17.52
18.50
18.96
19.05
18.92
18.74
18.63
18.61
18.66
18.73
18.75
18.71
18.61
18.41
18.04
17.36
16.26
14.67
12.69
10.52
8.39
6.49
4.85
3.35
1.74
-0.18
-2.53
-5.27
-8.17
-11.01
-13.56
-15.75
-17.64
-19.43
-21.32
-23.49
-26.04
-28.89
-31.80
-34.34
-35.98
-36.15
-34.42
-30.69
-25.22
-18.63
-11.71
-5.22
0.36
4.89
8.50
11.50
14.15
16.53
18.58
20.15
21.14
21.60
21.72
21.70
21.73
21.85
21.93
21.85
21.57
21.16
20.84
20.76
20.92
21.16
21.19
20.74
19.69
18.06
16.02
13.74
11.31
8.77
6.13
3.40
0.65
-2.08
-4.81
-7.60
-10.50
-13.47
-16.43
-19.24
-21.83
-24.27
-26.75
-29.50
-32.63
-35.97
-39.12
-41.49
-42.41
-41.37
-38.14
-32.86
-26.02
-18.34
-10.57
-3.33
3.00
8.34
12.74
16.36
19.33
21.69
23.46
24.60
25.17
25.32
25.26
25.22
25.34
25.62
25.94
26.11
26.02
25.69
25.24
24.80
24.45
24.14
23.74
23.05
21.94
20.33
18.24
15.77
13.08
10.35
7.77
5.42
3.27
1.18
-1.02
-3.45
-6.12
-8.91
-11.64
-14.20
-16.51
-18.60
-20.56
-22.49
-24.56
-26.94
-29.82
-33.26
-37.09
-40.79
-43.59
-44.62
-43.26
-39.33
-33.17
-25.55
-17.37
-9.49
-2.44
3.51
8.38
12.31
15.53
18.21
20.49
22.39
23.93
25.08
25.84
26.30
26.53
26.64
26.69
26.76
26.87
27.06
27.29
27.51
27.59
27.39
26.79
25.74
24.26
22.46
20.46
18.37
16.24
14.11
11.94
9.71
7.39
4.97
2.49
0.02
-2.33
-4.50
-6.44
-8.22
-9.91
-11.59
-13.34
-15.15
-17.02
-18.94
-20.98
-23.16
-25.57
-28.24
-31.20
-34.37
-37.49
-40.13
-41.70
-41.61
-39.44
-35.11
-28.96
-21.65
-13.95
-6.60
-0.06
5.40
9.76
13.12
15.62
17.42
18.66
19.46
19.95
20.25
20.49
20.73
21.02
21.33
21.59
21.74
21.78
21.74
21.63
21.45
21.11
20.54
19.69
18.57
17.25
15.81
14.28
12.67
11.02
9.33
7.71
6.18
4.70
3.14
1.35
-0.74
-3.08
-5.50
-7.83
-9.99
-12.00
-13.97
-15.96
-17.99
-20.02
-22.10
-24.34
-26.88
-29.73
-32.66
-35.14
-36.47
-35.99
-33.34
-28.59
-22.23
-15.03
-7.82
-1.26
4.23
8.57
11.89
14.39
16.25
17.55
18.32
18.61
18.54
18.29
18.06
17.96
17.98
18.04
18.05
17.95
17.76
17.57
17.41
17.27
17.07
16.70
16.05
15.08
13.77
12.14
10.28
8.25
6.18
4.14
2.21
0.41
-1.22
-2.69
-4.00
-5.20
-6.37
-7.63
-9.13
-10.91
-12.93
-15.07
-17.17
-19.19
-21.18
-23.30
-25.74
-28.56
-31.65
-34.67
-37.10
-38.30
-37.76
-35.19
-30.60
-24.42
-17.38
-10.29
-3.89
1.39
5.43
8.47
10.85
12.93
14.90
16.78
18.41
19.58
20.16
20.16
19.73
19.09
18.43
17.92
17.60
17.49
17.58
17.84
18.19
18.49
18.57
18.27
17.54
16.43
15.08
13.65
12.22
10.77
9.20
7.44
5.49
3.39
1.23
-0.90
-2.96
-4.95
-6.90
-8.82
-10.73
-12.63
-14.48
-16.26
-17.92
-19.45
-20.88
-22.35
-24.02
-26.04
-28.41
-30.91
-33.05
-34.21
-33.81
-31.49
-27.27
-21.53
-14.92
-8.17
-1.94
3.29
7.25
9.91
11.44
12.15
12.45
12.67
13.00
13.42
13.76
13.84
13.61
13.17
12.77
12.64
12.86
13.35
13.91
14.30
14.45
14.35
14.11
13.76
13.33
12.70
11.80
10.62
9.21
7.69
6.18
4.72
3.27
1.81
0.30
-1.22
-2.68
-4.05
-5.32
-6.57
-7.89
-9.37
-11.05
-12.90
-14.89
-16.98
-19.20
-21.59
-24.18
-26.94
-29.70
-32.17
-33.84
-34.18
-32.74
-29.44
-24.53
-18.59
-12.37
-6.52
-1.47
2.70
6.09
8.89
11.23
13.11
14.48
15.33
15.73
15.80
15.67
15.47
15.24
15.02
14.83
14.67
14.52
14.42
14.32
14.24
14.18
14.10
14.00
13.78
13.35
12.59
11.48
10.05
8.37
6.54
4.69
2.96
1.42
0.12
-1.00
-2.07
-3.24
-4.59
-6.15
-7.84
-9.55
-11.17
-12.63
-13.94
-15.12
-16.26
-17.46
-18.87
-20.63
-22.77
-25.11
-27.19
-28.41
-28.21
-26.27
-22.64
-17.73
-12.13
-6.45
-1.17
3.43
7.22
10.19
12.41
13.97
14.95
15.41
15.39
14.97
14.29
13.50
12.80
12.29
12.00
11.87
11.80
11.71
11.61
11.57
11.64
11.82
11.97
11.96
11.66
11.05
10.16
9.09
7.86
6.48
4.89
3.06
0.99
-1.21
-3.45
-5.61
-7.66
-9.53
-11.18
-12.58
-13.72
-14.72
-15.67
-16.75
-18.02
-19.54
-21.29
-23.26
-25.40
-27.49
-29.21
-30.01
-29.36
-26.91
-22.66
-17.04
-10.74
-4.49
1.11
5.73
9.27
11.79
13.42
14.31
14.61
14.47
14.06
13.54
13.03
12.62
12.33
12.14
12.00
11.90
11.86
11.95
12.20
12.58
12.95
13.13
12.94
12.32
11.30
9.98
8.48
6.88
5.23
3.60
2.07
0.72
-0.44
-1.52
-2.71
-4.20
-6.05
-8.16
-10.28
-12.16
-13.64
-14.76
-15.70
-16.69
-17.93
-19.54
-21.59
-24.02
-26.66
-29.17
-31.07
-31.81
-30.99
-28.43
-24.30
-19.05
-13.31
-7.66
-2.52
1.90
5.59
8.61
11.01
12.80
13.97
14.53
14.59
14.36
14.07
13.96
14.14
14.56
15.09
15.55
15.79
15.76
15.53
15.20
14.88
14.65
14.45
14.18
13.71
12.94
11.84
10.51
9.04
7.53
6.01
4.45
2.76
0.92
-1.06
-3.13
-5.21
-7.26
-9.27
-11.20
-13.04
-14.74
-16.32
-17.88
-19.57
-21.56
-23.92
-26.55
-29.12
-31.14
-32.07
-31.50
-29.27
-25.51
-20.62
-15.10
-9.51
-4.27
0.39
4.35
7.61
10.19
12.14
13.53
14.47
15.10
15.58
15.97
16.30
16.57
16.74
16.83
16.86
16.87
16.91
16.99
17.11
17.23
17.26
17.08
16.53
15.50
13.94
11.94
9.64
7.26
4.96
2.89
1.10
-0.45
-1.90
-3.40
-5.09
-7.02
-9.08
-11.12
-13.01
-14.73
-16.38
-18.15
-20.20
-22.57
-25.22
-27.96
-30.50
-32.43
-33.26
-32.54
-30.00
-25.70
-20.04
-13.70
-7.37
-1.59
3.34
7.38
10.60
13.10
14.93
16.12
16.69
16.76
16.48
16.11
15.84
15.82
16.03
16.31
16.46
16.33
15.93
15.43
15.03
14.88
14.92
14.90
14.57
13.71
12.29
10.44
8.39
6.34
4.39
2.56
0.76
-1.10
-3.10
-5.25
-7.49
-9.75
-11.97
-14.11
-16.22
-18.38
-20.70
-23.29
-26.10
-28.94
-31.37
-32.80
-32.58
-30.30
-25.95
-19.95
-13.08
-6.17
0.07
5.28
9.36
12.38
14.49
15.77
16.34
16.41
16.22
16.07
16.15
16.51
17.04
17.55
17.90
18.07
18.14
18.21
18.35
18.49
18.48
18.11
17.22
15.75
13.79
11.51
9.13
6.86
4.80
2.97
1.28
-0.47
-2.48
-4.83
-7.46
-10.17
-12.70
-14.86
-16.68
-18.34
-20.18
-22.52
-25.50
-28.98
-32.53
-35.55
-37.31
-37.21
-34.89
-30.40
-24.17
-16.95
-9.57
-2.75
3.12
7.98
11.98
15.33
18.11
20.23
21.58
22.10
21.92
21.42
20.96
20.85
21.16
21.68
22.16
22.41
22.38
22.21
22.08
22.09
22.14
22.02
21.46
20.30
18.55
16.33
13.88
11.44
9.14
7.02
5.02
3.02
0.88
-1.51
-4.16
-6.98
-9.81
-12.47
-14.83
-16.91
-18.82
-20.75
-22.93
-25.52
-28.52
-31.79
-35.01
-37.67
-39.16
-38.91
-36.53
-31.98
-25.66
-18.28
-10.76
-3.90
1.86
6.48
10.22
13.46
16.42
19.13
21.41
23.06
24.00
24.30
24.21
24.04
24.04
24.33
24.90
25.59
26.24
26.68
26.83
26.67
26.21
25.44
24.35
22.87
20.99
18.81
16.47
14.17
12.03
10.11
8.35
6.67
4.97
3.18
1.27
-0.74
-2.83
-4.90
-6.92
-8.81
-10.59
-12.31
-14.07
-15.92
-17.89
-20.01
-22.34
-25.02
-28.16
-31.73
-35.43
-38.68
-40.63
-40.51
-37.87
-32.77
-25.80
-17.86
-9.91
-2.66
3.47
8.40
12.23
15.15
17.34
18.98
20.26
21.37
22.43
23.46
24.39
25.09
25.47
25.50
25.29
24.95
24.61
24.32
24.02
23.60
22.92
21.96
20.76
19.45
18.13
16.87
15.62
14.29
12.79
11.06
9.06
6.92
4.76
2.71
0.84
-0.88
-2.58
-4.42
-6.52
-8.87
-11.31
-13.63
-15.66
-17.36
-18.89
-20.52
-22.52
-25.05
-28.10
-31.35
-34.36
-36.55
-37.35
-36.34
-33.30
-28.35
-21.93
-14.77
-7.62
-1.20
4.11
8.18
11.15
13.30
14.88
16.04
16.84
17.29
17.43
17.36
17.21
17.10
17.16
17.45
17.99
18.71
19.48
20.09
20.41
20.36
19.97
19.32
18.47
17.36
15.92
14.07
11.83
9.43
7.08
4.99
3.17
1.50
-0.20
-2.06
-4.07
-6.15
-8.20
-10.20
-12.17
-14.19
-16.31
-18.53
-20.79
-23.07
-25.41
-27.83
-30.34
-32.74
-34.67
-35.63
-35.06
-32.60
-28.18
-22.13
-15.08
-7.82
-1.06
4.71
9.31
12.82
15.43
17.31
18.54
19.17
19.24
18.88
18.31
17.79
17.47
17.44
17.63
17.93
18.23
18.47
18.58
18.57
18.40
18.07
17.53
16.78
15.79
14.57
13.16
11.58
9.87
8.07
6.21
4.28
2.28
0.23
-1.87
-3.99
-6.10
-8.12
-10.06
-11.89
-13.63
-15.29
-16.88
-18.38
-19.76
-21.06
-22.39
-23.97
-25.99
-28.51
-31.34
-33.97
-35.68
-35.74
-33.68
-29.41
-23.34
-16.19
-8.87
-2.19
3.34
7.52
10.51
12.64
14.28
15.70
16.99
18.07
18.82
19.17
19.13
18.82
18.38
17.95
17.59
17.36
17.34
17.59
18.14
18.89
19.63
20.01
19.75
18.73
16.99
14.79
12.46
10.26
8.32
6.63
5.09
3.61
2.10
0.47
-1.33
-3.37
-5.60
-7.93
-10.17
-12.15
-13.77
-15.10
-16.31
-17.68
-19.42
-21.63
-24.27
-27.12
-29.89
-32.19
-33.64
-33.85
-32.50
-29.47
-24.85
-19.02
-12.56
-6.17
-0.42
4.36
8.16
11.21
13.79
16.04
17.94
19.26
19.80
19.53
18.64
17.53
16.57
16.02
15.89
16.06
16.31
16.49
16.53
16.45
16.22
15.80
15.07
13.96
12.50
10.82
9.16
7.65
6.38
5.26
4.10
2.73
1.06
-0.86
-2.91
-4.91
-6.71
-8.27
-9.62
-10.86
-12.15
-13.59
-15.19
-16.88
-18.53
-20.05
-21.52
-23.12
-25.07
-27.43
-30.02
-32.28
-33.50
-32.99
-30.36
-25.70
-19.58
-12.87
-6.47
-1.11
2.93
5.78
7.83
9.49
11.01
12.32
13.13
13.10
12.04
10.12
7.83
5.80
4.58
4.37
4.93
5.74
6.20
5.90
4.78
3.12
1.48
0.60
1.20
3.80
8.52
14.89
21.79
27.73
31.26
31.58
28.87
24.20
19.11
14.90
12.16
10.61
9.46
7.91
5.63
2.81
-0.03
-2.42
-4.28
-5.82
-7.30
-8.68
-9.44
-8.71
-5.62
0.29
8.87
19.35
30.63
41.43
50.48
56.58
58.65
56.01
48.62
37.24
23.38
8.83
-4.75
-16.29
-25.36
-31.95
-36.20
-38.21
-38.08
-36.07
-32.69
-28.69
-24.78
-21.47
-18.90
-16.96
-15.42
-14.09
-12.91
-11.90
-11.12
-10.60
-10.32
-10.30
-10.55
-11.11
-12.02
-13.28
-14.86
-16.65
-18.55
-20.38
-21.95
-23.11
-23.82
-24.17
-24.46
-25.06
-26.31
-28.32
-30.86
-33.39
-35.16
-35.51
-34.09
-30.93
-26.38
-20.98
-15.22
-9.45
-3.86
1.40
6.12
10.02
12.81
14.27
14.44
13.62
12.34
11.30
11.18
12.52
15.56
20.18
25.77
31.42
36.04
38.78
39.35
38.23
36.55
35.63
36.42
39.01
42.61
45.96
47.95
48.11
46.66
44.27
41.44
38.16
33.89
27.98
20.21
11.01
1.43
-7.38
-14.55
-19.87
-23.64
-26.53
-29.19
-32.12
-35.55
-39.46
-43.55
-47.28
-49.94
-50.79
-49.33
-45.50
-39.73
-32.84
-25.73
-19.19
-13.71
-9.55
-6.76
-5.33
-5.16
-6.09
-7.74
-9.66
-11.37
-12.48
-12.90
-12.80
-12.52
-12.30
-12.20
-12.04
-11.53
-10.48
-8.89
-7.00
-5.23
-4.04
-3.75
-4.50
-6.16
-8.43
-10.87
-13.13
-15.00
-16.54
-18.01
-19.67
-21.68
-23.96
-26.27
-28.32
-29.69
-29.80
-27.75
-22.52
-13.43
-0.55
15.07
31.58
47.02
60.09
70.58
79.33
87.71
96.89
107.39
119.03
131.23
143.40
154.87
164.72
171.54
173.59
169.33
158.18
140.98
119.96
98.01
77.66
60.19
45.45
32.36
19.72
6.97
-5.67
-17.43
-27.56
-35.62
-41.52
-45.30
-47.04
-46.99
-45.80
-44.74
-45.56
-49.91
-58.68
-71.38
-86.27
-100.95
-113.24
-121.81
-126.58
-128.39
-128.54
-128.24
-128.28
-128.91
-129.93
-130.80
-130.80
-129.21
-125.39
-118.96
-109.90
-98.60
-85.80
-72.47
-59.62
-48.10
-38.40
-30.64
-24.54
-19.61
-15.33
-11.36
-7.58
-4.10
-1.13
1.22
3.02
4.56
6.19
8.22
10.70
13.42
16.04
18.24
19.87
20.98
21.73
22.26
22.54
22.43
21.77
20.47
18.61
16.35
13.86
11.27
8.57
5.76
2.83
-0.15
-3.08
-5.91
-8.74
-11.75
-15.16
-19.02
-23.06
-26.67
-29.02
-29.30
-27.06
-22.34
-15.73
-8.17
-0.60
6.26
12.08
16.83
20.67
23.79
26.35
28.42
30.11
31.46
32.56
33.41
33.96
34.13
33.94
33.50
33.02
32.72
32.69
32.88
33.06
32.92
32.26
31.00
29.25
27.23
25.15
23.18
21.32
19.51
17.62
15.58
13.34
10.92
8.29
5.39
2.17
-1.31
-4.95
-8.51
-11.81
-14.78
-17.54
-20.31
-23.21
-26.09
-28.45
-29.60
-28.83
-25.77
-20.53
-13.69
-6.11
1.29
7.82
13.06
16.90
19.46
20.96
21.59
21.58
21.08
20.26
19.27
18.25
17.34
16.62
16.21
16.18
16.58
17.43
18.70
20.24
21.82
23.20
24.10
24.32
23.76
22.44
20.47
18.04
15.37
12.67
10.14
7.92
6.07
4.54
3.16
1.64
-0.23
-2.64
-5.58
-8.84
-12.11
-15.06
-17.55
-19.79
-22.25
-25.47
-29.79
-35.12
-40.71
-45.36
-47.85
-47.46
-44.36
-39.49
-34.14
-29.47
-26.09
-23.70
-21.48
-18.63
-14.97
-11.18
-8.36
-7.51
-9.10
-13.15
-18.79
-24.68
-29.27
-31.28
-30.12
-25.79
-18.85
-10.37
-1.79
6.02
13.04
20.20
29.03
41.22
58.40
81.82
111.79
143.44
169.32
182.15
179.17
163.64
141.66
118.47
96.56
76.10
56.17
37.00
20.37
8.63
3.46
4.14
7.86
11.10
11.83
9.38
5.45
2.94
4.02
8.71
14.09
15.90
10.25
-3.49
-22.87
-43.41
-60.90
-73.20
-80.39
-84.41
-87.17
-89.47
-91.03
-91.37
-90.25
-87.84
-85.90
-84.08
-82.16
-79.67
-75.93
-70.36
-62.86
-53.75
-43.75
-33.74
-24.32
-16.09
-9.26
-3.80
0.42
3.39
4.96
5.02
3.68
1.49
-1.06
-3.53
-5.58
-6.94
-7.72
-8.23
-8.83
-9.84
-11.32
-13.13
-14.60
-14.57
-11.72
-5.20
4.74
16.59
27.94
36.43
40.60
40.55
37.68
33.91
30.63
28.13
25.70
22.27
17.09
10.11
1.89
-6.82
-15.41
-23.56
-30.95
-37.07
-41.07
-42.11
-39.86
-34.82
-28.28
-21.66
-15.80
-10.55
-4.88
2.42
12.02
23.62
36.11
48.11
58.65
67.43
74.71
80.87
85.95
89.50
90.76
89.00
83.84
75.46
64.47
51.76
38.15
24.25
10.42
-3.10
-15.99
-27.87
-38.32
-47.03
-53.89
-59.01
-62.72
-65.34
-67.18
-68.42
-69.09
-69.01
-67.79
-64.91
-59.92
-52.67
-43.46
-33.00
-22.14
-11.63
-1.97
6.60
13.96
20.07
24.91
28.52
31.11
33.02
34.60
36.09
37.59
39.03
40.32
41.39
42.28
42.99
43.49
43.74
43.66
43.21
42.44
41.42
40.18
38.66
36.72
34.16
30.88
26.91
22.46
17.81
13.19
8.78
4.58
0.47
-3.67
-8.00
-12.61
-17.58
-22.88
-28.53
-34.37
-40.14
-45.41
-49.64
-52.41
-53.54
-53.14
-51.52
-49.01
-45.78
-41.87
-37.28
-32.20
-27.02
-22.21
-17.95
-14.02
-9.82
-4.69
1.65
8.94
16.38
23.04
28.07
31.02
31.72
30.20
26.54
20.92
13.64
5.35
-3.12
-10.99
-17.62
-22.69
-25.95
-27.06
-25.57
-21.06
-13.51
-3.61
7.26
17.46
25.64
31.23
34.47
36.12
36.92
37.27
37.14
36.27
34.60
32.32
29.88
27.76
26.16
24.87
23.42
21.27
18.07
13.90
9.27
4.88
1.52
-0.28
-0.26
1.49
4.60
8.53
12.74
16.68
19.97
22.36
23.75
24.15
23.63
22.32
20.31
17.79
14.91
11.88
8.90
6.13
3.63
1.43
-0.43
-1.90
-2.89
-3.32
-3.17
-2.53
-1.61
-0.64
0.15
0.66
0.87
0.81
0.54
0.13
-0.38
-0.88
-1.29
-1.58
-1.73
-1.89
-2.23
-2.97
-4.20
-5.94
-8.10
-10.63
-13.55
-16.91
-20.74
-24.86
-28.85
-32.09
-33.88
-33.75
-31.50
-27.38
-21.93
-15.92
-10.10
-5.03
-1.04
1.84
3.75
4.87
5.36
5.35
4.89
4.05
2.97
1.81
0.71
-0.18
-0.87
-1.34
-1.58
-1.56
-1.22
-0.57
0.30
1.20
1.91
2.24
2.10
1.53
0.66
-0.33
-1.30
-2.17
-2.95
-3.73
-4.58
-5.53
-6.55
-7.55
-8.43
-9.10
-9.58
-9.93
-10.32
-10.99
-12.20
-14.02
-16.36
-18.76
-20.56
-21.04
-19.67
-16.33
-11.32
-5.31
0.98
6.85
11.85
15.72
18.36
19.76
20.04
19.39
18.09
16.49
14.91
13.51
12.39
11.52
10.86
10.38
10.03
9.72
9.31
8.67
7.74
6.56
5.24
3.96
2.82
1.84
0.94
-0.01
-1.11
-2.47
-4.11
-6.04
-8.18
-10.35
-12.36
-14.04
-15.32
-16.29
-17.23
-18.54
-20.57
-23.48
-27.08
-30.83
-33.94
-35.57
-35.15
-32.52
-27.95
-22.05
-15.55
-9.14
-3.32
1.55
5.29
7.80
9.07
9.17
8.22
6.36
3.74
0.51
-3.09
-6.84
-10.46
-13.78
-16.76
-19.49
-22.17
-24.95
-27.86
-30.79
-33.57
-36.03
-38.10
-39.81
-41.21
-42.30
-42.93
-42.84
-41.75
-39.44
-35.81
-30.96
-25.16
-18.80
-12.34
-6.22
-0.88
3.33
6.25
8.07
9.33
10.90
13.70
18.37
25.00
33.06
41.61
49.58
56.17
60.95
63.90
65.14
64.87
63.20
60.28
56.39
51.88
47.14
42.49
38.11
34.04
30.28
26.84
23.80
21.28
19.36
17.94
16.86
15.87
14.79
13.50
11.99
10.17
7.96
5.30
2.11
-1.55
-5.55
-9.69
-13.77
-17.63
-21.21
-24.50
-27.57
-30.56
-33.58
-36.67
-39.63
-41.92
-42.85
-41.68
-37.93
-31.64
-23.26
-13.61
-3.60
6.00
14.69
22.21
28.49
33.56
37.47
40.27
42.02
42.79
42.65
41.78
40.36
38.69
37.11
35.96
35.48
35.87
37.05
38.82
40.89
42.95
44.80
46.39
47.78
49.08
50.38
51.56
52.39
52.53
51.67
49.68
46.58
42.57
37.88
32.66
26.87
20.33
12.82
4.39
-4.62
-13.55
-21.60
-28.16
-32.98
-36.31
-38.66
-40.54
-42.20
-43.47
-43.94
-43.15
-40.79
-36.68
-30.73
-22.77
-12.60
-0.14
14.36
30.21
46.35
61.75
75.63
87.62
97.51
105.02
109.52
110.08
105.80
96.24
81.64
63.06
42.07
20.39
-0.49
-19.61
-36.56
-51.40
-64.41
-75.82
-85.69
-93.88
-100.26
-104.86
-107.99
-110.15
-111.83
-113.23
-114.14
-114.07
-112.42
-108.79
-103.14
-95.82
-87.41
-78.54
-69.69
-61.12
-52.97
-45.31
-38.26
-31.98
-26.62
-22.22
-18.63
-15.63
-12.93
-10.30
-7.64
-4.94
-2.38
-0.10
1.75
3.18
4.27
5.21
6.14
7.11
8.05
8.75
8.99
8.56
7.38
5.49
3.02
0.16
-2.84
-5.78
-8.50
-10.95
-13.18
-15.34
-17.58
-19.95
-22.31
-24.35
-25.59
-25.59
-24.01
-20.76
-16.05
-10.33
-4.24
1.56
6.54
10.38
13.08
14.80
15.84
16.44
16.68
16.54
15.91
14.74
13.14
11.35
9.70
8.50
7.92
7.95
8.45
9.20
10.01
10.75
11.40
11.90
12.19
12.12
11.60
10.61
9.26
7.73
6.18
4.62
2.98
1.14
-0.97
-3.28
-5.66
-7.94
-10.05
-11.90
-13.41
-14.35
-14.47
-13.51
-11.38
-8.22
-4.39
-0.36
3.43
6.68
9.20
10.97
12.02
12.41
12.24
11.68
10.91
10.10
9.35
8.66
8.01
7.37
6.77
6.34
6.24
6.51
7.09
7.76
8.27
8.42
8.16
7.53
6.63
5.52
4.17
2.55
0.70
-1.28
-3.21
-4.92
