1679486708.00
64.000000
-0.00
-0.00
-0.00
-0.00
-0.00
-0.00
-0.00
-0.00
-0.00
-0.00
0.00
0.01
0.01
-0.00
-0.03
-0.05
-0.05
0.00
0.13
0.36
0.66
1.01
1.37
1.72
2.06
2.40
2.79
3.24
3.80
4.42
5.06
5.66
6.20
6.68
7.15
7.68
8.31
9.14
10.09
11.04
11.88
12.56
13.14
13.76
14.65
15.96
17.91
20.32
22.90
25.38
27.58
29.57
31.68
34.32
37.81
42.54
48.15
54.10
59.83
64.97
69.58
74.14
79.34
85.71
93.76
103.00
112.62
121.73
129.77
136.75
143.30
150.75
157.77
166.64
177.95
191.79
206.97
220.57
228.25
225.36
208.53
176.87
132.76
80.05
23.07
-34.94
-92.43
-149.14
-205.20
-260.33
-313.68
-363.79
-409.72
-450.77
-486.33
-515.54
-537.00
-548.97
-549.69
-538.08
-513.91
-478.37
-433.57
-382.14
-326.71
-269.52
-212.30
-156.31
-102.58
-51.98
-5.47
36.05
71.95
101.95
126.18
145.16
159.60
170.20
177.58
182.14
184.17
183.90
181.59
177.59
172.31
166.16
159.46
152.45
145.28
138.03
130.72
123.42
116.17
109.05
102.13
95.44
89.00
82.83
76.96
71.40
66.20
61.40
56.99
52.97
49.28
45.86
42.62
39.46
36.22
32.76
28.94
24.67
19.95
14.80
9.42
4.08
-0.92
-5.19
-8.33
-10.03
-10.04
-8.06
-4.28
1.06
7.59
14.87
22.43
29.92
37.05
43.60
49.49
54.50
58.61
61.80
64.00
65.09
64.88
63.18
59.77
54.53
47.19
37.79
26.42
13.30
-1.20
-16.69
-32.67
-48.66
-63.48
-76.93
-88.75
-98.78
-106.88
-112.90
-116.68
-118.03
-117.25
-113.94
-108.44
-100.43
-90.02
-77.66
-64.11
-50.37
-37.58
-26.89
-19.24
-15.42
-15.67
-19.88
-27.50
-37.63
-49.04
-60.37
-70.25
-77.43
-80.90
-79.91
-74.17
-63.85
-49.53
-32.11
-12.72
7.78
27.79
45.94
61.37
73.59
82.54
88.38
91.51
92.39
91.52
89.23
85.83
81.64
76.91
71.96
67.12
62.73
59.01
56.00
53.49
51.21
49.00
46.83
44.95
43.75
43.76
45.10
47.47
50.18
52.43
53.58
53.53
52.81
52.23
52.67
54.51
57.23
59.42
59.33
55.52
47.45
35.80
21.99
7.52
-6.51
-20.00
-33.80
-49.05
-66.71
-87.23
-109.62
-133.08
-155.37
-172.64
-180.34
-174.73
-154.91
-124.01
-88.97
-56.91
-33.42
-20.20
-15.08
-14.15
-14.24
-14.51
-16.01
-20.15
-26.79
-33.99
-38.64
-37.96
-30.62
-16.69
2.61
24.75
46.54
64.02
73.37
72.52
62.62
47.98
34.40
27.25
28.52
36.56
47.52
57.59
64.88
69.62
72.58
73.89
72.56
67.02
56.50
41.77
25.03
8.64
-5.38
-16.35
-24.74
-31.51
-37.42
-42.29
-45.21
-44.97
-40.84
-32.97
-22.47
-10.90
0.46
10.71
19.81
28.32
36.69
44.64
51.18
55.07
55.43
52.36
46.88
40.65
34.77
29.59
23.84
15.59
3.29
-13.58
-34.56
-58.64
-84.52
-110.46
-133.85
-150.51
-156.96
-151.09
-133.43
-107.56
-78.98
-52.72
-30.99
-12.48
5.80
26.25
48.14
67.38
78.90
79.55
70.29
55.74
42.89
36.74
38.37
45.27
53.41
59.71
63.61
66.11
68.32
70.08
69.24
62.61
47.57
23.98
-5.43
-35.21
-58.67
-70.49
-68.97
-57.14
-41.23
-28.95
-25.23
-30.50
-41.32
-52.87
-61.62
-66.96
-70.42
-73.76
-77.35
-79.44
-77.29
-69.33
-56.26
-41.01
-26.87
-16.54
-10.47
-6.90
-2.79
5.00
18.36
37.65
61.63
87.39
110.45
125.67
128.65
116.75
92.96
63.59
36.10
16.08
5.30
1.63
1.17
0.79
-0.30
-0.71
0.93
4.56
8.24
9.36
5.97
-1.46
-10.41
-17.47
-19.72
-16.75
-10.57
-4.75
-2.77
-6.39
-14.74
-24.74
-32.46
-35.03
-31.91
-25.22
-18.45
-15.17
-17.39
-25.18
-37.07
-50.31
-61.03
-64.77
-57.38
-37.37
-7.78
23.52
46.09
51.10
35.41
3.44
-34.36
-65.66
-81.06
-77.23
-57.04
-27.38
4.11
31.57
51.94
64.70
70.78
71.54
68.28
61.85
53.27
44.03
36.29
31.97
31.95
35.37
39.78
42.45
41.57
36.94
30.22
23.91
20.10
19.75
22.20
25.70
28.34
28.83
26.93
23.53
19.94
17.33
16.21
16.19
16.24
15.46
13.48
10.02
5.71
1.47
-1.79
-3.38
-3.15
-1.40
1.60
5.44
9.73
14.27
18.75
22.30
25.17
27.74
29.19
29.33
28.08
25.48
21.84
17.38
12.38
7.20
1.96
-3.30
-8.39
-13.21
-18.08
-22.49
-26.37
-29.68
-32.30
-34.27
-35.68
-36.51
-36.79
-36.59
-35.91
-34.88
-33.67
-32.29
-30.89
-29.55
-28.28
-27.11
-26.02
-24.99
-24.04
-23.18
-22.40
-21.69
-21.09
-20.58
-20.17
-19.82
-19.48
-19.18
-18.91
-18.69
-18.52
-18.36
-18.14
-17.72
-16.94
-15.54
-13.37
-10.30
-6.26
-1.22
4.61
10.95
17.42
23.58
29.02
33.27
35.91
36.65
35.35
32.04
26.94
20.51
13.01
5.40
-1.69
-7.91
-13.17
-17.60
-21.39
-24.72
-27.64
-30.04
-31.76
-32.67
-32.83
-32.38
-31.59
-30.60
-29.37
-27.60
-24.79
-20.47
-14.18
-6.10
3.27
13.19
23.10
32.53
41.31
49.51
56.46
62.50
67.79
72.70
77.49
81.81
84.32
82.86
75.53
60.81
39.08
11.96
-18.11
-48.30
-75.24
-94.71
-101.93
-92.94
-66.80
-26.66
19.67
61.93
90.60
100.07
89.91
64.68
32.11
-0.10
-24.81
-37.37
-36.18
-23.00
-3.28
14.75
22.21
13.34
-11.63
-45.69
-77.60
-96.55
-96.81
-80.08
-54.07
-27.93
-8.11
3.76
10.15
14.48
18.45
21.24
20.86
16.49
9.81
4.30
3.24
8.02
17.04
26.73
33.21
34.09
29.64
22.43
16.11
13.84
17.18
25.50
36.23
45.66
49.97
46.50
34.60
16.01
-5.60
-25.70
-40.40
-47.68
-47.86
-42.90
-35.47
-27.81
-21.05
-15.42
-10.58
-6.15
-1.84
2.32
5.95
8.29
8.37
5.50
-0.14
-7.45
-14.55
-19.57
-21.33
-19.92
-16.36
-12.06
-8.19
-5.51
-4.28
-4.39
-5.28
-6.16
-6.32
-5.35
-3.33
-0.66
2.13
4.72
6.61
6.84
3.87
-3.99
-17.45
-35.01
-52.68
-65.32
-68.49
-61.31
-46.57
-29.34
-14.68
-5.96
-4.16
-8.25
-15.71
-23.21
-27.24
-25.11
-16.14
-2.50
11.53
21.69
26.39
27.67
29.92
36.86
49.14
63.92
76.82
84.49
86.32
83.99
79.50
73.26
64.00
50.31
32.52
14.14
-0.14
-7.05
-6.73
-2.90
-0.89
-4.52
-14.07
-26.18
-35.91
-39.48
-36.34
-29.23
-22.54
-19.82
-21.81
-26.27
-29.32
-27.55
-19.62
-6.73
8.56
23.26
34.67
41.12
41.74
36.61
26.99
15.51
6.17
3.30
10.03
26.34
48.40
69.71
83.33
84.67
73.07
52.07
28.01
8.67
0.71
7.82
29.22
59.23
88.32
105.98
104.53
82.31
44.43
0.52
-39.39
-68.83
-86.45
-94.96
-98.40
-99.49
-99.00
-97.12
-94.08
-91.41
-91.24
-95.00
-102.42
-111.53
-119.55
-124.07
-124.16
-120.52
-114.90
-109.47
-104.89
-100.53
-94.85
-86.06
-73.02
-55.91
-36.13
-15.95
2.42
17.48
29.08
37.42
43.31
47.66
51.06
53.67
55.33
55.81
55.12
53.51
51.38
49.25
47.54
46.41
45.79
45.39
44.91
44.15
43.04
41.56
39.82
37.94
36.02
34.13
32.32
30.67
29.26
28.15
27.37
26.95
26.90
27.17
27.71
28.43
29.23
30.00
30.63
31.04
31.15
30.95
30.41
29.55
28.35
26.84
25.04
22.95
20.59
17.96
15.08
11.97
8.69
5.29
1.88
-1.45
-4.59
-7.42
-9.87
-11.84
-13.28
-14.17
-14.51
-14.31
-13.64
-12.58
-11.21
-9.59
-7.78
-5.82
-3.72
-1.46
1.02
3.67
6.54
9.69
13.15
17.00
21.27
25.95
31.04
36.51
42.11
47.65
52.97
57.92
62.43
66.49
70.19
73.71
77.34
81.11
85.13
89.55
94.49
100.05
106.25
113.05
120.42
128.27
136.13
143.58
150.22
155.67
159.57
161.51
160.98
157.24
151.87
145.50
138.58
131.44
124.36
117.53
111.08
105.09
99.64
94.82
90.36
86.08
81.83
77.52
73.10
68.63
64.25
60.13
56.47
53.12
49.85
46.41
42.52
37.94
32.53
26.21
18.97
10.78
1.44
-9.27
-21.48
-35.22
-50.37
-66.63
-83.59
-100.71
-117.48
-133.51
-148.49
-162.28
-174.82
-186.13
-196.27
-205.29
-213.20
-219.99
-225.67
-230.39
-234.64
-239.44
-246.48
-257.67
-274.12
-295.07
-317.40
-336.41
-347.67
-348.97
-340.97
-326.33
-307.67
-286.09
-261.32
-233.15
-202.91
-173.51
-147.82
-126.61
-108.07
-89.41
-69.77
-52.06
-41.77
-43.35
-56.30
-74.31
-87.99
-90.05
-79.29
-60.71
-42.03
-28.81
-21.64
-16.80
-9.62
2.39
18.53
36.42
54.63
73.64
94.88
118.09
139.59
152.87
151.63
133.44
101.49
63.71
29.11
4.15
-9.30
-13.42
-11.83
-7.23
-0.06
10.44
24.77
41.86
59.26
74.41
85.87
93.74
98.50
100.01
96.66
86.56
69.26
47.08
24.99
8.27
0.28
0.70
6.28
12.71
16.89
17.89
16.51
14.32
12.52
12.14
14.20
19.88
29.68
42.49
55.03
62.55
60.97
48.53
27.30
2.39
-19.51
-32.51
-33.46
-23.15
-6.45
9.40
17.45
14.42
2.60
-10.74
-16.81
-10.05
8.78
32.33
50.52
55.56
45.88
26.27
4.71
-12.34
-22.66
-27.90
-31.06
-33.34
-33.29
-28.14
-16.67
-1.11
12.97
19.93
17.55
8.11
-2.92
-10.41
-12.52
-11.45
-11.76
-18.25
-31.99
-49.58
-65.15
-73.53
-73.27
-67.59
-62.59
-64.11
-76.05
-96.18
-117.02
-129.39
-127.29
-111.55
-90.46
-76.39
-80.40
-109.41
-160.43
-222.28
-280.38
-322.91
-345.15
-350.22
-346.33
-326.64
-289.17
-234.66
-168.01
-96.94
-29.91
25.90
66.04
89.74
99.88
99.21
92.28
83.01
74.09
66.57
60.05
53.53
46.52
40.03
32.20
25.94
25.30
34.21
55.37
89.81
137.02
195.16
260.45
324.22
376.97
409.53
416.27
397.18
358.53
310.63
264.13
226.52
198.97
178.87
161.61
143.77
125.14
108.98
100.36
103.40
120.31
146.66
175.24
197.84
207.89
202.58
182.92
152.38
112.50
67.75
20.73
-26.50
-71.44
-110.74
-140.87
-159.61
-167.01
-165.44
-157.99
-148.54
-139.39
-131.16
-123.42
-115.55
-107.64
-100.74
-96.57
-96.26
-100.89
-110.29
-123.04
-137.15
-150.53
-161.38
-168.15
-170.08
-165.35
-152.69
-131.32
-101.39
-64.23
-22.20
21.75
64.74
104.67
140.53
171.54
196.81
214.99
224.32
223.32
211.40
189.61
160.83
129.41
99.75
75.77
60.27
54.12
55.45
59.07
56.73
39.05
-1.16
-65.22
-146.83
-233.19
-309.19
-362.88
-389.19
-390.15
-372.20
-342.85
-308.57
-274.93
-247.33
-230.71
-227.36
-234.60
-243.69
-242.17
-218.59
-166.78
-89.23
4.43
100.82
187.74
256.76
304.29
331.08
340.92
339.99
335.37
334.22
341.40
357.80
379.50
398.29
404.42
390.37
354.55
302.46
245.18
194.68
158.46
136.36
121.77
106.44
85.97
63.09
45.01
38.35
43.54
53.63
58.05
48.84
26.01
-2.33
-24.13
-30.36
-19.69
1.35
22.51
36.06
40.31
39.80
40.79
46.66
54.92
58.30
48.98
22.87
-17.67
-65.15
-110.13
-145.44
-168.49
-181.24
-187.85
-191.91
-194.67
-194.45
-188.49
-174.61
-152.94
-125.95
-97.59
-71.77
-50.88
-35.57
-25.07
-18.21
-14.15
-12.66
-13.96
-18.04
-24.39
-31.68
-38.31
-42.73
-44.16
-42.65
-38.95
-34.14
-29.07
-24.18
-19.41
-14.50
-9.21
-3.60
1.98
7.04
11.06
13.81
15.30
15.84
15.81
15.56
15.29
15.09
14.89
14.59
14.15
13.48
12.58
11.53
10.47
9.53
8.91
8.70
8.89
9.31
9.71
9.83
9.58
9.02
8.49
8.41
9.11
10.63
12.62
14.49
15.69
15.99
15.67
15.32
15.72
17.39
20.36
23.94
27.20
29.32
30.09
29.85
29.55
30.15
31.78
33.82
34.74
32.75
26.66
16.07
1.12
-17.83
-40.20
-64.64
-87.91
-105.74
-113.72
-109.41
-94.00
-72.27
-50.33
-32.83
-21.03
-12.99
-6.62
-1.92
-1.59
-9.28
-26.31
-49.33
-70.82
-82.28
-77.86
-58.33
-29.47
0.91
26.41
44.13
54.14
57.60
55.49
48.36
37.53
26.22
18.74
18.46
25.81
37.67
48.25
52.20
47.03
33.76
16.26
-1.11
-15.41
-25.69
-32.42
-36.53
-38.74
-39.34
-38.93
-38.27
-38.39
-40.03
-43.07
-45.81
-45.34
-38.51
-24.23
-4.62
15.02
28.19
30.38
21.38
5.40
-10.96
-22.14
-25.84
-22.60
-13.99
-1.26
15.04
33.85
52.41
66.25
70.37
62.43
43.58
18.26
-8.15
-31.03
-47.74
-57.62
-61.07
-58.13
-48.72
-33.23
-12.96
9.56
30.97
47.51
56.20
55.51
47.11
34.75
22.79
14.59
11.05
10.26
8.86
4.31
-3.28
-10.76
-13.62
-8.75
3.27
18.28
30.61
36.33
34.91
28.93
21.16
12.46
0.94
-15.92
-38.21
-62.10
-80.56
-87.13
-79.63
-61.23
-38.61
-18.46
-4.60
3.14
7.36
10.82
14.55
17.64
18.49
16.13
11.00
4.83
0.05
-1.69
-0.12
3.54
7.22
9.04
7.96
3.95
-2.33
-9.41
-15.07
-16.33
-10.30
4.59
27.47
54.32
79.24
96.53
102.96
98.70
86.60
70.32
52.51
33.67
14.33
-5.18
-23.58
-38.67
-48.51
-52.70
-52.79
-51.51
-51.24
-53.05
-55.88
-57.24
-54.32
-44.98
-28.44
-5.19
22.90
52.61
78.83
96.18
100.26
89.62
67.27
39.69
14.69
-1.96
-8.68
-8.10
-5.08
-3.83
-6.09
-10.92
-16.03
-19.72
-21.64
-22.92
-25.02
-28.88
-34.22
-39.80
-43.64
-44.05
-40.21
-32.54
-22.62
-12.66
-4.85
-0.38
0.23
-2.91
-9.62
-19.52
-31.11
-41.04
-44.30
-36.57
-16.75
10.79
37.02
51.75
48.32
27.38
-3.73
-33.29
-51.99
-56.50
-49.65
-37.49
-25.46
-16.08
-8.97
-3.12
1.32
2.71
0.05
-5.29
-8.90
-5.21
9.16
33.46
62.02
86.52
99.54
97.67
82.47
58.52
32.39
8.50
-11.39
-27.50
-40.59
-51.13
-59.01
-63.87
-65.58
-64.25
-60.20
-53.70
-44.75
-33.08
-18.49
-1.10
18.46
38.84
58.50
75.54
88.57
96.64
99.59
97.86
92.20
83.40
72.07
58.78
43.32
27.01
10.76
-4.37
-17.35
-27.32
-33.88
-37.26
-38.12
-37.48
-36.33
-35.56
-35.61
-36.38
-37.46
-38.28
-38.56
-38.43
-38.38
-39.12
-41.19
-44.60
-48.58
-51.74
-52.39
-49.44
-42.44
-31.93
-19.11
-5.38
8.36
22.13
36.37
51.76
68.00
83.76
96.90
105.20
106.62
100.08
85.65
63.87
38.15
12.64
-8.10
-20.33
-23.19
-19.95
-16.88
-20.63
-35.26
-59.93
-88.97
-113.72
-125.72
-119.66
-95.21
-56.65
-11.29
32.68
68.34
91.15
99.82
95.00
80.87
61.74
41.14
21.50
4.44
-8.55
-16.56
-19.43
-18.16
-14.77
-11.74
-10.79
-12.44
-15.81
-19.24
-21.30
-21.30
-19.44
-16.57
-13.95
-12.56
-12.80
-14.40
-16.68
-18.91
-20.49
-21.07
-20.60
-19.35
-17.86
-16.74
-16.63
-17.88
-20.62
-24.43
-28.45
-31.67
-33.25
-32.89
-30.89
-27.97
-24.62
-20.94
-16.38
-9.89
-0.40
12.75
29.63
49.89
72.22
94.74
114.13
125.77
125.19
110.05
81.96
46.50
11.38
-16.35
-33.48
-40.74
-41.62
-39.98
-38.12
-36.20
-33.45
-29.70
-25.81
-23.27
-22.75
-23.47
-23.55
-21.11
-15.13
-5.82
5.57
17.71
29.37
39.59
47.36
51.86
52.70
50.47
46.53
42.08
37.39
31.13
21.34
6.83
-11.46
-30.37
-45.86
-54.95
-56.94
-53.07
-46.26
-38.94
-32.44
-26.48
-20.37
-13.76
-6.84
0.19
7.60
16.08
26.17
37.55
48.72
57.09
60.68
58.85
52.77
44.99
37.66
31.22
23.94
12.48
-5.55
-29.93
-57.35
-82.47
-100.05
-107.25
-103.47
-92.05
-76.96
-60.78
-44.51
-28.40
-13.21
-0.67
7.07
8.64
4.41
-3.33
-11.29
-16.42
-16.75
-11.55
-0.93
14.36
32.88
52.34
69.74
81.32
84.83
79.67
67.25
50.46
32.93
17.73
6.82
0.79
-0.67
1.37
4.99
7.47
5.68
-2.67
-17.84
-37.19
-55.78
-67.99
-69.92
-61.47
-46.62
-31.87
-23.25
-23.36
-30.12
-37.73
-39.48
-30.89
-11.92
13.20
38.01
56.29
64.78
64.24
57.93
49.29
40.32
31.12
21.12
10.34
0.23
-6.94
-9.39
-6.86
-1.14
4.81
8.15
7.46
3.27
-2.26
-6.33
-6.92
-3.66
2.00
7.50
10.40
9.51
5.43
0.19
-3.56
-3.85
-0.34
5.51
11.12
13.82
12.18
6.53
-1.15
-7.96
-11.18
-9.17
-2.14
7.69
16.62
20.64
16.60
3.73
-15.87
-37.95
-57.45
-70.28
-74.93
-72.64
-66.20
-58.72
-52.11
-46.53
-40.56
-31.80
-17.84
2.64
28.78
57.49
83.92
103.49
113.83
115.43
111.46
105.71
100.01
92.51
79.91
57.59
23.92
-17.83
-59.95
-92.81
-108.74
-105.06
-85.02
-56.51
-28.88
-9.35
-0.85
-1.80
-7.50
-12.57
-13.19
-8.49
-0.62
6.18
7.86
2.92
-6.61
-15.91
-19.71
-15.20
-3.50
10.90
22.93
29.85
32.40
33.52
35.89
40.07
44.28
46.21
44.73
40.72
36.23
32.78
30.25
26.94
21.26
12.85
3.24
-5.03
-10.05
-11.48
-10.66
-9.65
-10.21
-12.86
-17.07
-21.57
-24.17
-23.63
-19.60
-12.39
-2.40
9.60
22.32
33.26
39.05
36.26
22.61
-1.39
-32.08
-63.24
-88.44
-103.26
-106.94
-101.97
-92.75
-84.10
-79.31
-79.47
-83.50
-89.25
-94.66
-98.62
-100.32
-99.07
-94.63
-87.52
-79.41
-72.66
-69.53
-71.02
-75.91
-79.79
-76.14
-58.89
-24.58
26.15
89.03
157.22
222.99
275.47
304.81
307.12
286.15
250.82
210.04
170.24
134.74
104.74
80.49
62.22
49.86
42.00
35.90
28.03
16.17
0.24
-18.79
-39.54
-60.74
-81.67
-102.29
-122.34
-140.84
-155.17
-162.13
-159.54
-147.46
-128.17
-105.25
-82.62
-61.35
-44.51
-34.06
-29.45
-27.08
-21.96
-10.46
7.79
29.35
48.84
61.97
68.55
71.79
76.75
87.49
105.17
127.70
150.71
169.35
179.50
179.10
165.90
140.35
104.74
62.88
19.69
-19.60
-50.49
-70.52
-79.87
-81.45
-79.61
-78.76
-81.69
-88.43
-96.73
-103.59
-107.07
-106.96
-104.36
-100.56
-96.52
-92.62
-88.77
-84.81
-80.56
-75.74
-69.63
-61.10
-49.21
-33.97
-16.48
1.27
17.36
31.90
45.31
58.58
72.50
88.65
107.54
126.86
141.51
145.19
132.48
101.01
52.80
-5.75
-65.81
-117.80
-153.62
-168.64
-162.70
-140.10
-108.29
-75.67
-46.76
-26.18
-15.75
-13.53
-15.39
-17.85
-19.59
-20.89
-21.86
-21.50
-18.71
-12.69
-3.61
7.34
18.75
29.81
40.20
49.55
57.68
63.50
66.35
66.85
66.80
68.40
72.99
80.27
86.87
90.11
88.41
82.69
75.35
68.02
59.73
47.25
27.31
-0.51
-31.84
-59.07
-74.38
-73.66
-58.86
-36.97
-16.45
-3.13
2.23
3.26
4.71
9.16
15.65
20.59
20.79
15.60
7.56
0.86
-0.98
2.95
10.98
20.08
27.55
32.01
33.14
30.45
23.08
10.10
-8.38
-30.29
-51.88
-69.66
-81.82
-88.81
-91.98
-91.23
-83.67
-64.47
-30.32
16.75
67.69
108.95
127.85
118.20
83.20
34.05
-14.73
-51.24
-69.44
-71.41
-63.96
-53.68
-43.81
-34.09
-23.00
-10.13
2.77
12.39
15.95
13.07
6.09
-1.24
-5.38
-4.73
-0.07
6.05
10.57
11.36
8.23
2.83
-2.32
-5.07
-4.64
-1.80
1.64
3.73
3.29
0.45
-3.49
-6.88
-8.47
-8.09
-6.57
-5.31
-5.53
-7.72
-11.36
-15.19
-17.94
-18.86
-18.22
-17.10
-16.86
-18.49
-22.09
-26.78
-31.12
-33.96
-34.75
-33.95
-32.63
-32.02
-32.99
-36.09
-41.63
-49.33
-57.79
-64.08
-64.12
-54.26
-33.17
-3.26
29.77
58.99
79.16
88.66
89.57
85.91
81.28
77.35
73.92
70.16
65.83
61.81
59.46
59.58
61.79
64.73
66.75
66.70
64.59
61.62
58.88
57.24
56.76
56.63
55.49
52.07
45.79
36.99
26.35
15.85
6.84
0.03
-4.55
-7.33
-9.02
-10.19
-11.27
-12.33
-13.20
-13.25
-11.47
-6.98
-0.00
7.50
11.85
8.80
-4.55
-28.13
-58.75
-91.25
-120.34
-142.02
-153.86
-154.55
-143.48
-121.00
-89.26
-52.66
-17.09
11.86
30.94
40.23
42.49
41.30
39.34
37.76
36.55
35.72
35.79
37.63
41.65
47.19
52.67
56.47
57.61
56.31
54.09
52.71
53.66
57.55
64.15
72.51
80.96
87.11
88.15
81.72
67.09
46.11
23.04
3.05
-9.99
-15.30
-15.44
-14.77
-17.07
-23.66
-33.08
-42.40
-49.10
-52.37
-53.20
-53.33
-53.98
-55.17
-55.98
-55.35
-52.86
-49.23
-45.80
-43.94
-44.35
-46.70
-49.90
-52.58
-53.85
-53.62
-52.61
-51.90
-52.42
-54.66
-58.37
-62.77
-66.81
-69.71
-71.03
-70.82
-69.67
-67.47
-64.04
-58.95
-51.70
-41.92
-29.64
-15.39
-0.27
14.40
27.30
37.36
44.18
47.98
49.57
49.95
50.02
50.14
50.29
49.96
48.56
45.88
42.25
38.47
35.41
33.69
33.18
33.23
32.70
30.80
27.64
24.27
22.39
23.42
28.37
35.92
44.24
50.70
52.77
48.50
36.53
16.57
-10.01
-39.55
-66.38
-82.58
-83.42
-68.76
-43.40
-15.28
7.80
21.36
25.34
23.06
18.75
14.94
12.02
9.16
5.66
1.95
-0.63
-0.84
1.55
5.50
9.14
10.71
9.59
6.38
2.55
-0.30
-1.16
-0.01
2.27
4.25
4.76
3.39
0.60
-2.65
-5.29
-6.72
-6.91
-6.47
-6.27
-7.06
-9.06
-12.02
-15.37
-18.51
-21.27
-23.60
-25.77
-28.22
-31.31
-35.14
-39.53
-44.16
-48.70
-53.05
-57.26
-61.58
-66.24
-71.25
-76.16
-80.17
-82.23
-81.26
-76.50
-67.75
-55.11
-39.00
-19.99
1.31
24.33
48.30
72.12
94.08
112.02
123.68
127.29
122.31
109.64
91.66
71.45
51.97
35.20
21.77
11.20
2.30
-5.80
-13.18
-18.81
-20.72
-16.37
-3.49
18.94
49.38
82.91
111.78
127.16
122.23
94.90
49.28
-5.06
-56.09
-93.12
-109.98
-106.11
-85.82
-55.77
-22.63
8.45
34.32
53.47
65.71
71.84
73.70
73.49
72.86
72.09
69.45
62.15
47.67
25.63
-1.52
-28.66
-49.86
-60.02
-56.48
-39.75
-13.25
16.99
43.34
57.77
53.85
29.03
-13.95
-66.93
-118.50
-157.34
-176.30
-174.47
-157.04
-132.77
-110.31
-94.95
-87.69
-86.21
-85.80
-81.59
-70.16
-50.39
-23.66
6.40
34.59
56.05
67.99
71.09
68.96
66.06
64.84
64.11
59.49
46.25
22.86
-7.46
-37.06
-57.36
-62.71
-52.97
-33.15
-10.25
10.28
26.90
41.17
55.33
69.69
81.93
88.84
88.73
83.12
75.78
70.43
68.05
66.49
61.80
50.64
32.66
10.59
-10.84
-27.10
-35.39
-35.28
-28.10
-15.86
-0.47
16.95
35.41
53.73
69.80
80.91
84.38
78.77
64.72
44.60
21.78
-1.42
-24.46
-48.70
-75.76
-105.64
-135.66
-160.78
-176.01
-178.44
-168.89
-151.09
-129.64
-107.68
-85.42
-60.94
-32.30
-0.19
31.23
55.28
66.21
62.12
46.42
26.55
11.11
6.54
14.87
33.81
58.45
84.22
108.50
130.62
150.95
169.21
183.89
192.08
191.28
178.07
149.93
106.57
51.06
-9.83
-67.07
-112.01
-138.96
-146.15
-136.74
-116.63
-92.70
-71.49
-58.53
-57.76
-70.78
-95.77
-127.10
-156.53
-175.33
-177.38
-161.16
-129.73
-88.91
-44.84
-2.51
34.84
65.14
87.36
101.41
108.17
109.29
106.73
102.38
97.41
92.15
86.13
78.74
69.58
58.84
47.28
36.04
26.23
18.57
13.20
9.69
7.36
5.56
3.89
2.35
1.14
0.53
0.61
1.20
1.93
2.32
2.07
1.10
-0.40
-2.07
-3.55
-4.60
-5.22
-5.55
-5.82
-6.21
-6.73
-7.24
-7.53
-7.47
-7.07
-6.55
-6.23
-6.33
-6.89
-7.65
-8.15
-7.95
-6.88
-5.12
-3.25
-1.86
-1.53
-2.31
-3.69
-4.76
-4.67
-3.03
-0.15
2.99
5.19
5.61
4.18
1.75
-0.26
-0.63
1.28
5.15
9.89
14.16
16.73
16.62
13.03
5.69
-4.43
-14.80
-21.46
-20.47
-9.93
8.48
29.68
46.91
54.87
51.96
40.59
25.46
11.00
-0.41
-8.73
-15.09
-20.31
-24.15
-25.71
-24.45
-20.78
-16.14
-12.21
-10.34
-10.78
-12.71
-14.68
-15.36
-14.17
-11.38
-7.98
-5.14
-3.71
-3.79
-4.85
-5.99
-6.39
-5.66
-3.98
-1.91
-0.14
0.87
1.02
0.60
0.08
-0.16
0.08
0.72
1.54
2.26
2.75
3.01
3.14
3.28
3.51
3.79
4.07
4.27
4.39
4.49
4.63
4.88
5.18
5.41
5.45
5.19
4.68
4.05
3.51
3.21
3.20
3.32
3.24
2.65
1.37
-0.52
-2.66
-4.53
-5.73
-6.18
-6.26
-6.70
-8.26
-11.37
-15.82
-20.80
-25.18
-28.04
-29.21
-29.45
-30.19
-32.98
-38.67
-46.98
-56.41
-64.88
-70.62
-73.05
-72.98
-72.20
-72.42
-74.33
-77.02
-78.20
-74.90
-64.30
-44.61
-15.29
22.30
64.59
105.44
136.91
151.44
144.59
117.68
78.00
36.83
5.04
-10.94
-11.24
-1.50
10.53
18.55
20.13
16.40
10.47
5.24
2.05
0.83
0.51
0.10
-1.09
-3.19
-6.37
-10.86
-16.86
-24.17
-31.53
-36.64
-36.45
-28.64
-13.00
7.53
27.29
40.08
41.58
31.77
15.03
-1.22
-9.91
-7.02
6.59
25.57
42.65
51.17
48.31
35.74
19.09
5.41
0.12
4.93
16.97
30.63
39.63
39.97
31.04
15.57
-1.84
-16.54
-25.38
-27.57
-24.23
-17.60
-9.69
-1.77
5.63
11.99
15.86
14.73
5.33
-14.64
-45.55
-84.91
-127.88
-168.62
-201.89
-223.69
-230.81
-220.98
-193.12
-148.53
-91.75
-30.20
27.25
73.48
104.90
122.78
131.41
135.67
138.50
139.34
135.35
123.62
104.19
80.34
58.53
45.44
45.02
56.58
74.44
90.67
98.01
93.25
77.65
55.70
32.29
10.49
-8.79
-25.97
-40.90
-52.46
-58.77
-58.97
-53.62
-44.30
-32.70
-19.38
-4.50
11.87
27.93
40.78
46.88
43.78
30.96
9.52
-17.72
-47.43
-75.24
-96.60
-106.99
-103.66
-86.85
-60.15
-29.86
-2.35
17.43
27.66
28.90
23.41
14.27
4.77
-1.63
-2.57
3.07
13.51
24.86
32.03
30.83
19.85
0.77
-21.97
-43.57
-59.78
-68.65
-70.03
-65.26
-56.25
-44.73
-32.45
-20.60
-10.69
-3.46
0.65
2.06
2.01
1.81
2.70
4.72
7.06
7.85
5.43
-0.74
-9.40
-17.38
-21.20
-18.12
-8.16
5.98
19.48
27.64
27.91
20.92
10.26
0.24
-5.19
-3.88
4.67
19.83
40.63
66.26
95.49
126.47
155.94
180.06
195.29
199.81
194.47
182.36
168.02
155.22
145.84
139.24
132.83
123.44
108.43
87.26
59.42
25.60
-11.82
-48.44
-78.85
-98.73
-107.37
-108.78
-110.29
-119.31
-139.11
-166.97
-195.07
-213.47
-214.93
-197.79
-165.80
-125.30
-82.03
-39.19
1.85
40.37
74.73
102.65
122.22
132.80
135.61
133.32
128.75
123.41
118.14
111.32
100.15
82.03
55.59
21.15
-19.43
-63.44
-108.34
-151.59
-191.04
-224.78
-250.89
-267.56
-273.15
-266.57
-245.29
-210.67
-166.36
-117.54
-69.61
-27.28
6.10
28.82
41.47
45.59
42.94
35.78
26.52
17.30
10.31
7.17
8.66
14.74
24.50
36.14
48.02
58.79
67.52
73.76
77.39
78.55
77.65
75.09
71.15
66.23
60.78
55.27
50.06
45.36
41.14
37.36
33.90
30.56
27.27
24.06
21.00
18.17
15.61
13.32
11.28
9.43
7.68
6.02
4.45
3.03
1.78
0.72
-0.13
-0.79
-1.30
-1.67
-1.92
-2.06
-2.09
-2.03
-1.89
-1.66
-1.37
-1.03
-0.64
-0.20
0.29
0.94
1.68
2.49
3.38
4.34
5.34
6.39
7.49
8.60
9.75
10.88
12.04
13.20
14.40
15.63
16.91
18.32
19.86
21.55
23.27
24.92
26.22
26.91
26.48
24.53
20.81
14.99
7.07
-2.76
-13.95
-25.81
-37.35
-47.73
-56.17
-61.98
-65.03
-65.35
-63.47
-60.05
-55.94
-51.89
-48.55
-46.22
-44.88
-44.25
-43.78
-42.90
-40.98
-37.60
-32.15
-24.92
-16.32
-6.77
3.10
12.83
21.94
30.06
37.00
42.67
47.14
50.49
52.93
54.43
55.19
55.35
54.85
53.86
52.29
50.37
48.13
45.75
43.30
41.00
39.08
37.58
36.52
35.69
35.05
34.18
32.70
30.15
26.12
20.31
12.57
2.88
-8.77
-22.03
-36.71
-52.43
-68.26
-83.70
-97.89
-109.97
-118.96
-125.09
-127.24
-125.17
-118.87
-108.56
-94.55
-77.18
-56.90
-33.80
-9.81
13.78
35.45
54.03
68.90
79.98
87.89
93.53
97.58
100.38
102.16
102.50
100.85
96.75
89.39
78.33
63.63
46.16
27.60
10.50
-2.95
-11.31
-15.33
-17.03
-18.78
-22.21
-27.57
-33.98
-39.93
-44.53
-47.75
-49.86
-51.20
-51.86
-51.62
-50.24
-47.90
-45.07
-42.27
-39.58
-36.84
-32.98
-27.14
-18.88
-8.59
2.56
12.98
21.04
25.61
26.21
23.16
17.28
9.24
-0.36
-10.90
-21.68
-31.74
-40.15
-45.85
-47.81
-45.87
-39.39
-28.74
-14.88
0.54
15.54
27.83
36.05
40.05
40.89
40.39
39.89
39.69
38.82
35.45
27.62
14.38
-4.10
-25.93
-47.76
-65.72
-76.47
-78.53
-72.92
-63.00
-53.19
-47.47
-47.77
-53.35
-61.73
-69.90
-75.90
-79.42
-81.43
-83.60
-86.88
-91.14
-95.05
-96.64
-94.08
-85.93
-71.94
-52.54
-28.36
-0.47
28.76
54.99
71.90
75.09
64.51
45.78
28.72
22.78
32.36
54.50
80.95
102.20
112.74
112.80
106.75
99.63
93.99
89.30
83.45
75.16
65.27
56.29
50.56
48.98
50.36
52.30
52.27
49.00
42.87
35.65
29.60
26.37
26.29
28.42
31.01
32.41
31.78
29.32
26.21
23.79
23.05
24.20
26.67
29.52
31.83
33.20
33.77
34.17
35.09
36.99
39.86
43.35
46.82
49.59
51.46
51.81
50.50
47.35
42.35
35.58
27.22
17.58
7.11
-3.64
-14.53
-24.50
-33.13
-40.17
-45.62
-49.55
-52.17
-53.70
-54.35
-54.39
-53.86
-52.92
-51.60
-49.91
-47.85
-45.44
-42.79
-39.95
-37.10
-34.27
-31.61
-29.10
-26.78
-24.58
-22.41
-20.25
-18.14
-16.16
-14.35
-12.77
-11.40
-10.13
-8.85
-7.45
-5.92
-4.33
-2.85
-1.62
-0.74
-0.15
0.37
1.10
2.29
3.94
5.86
7.64
8.87
9.32
9.20
9.02
9.45
10.98
13.67
17.01
20.14
22.20
22.78
22.17
21.28
21.26
22.97
26.53
31.27
35.89
39.23
40.61
40.19
38.77
37.45
37.28
39.18
43.95
51.60
60.74
68.09
68.85
58.38
34.52
-0.75
-41.44
-79.64
-108.76
-126.02
-132.94
-133.75
-132.82
-132.57
-132.90
-132.85
-130.70
-126.07
-119.59
-112.07
-103.70
-94.20
-83.26
-71.54
-61.64
-57.08
-60.39
-71.29
-85.52
-95.12
-94.07
-79.73
-54.00
-22.22
9.16
36.11
56.33
68.66
72.31
66.80
53.34
35.83
20.48
13.39
17.83
32.41
52.15
71.20
85.30
92.97
95.32
94.11
90.44
84.55
76.32
66.15
55.25
45.15
37.14
31.69
28.36
26.20
24.28
22.19
20.37
19.91
21.85
26.58
33.52
41.06
47.26
50.65
50.78
48.63
46.13
45.09
46.44
49.89
53.97
56.71
56.29
51.25
40.47
23.85
2.78
-19.50
-38.24
-48.76
-48.43
-37.92
-22.17
-7.71
0.17
-0.41
-7.61
-17.43
-26.13
-32.08
-35.67
-38.36
-41.07
-43.51
-44.65
-43.69
-40.83
-37.31
-34.67
-34.11
-35.90
-39.22
-42.68
-44.98
-45.53
-44.63
-43.27
-42.57
-43.39
-45.91
-49.63
-53.63
-57.09
-59.50
-60.77
-61.08
-60.44
-58.64
-54.95
-48.49
-38.01
-22.81
-2.86
21.00
47.19
73.76
98.43
119.07
133.87
141.56
141.42
133.33
117.82
95.42
68.31
38.71
8.78
-19.65
-45.26
-67.30
-85.58
-100.41
-112.24
-121.23
-127.61
-131.36
-132.18
-129.83
-123.88
-113.75
-99.08
-79.73
-55.75
-27.73
3.28
35.60
66.94
94.72
116.18
129.00
131.73
124.44
108.40
85.94
60.07
33.97
10.73
-7.73
-20.57
-27.86
-30.19
-28.32
-22.45
-12.44
1.87
20.76
43.62
68.76
93.30
113.59
125.98
128.02
119.27
100.37
75.47
49.26
25.44
5.96
-8.72
-18.79
-24.46
-25.81
-23.41
-18.31
-12.53
-8.15
-6.55
-7.81
-10.86
-14.23
-16.70
-17.48
-16.33
-14.08
-11.73
-10.43
-10.84
-12.86
-15.67
-18.02
-18.82
-17.48
-14.49
-11.01
-8.57
-8.24
-10.14
-13.35
-16.17
-17.25
-15.78
-12.12
-7.35
-3.04
-0.38
-0.03
-2.18
-6.52
-11.76
-15.23
-13.36
-2.73
17.81
45.89
76.03
101.30
116.10
118.18
109.06
91.83
71.22
49.99
29.03
8.65
-10.28
-25.73
-35.51
-38.61
-36.12
-30.84
-26.22
-24.96
-27.65
-33.00
-38.46
-41.59
-40.83
-35.85
-27.36
-17.83
-11.09
-11.64
-23.25
-46.74
-78.95
-113.11
-140.93
-155.63
-154.58
-139.74
-115.30
-87.37
-59.97
-34.59
-11.33
9.64
27.28
39.96
46.68
47.84
45.17
41.26
38.44
37.70
38.65
40.00
40.29
38.67
35.26
30.81
26.68
23.91
22.81
22.95
23.42
23.29
22.04
19.69
16.67
13.76
11.56
10.29
9.76
9.54
9.19
8.42
7.23
5.77
4.37
3.32
2.68
2.39
2.23
2.00
1.58
0.95
0.18
-0.62
-1.31
-1.84
-2.17
-2.35
-2.43
-2.52
-2.72
-3.11
-3.68
-4.38
-5.05
-5.56
-5.86
-5.95
-6.04
-6.31
-6.88
-7.75
-8.73
-9.61
-10.25
-10.68
-11.10
-11.75
-12.76
-14.04
-15.26
-16.07
-16.28
-16.09
-16.15
-17.04
-18.96
-21.39
-23.21
-23.35
-21.78
-19.96
-20.22
-23.87
-29.75
-33.66
-29.91
-14.26
13.63
49.51
86.40
117.18
136.97
143.56
136.68
116.95
85.65
46.12
4.97
-28.20
-43.99
-37.59
-12.21
21.38
49.25
60.55
52.09
29.16
1.95
-20.01
-32.07
-35.37
-34.46
-33.60
-34.27
-34.87
-33.05
-27.90
-20.89
-15.03
-12.91
-15.35
-20.84
-26.59
-29.71
-28.79
-24.28
-18.18
-13.15
-11.20
-13.00
-17.60
-23.02
-27.05
-28.28
-26.57
-22.98
-19.36
-17.49
-18.40
-22.01
-27.16
-32.15
-35.45
-36.41
-35.27
-33.14
-31.43
-31.18
-32.86
-36.50
-42.00
-49.00
-56.41
-61.81
-61.80
-53.17
-34.70
-8.37
20.78
46.60
64.27
72.26
72.38
68.29
63.37
59.24
55.75
52.02
47.70
43.46
40.42
39.43
40.23
41.74
42.61
41.82
39.32
35.89
32.75
30.96
30.93
32.35
34.40
36.15
37.09
37.25
37.11
37.39
38.58
40.88
43.62
45.88
46.73
45.48
41.88
36.10
28.59
19.93
10.28
0.49
-9.03
-17.89
-25.71
-32.12
-36.87
-39.90
-41.34
-41.46
-40.54
-38.93
-36.81
-34.31
-31.53
-28.63
-25.81
-23.33
-21.40
-19.93
-18.75
-17.55
-16.00
-13.91
-11.38
-8.70
-6.31
-4.59
-3.68
-3.41
-3.37
-3.03
-2.01
-0.26
2.06
4.60
6.71
7.87
7.60
5.71
2.67
-0.26
-1.14
1.77
8.73
17.34
23.05
20.75
7.30
-16.78
-47.18
-77.28
-100.14
-110.48
-106.00
-87.41
-58.35
-24.54
7.65
32.90
48.42
54.93
55.87
55.56
57.28
61.87
68.49
75.77
81.78
84.68
82.90
75.50
62.86
47.39
32.27
20.09
11.43
4.46
-3.18
-12.33
-21.25
-26.73
-25.72
-17.68
-4.38
10.42
22.03
27.63
27.82
26.46
29.64
44.07
72.98
114.91
162.13
201.10
220.16
215.04
190.00
155.17
122.12
98.11
85.29
81.13
77.62
70.32
60.72
52.21
44.81
40.68
36.01
26.29
8.56
-23.31
-68.59
-119.20
-165.79
-203.34
-231.14
-251.76
-267.69
-280.49
-298.41
-323.55
-350.46
-372.71
-388.58
-400.35
-412.34
-427.72
-397.43
-312.84
-206.31
-113.88
-47.86
-4.61
23.36
41.83
55.08
66.18
69.21
62.93
52.40
43.80
39.42
38.30
38.19
37.29
34.78
25.33
9.81
-3.70
-5.81
7.72
34.63
67.95
99.27
122.10
130.08
123.77
109.62
94.88
83.06
74.01
66.09
58.20
50.66
42.49
33.92
25.84
18.75
12.10
5.10
-2.19
-8.40
-11.36
-10.10
-3.97
7.17
22.65
40.80
59.80
78.23
95.23
110.64
123.89
134.30
140.98
142.92
139.36
130.06
115.59
95.52
73.44
51.75
32.23
15.91
3.07
-6.69
-14.20
-20.24
-25.19
-28.67
-30.43
-30.14
-27.73
-23.77
-19.38
-15.89
-14.32
-14.91
-16.47
-17.56
-16.71
-13.22
-7.76
-2.09
1.72
2.25
-0.65
-5.31
-9.33
-10.34
-6.85
1.21
12.85
26.55
40.04
50.57
55.41
52.03
39.32
18.44
-6.90
-31.03
-48.12
-54.77
-51.67
-43.09
-34.48
-28.65
-23.82
-15.06
1.81
26.44
52.46
70.64
73.99
61.26
38.34
15.06
-0.44
-5.73
-4.16
-2.11
-3.92
-9.61
-16.95
-22.42
-23.50
-19.75
-12.33
-2.76
7.45
18.28
30.76
44.08
56.65
66.54
71.90
71.19
63.64
48.63
27.49
2.96
-23.87
-52.28
-82.06
-113.40
-148.16
-181.57
-211.63
-235.90
-239.11
-213.44
-161.61
-94.97
-26.02
36.45
89.03
130.77
163.14
188.13
205.64
214.89
215.37
208.57
196.26
180.37
160.95
137.70
109.53
78.26
46.28
16.42
-7.83
-24.81
-33.65
-35.44
-31.25
-22.16
-9.99
2.21
6.95
7.54
7.74
11.14
18.75
30.90
46.93
65.22
81.13
90.71
92.88
86.78
78.27
68.12
55.44
38.81
17.20
-13.34
-54.17
-101.74
-149.82
-191.75
-224.18
-246.27
-259.40
-266.06
-274.11
-289.62
-313.86
-344.71
-379.20
-417.10
-459.70
-508.70
-533.05
-515.05
-457.86
-382.20
-309.23
-248.07
-196.77
-147.73
-94.15
-34.05
24.04
69.26
94.67
100.49
92.66
78.80
65.43
55.67
48.55
39.00
23.04
0.54
-24.90
-48.95
-69.34
-86.13
-100.81
-114.78
-130.29
-147.83
-165.49
-179.58
-186.96
-186.31
-178.06
-162.95
-144.45
-125.56
-107.93
-91.32
-74.14
-54.66
-32.00
-6.43
21.02
48.99
76.20
101.50
124.16
143.63
159.23
170.02
174.96
173.15
164.13
148.47
127.18
101.88
74.21
45.82
18.20
-7.46
-30.31
-49.85
-65.60
-77.35
-85.16
-89.31
-90.21
-88.27
-83.91
-77.58
-69.74
-60.73
-50.77
-40.08
-28.89
-17.41
-5.81
5.72
16.96
27.77
38.02
47.62
56.51
64.62
71.94
78.47
84.21
89.16
93.34
96.77
99.41
101.22
102.08
101.86
100.39
97.45
92.86
86.46
78.20
68.13
56.38
43.25
29.11
14.46
-0.24
-14.48
-27.86
-39.97
-50.54
-59.33
-66.20
-71.07
-73.90
-74.79
-73.89
-71.48
-67.96
-63.83
-59.68
-56.08
-53.61
-52.63
-53.37
-55.78
-59.58
-64.33
-69.45
-74.36
-78.52
-81.49
-82.98
-82.84
-81.09
-77.86
-73.41
-68.05
-62.05
-55.60
-48.81
-41.66
-33.99
-25.61
-16.37
-6.19
4.86
16.58
28.74
41.07
53.42
65.76
78.12
90.56
103.06
115.47
127.56
139.08
149.96
160.27
170.25
180.11
190.67
202.00
213.07
221.88
225.79
223.70
215.68
202.74
186.65
170.13
155.42
143.61
134.75
127.84
122.92
120.58
121.57
126.80
139.19
160.92
192.52
232.41
275.87
318.94
357.06
385.41
400.83
408.21
413.46
420.14
427.98
430.77
428.01
420.97
411.26
401.47
405.06
430.55
476.66
532.75
578.51
609.39
627.74
637.41
643.55
667.33
722.01
806.39
905.70
990.15
1054.20
1101.62
1137.23
1167.10
1217.69
1305.36
1427.95
1565.55
1678.39
1757.85
1807.43
1832.33
1687.84
1304.38
714.39
40.03
-491.25
-870.13
-1129.77
-1301.11
-1427.64
-1523.68
-1573.54
-1567.13
-1510.51
-1426.33
-1355.71
-1306.81
-1274.06
-1249.53
-1223.74
-1175.50
-1093.61
-982.09
-859.04
-756.75
-681.47
-628.20
-589.62
-556.16
-511.93
-447.17
-362.60
-270.96
-197.83
-154.97
-146.26
-169.99
-216.82
-271.67
-319.64
-344.19
-335.74
-300.23
-247.15
-186.92
-131.16
-79.63
-32.54
8.08
38.83
55.52
54.62
37.03
6.18
-33.76
-78.64
-130.42
-191.37
-261.64
-338.64
-417.52
-492.09
-556.73
-606.83
-616.98
-573.16
-477.31
-348.01
-210.33
-83.85
22.49
106.95
172.54
223.82
261.50
286.27
299.92
305.72
307.49
308.77
309.02
307.18
302.03
290.39
270.54
242.72
209.16
172.25
134.82
94.17
51.81
8.59
-35.42
-79.63
-123.22
-165.27
-206.19
-228.89
-224.79
-193.79
-145.29
-91.53
-41.06
2.72
40.33
63.67
77.43
82.77
80.56
70.55
53.82
31.84
4.08
-23.98
-52.35
-80.50
-111.07
-145.25
-184.29
-226.07
-266.58
-302.12
-330.54
-352.71
-368.93
-382.15
-394.81
-409.96
-425.71
-435.30
-429.88
-402.22
-350.75
-278.77
-195.87
-98.33
3.91
95.65
165.06
209.27
232.61
240.68
238.36
228.68
214.62
197.23
179.18
163.69
152.67
145.54
139.50
131.97
121.61
108.94
94.01
78.40
64.24
52.89
43.98
35.98
27.43
17.97
8.08
-1.32
-8.24
-9.85
-3.26
13.23
38.74
69.32
97.26
113.91
112.64
92.37
58.07
18.34
-18.34
-46.15
-62.42
-66.12
-56.56
-33.76
0.38
40.90
80.18
110.35
126.44
128.23
119.85
107.28
95.31
86.12
79.58
74.50
70.07
66.11
62.69
59.96
57.82
55.95
53.90
51.75
49.73
48.16
48.14
48.64
48.83
47.87
44.84
39.06
30.40
19.25
6.58
-6.60
-19.34
-30.64
-39.66
-45.78
-48.61
-47.97
-44.03
-36.98
-27.58
-17.07
-6.55
2.86
10.22
14.83
16.42
13.88
8.36
0.99
-7.39
-15.70
-23.03
-28.80
-32.86
-35.40
-37.13
-38.52
-39.92
-41.24
-41.51
-39.90
-35.81
-29.19
-20.52
-11.14
-2.35
4.91
10.58
15.48
20.73
27.09
34.46
41.93
47.77
50.65
50.17
47.20
43.60
41.21
41.41
44.88
52.00
62.28
74.22
84.66
88.82
81.75
60.64
27.00
-14.02
-51.93
-77.84
-88.43
-86.71
-79.23
-71.81
-66.69
-62.57
-56.81
-48.02
-37.79
-29.19
-24.51
-23.84
-25.17
-25.83
-23.85
-18.97
-12.25
-5.78
-1.44
0.19
-0.25
-1.24
-1.18
0.96
5.22
10.94
16.80
21.75
25.34
27.80
29.76
31.83
34.26
36.64
38.38
38.77
37.21
33.68
28.62
22.75
16.83
11.50
7.11
3.81
1.64
0.47
0.29
1.16
3.14
6.21
10.29
15.20
20.71
26.66
32.57
38.12
43.13
47.52
51.24
54.36
57.05
59.62
62.50
65.62
69.11
73.15
77.92
83.52
89.96
97.29
105.52
114.73
124.26
133.68
142.59
150.56
157.15
161.79
163.61
161.18
157.34
152.76
147.80
142.65
137.45
132.30
127.31
122.60
118.34
114.85
111.81
109.08
106.64
104.48
102.59
100.96
99.52
98.18
96.91
95.23
92.79
89.44
85.11
79.84
73.79
67.19
60.27
53.31
46.24
39.06
31.76
24.36
16.80
9.02
0.90
-7.84
-17.62
-29.01
-42.66
-59.17
-78.92
-101.91
-127.57
-154.78
-181.75
-206.28
-225.91
-238.36
-241.86
-235.55
-219.68
-195.57
-165.36
-131.69
-97.20
-64.15
-34.22
-8.38
13.04
30.06
42.89
51.87
57.26
59.41
58.80
56.11
52.11
47.49
42.47
36.86
30.04
21.20
9.69
-4.63
-21.31
-39.54
-58.31
-77.02
-95.53
-114.09
-133.34
-154.03
-177.08
-203.27
-232.79
-264.51
-295.52
-321.45
-337.59
-340.64
-330.12
-308.62
-280.80
-251.53
-224.27
-200.38
-179.77
-161.86
-146.34
-133.30
-122.86
-114.78
-108.50
-103.55
-99.85
-97.84
-98.06
-100.94
-106.50
-114.37
-123.85
-133.97
-143.51
-151.10
-155.78
-157.38
-156.46
-153.94
-150.21
-144.60
-135.71
-122.18
-103.68
-81.27
-57.09
-33.34
-11.55
7.79
24.90
39.97
52.85
63.26
71.14
77.07
82.16
87.57
94.12
101.89
110.19
117.88
123.76
126.94
127.33
125.74
123.51
122.09
122.32
123.76
124.76
122.89
115.88
102.55
83.43
60.72
37.57
17.12
1.43
-8.89
-14.52
-16.81
-17.07
-16.24
-14.97
-13.93
-13.63
-13.92
-13.47
-9.92
-1.25
12.75
29.31
43.25
49.14
43.80
27.86
5.12
-19.67
-42.86
-62.60
-78.34
-89.62
-96.06
-98.11
-98.12
-99.84
-106.25
-116.86
-126.67
-128.09
-114.70
-85.05
-43.89
-0.11
37.01
61.13
69.94
64.53
47.94
24.57
0.02
-19.66
-29.40
-27.33
-15.98
-1.53
9.06
11.33
5.48
-4.21
-11.67
-11.89
-2.93
14.03
35.79
58.87
80.42
98.46
111.48
118.11
117.26
108.38
91.81
68.82
41.29
11.09
-20.29
-51.86
-82.67
-111.24
-135.35
-152.43
-160.49
-158.73
-147.97
-130.29
-108.39
-84.97
-62.40
-42.33
-25.59
-12.22
-1.39
8.24
18.14
29.59
43.28
59.28
77.15
96.17
115.11
132.27
145.18
151.10
147.60
133.65
110.07
79.73
46.83
15.84
-9.66
-27.90
-39.09
-44.97
-47.92
-50.00
-52.43
-55.52
-59.21
-63.14
-66.88
-69.76
-70.63
-68.16
-61.27
-49.67
-34.19
-16.49
1.66
18.95
35.02
50.20
64.80
78.52
90.14
97.96
100.36
96.81
88.03
76.12
63.53
52.25
43.11
35.64
28.62
20.78
11.53
1.10
-9.57
-19.16
-26.38
-30.25
-30.33
-26.85
-20.63
-12.86
-4.83
2.54
8.92
14.59
20.34
27.12
35.97
47.51
61.81
78.15
95.09
110.99
124.76
136.65
148.20
161.68
178.49
198.09
217.68
233.06
240.57
238.69
228.97
215.27
202.50
194.89
194.89
202.77
216.75
233.35
248.28
257.41
257.90
249.09
232.77
212.37
191.84
174.03
159.94
148.53
137.51
124.23
106.74
84.10
56.35
24.28
-10.98
-47.77
-83.96
-116.93
-144.08
-163.92
-176.83
-184.89
-190.21
-193.21
-191.52
-181.09
-158.97
-126.04
-87.99
-53.69
-31.42
-25.31
-33.98
-51.93
-72.72
-91.84
-107.84
-121.33
-133.14
-142.99
-149.36
-150.60
-145.98
-136.40
-124.07
-111.68
-101.30
-93.91
-89.37
-87.02
-86.26
-86.76
-88.41
-91.22
-95.08
-100.06
-106.88
-117.02
-132.41
-154.53
-183.04
-215.25
-246.40
-271.13
-285.43
-288.13
-281.18
-268.71
-255.22
-244.04
-236.83
-233.84
-235.13
-241.02
-251.82
-266.85
-283.74
-298.57
-307.25
-307.24
-298.87
-285.34
-271.30
-260.81
-255.63
-254.76
-255.32
-253.87
-247.62
-234.67
-214.10
-185.77
-150.60
-111.09
-71.54
-37.32
-13.45
-2.69
-3.90
-12.35
-21.10
-23.21
-14.13
7.25
38.73
76.14
114.99
152.00
185.10
213.23
235.78
252.30
262.72
267.54
268.17
266.51
264.64
263.64
263.22
262.29
259.68
254.93
248.49
241.52
235.32
231.74
231.56
234.33
238.92
244.48
250.74
257.88
266.22
275.92
288.52
304.14
321.05
336.63
348.96
357.50
362.80
366.37
369.98
377.93
392.07
410.06
426.25
434.18
428.68
407.32
371.70
326.82
283.30
249.46
227.66
214.78
205.67
195.08
178.82
154.57
100.85
14.90
-86.36
-180.10
-254.20
-307.61
-343.90
-366.25
-376.02
-375.06
-362.68
-341.07
-316.00
-294.49
-280.48
-274.53
-278.65
-286.17
-291.79
-289.88
-278.55
-260.19
-239.48
-219.89
-203.43
-189.97
-177.97
-167.07
-156.45
-147.65
-144.85
-153.87
-174.46
-207.61
-252.92
-307.51
-366.68
-422.19
-464.47
-485.21
-479.92
-449.10
-399.10
-339.21
-278.03
-221.78
-172.54
-129.66
-91.86
-58.69
-30.11
-6.76
11.75
27.12
41.25
55.38
69.58
82.86
93.53
100.56
103.56
103.63
102.75
102.84
105.02
109.31
114.78
120.14
124.51
127.67
130.42
134.06
139.86
148.29
159.04
171.07
183.10
194.28
204.27
213.37
222.07
230.48
238.04
243.61
245.77
243.35
236.05
224.46
210.06
194.87
181.22
171.26
166.61
167.70
173.24
180.29
184.81
182.96
172.55
153.84
129.22
102.10
75.50
51.03
28.86
8.44
-10.61
-28.04
-43.11
-55.16
-64.17
-70.84
-76.43
-82.06
-88.46
-95.57
-102.86
-109.57
-115.18
-119.58
-122.97
-125.59
-127.28
-127.26
-124.37
-117.49
-106.17
-90.96
-73.27
-54.97
-37.79
-22.85
-10.59
-0.99
6.16
11.11
14.06
15.41
15.71
15.66
15.83
16.50
17.58
18.78
19.72
20.23
20.38
20.46
20.68
21.15
21.71
22.05
21.85
20.81
18.82
15.91
12.24
8.00
3.31
-1.79
-7.33
-13.26
-19.43
-25.58
-31.48
-37.14
-43.01
-49.89
-58.57
-69.46
-81.98
-94.48
-104.41
-109.03
-106.16
-95.03
-76.65
-53.58
-29.17
-6.35
13.25
29.66
44.19
58.50
73.73
89.99
106.49
122.11
135.97
147.80
157.64
165.62
171.59
175.14
175.92
173.84
169.17
162.43
154.15
144.67
134.32
123.43
112.54
102.34
93.36
85.73
79.18
73.19
67.32
61.47
55.80
50.40
45.05
39.17
32.11
23.61
14.13
4.64
-3.74
-10.24
-14.79
-17.72
-19.49
-20.21
-19.48
-16.63
-11.18
-3.27
6.33
16.27
25.17
31.98
36.25
38.02
37.76
36.08
33.41
30.05
26.14
21.86
17.44
13.20
9.35
5.98
2.93
-0.06
-3.18
-6.38
-9.33
-11.51
-12.55
-12.29
-10.94
-8.98
-6.93
-5.16
-3.88
-3.05
-2.58
-2.35
-2.23
-2.17
-2.10
-2.02
-1.73
-1.12
0.14
2.49
6.52
12.90
22.30
35.19
51.70
71.79
95.27
122.13
152.52
186.70
224.75
266.32
310.22
354.21
395.02
428.75
451.68
461.31
457.15
440.85
415.66
385.32
352.87
320.14
287.68
255.39
223.13
190.86
158.76
126.81
94.78
62.41
29.76
-2.76
-34.33
-64.15
-91.84
-117.47
-141.64
-164.99
-187.76
-209.45
-228.93
-244.71
-255.60
-261.08
-261.54
-257.82
-250.89
-241.44
-229.74
-215.99
-200.51
-184.08
-167.79
-152.82
-140.09
-130.14
-123.06
-118.71
-116.78
-116.92
-118.77
-121.91
-125.75
-129.52
-132.35
-133.37
-132.00
-128.18
-122.49
-115.96
-109.74
-104.77
-101.41
-99.54
-98.74
-98.42
-98.09
-97.25
-95.49
-92.52
-88.34
-83.39
-78.46
-74.43
-71.95
-71.23
-71.99
-73.85
-76.49
-79.81
-83.84
-88.53
-93.71
-99.26
-105.16
-111.56
-118.67
-126.34
-134.07
-141.00
-146.35
-149.89
-152.05
-153.78
-155.94
-158.88
-162.12
-164.55
-164.75
-161.47
-153.93
-142.11
-126.85
-109.73
-93.01
-79.03
-69.52
-64.98
-64.20
-64.48
-62.49
-55.30
-41.53
-21.83
1.45
25.06
45.87
61.86
72.23
77.33
77.98
74.94
68.73
59.74
48.55
36.12
23.72
12.63
3.87
-1.94
-4.66
-4.26
-0.45
7.50
20.71
40.22
66.57
99.29
136.89
176.94
216.39
252.11
281.15
300.99
309.93
307.40
294.14
272.36
245.11
215.70
186.81
160.15
136.25
114.91
95.68
78.14
61.99
47.04
33.06
19.74
6.72
-6.25
-19.29
-32.30
-45.04
-57.17
-68.18
-77.59
-85.12
-90.88
-95.49
-99.89
-105.06
-111.64
-119.51
-127.84
-135.45
-141.20
-144.44
-145.08
-143.42
-139.96
-134.98
-128.46
-120.00
-109.20
-95.89
-80.59
-64.69
-50.30
-39.80
-35.15
-37.44
-46.80
-62.70
-84.16
-109.79
-137.59
-164.81
-188.81
-207.97
-222.40
-233.65
-243.52
-252.21
-257.49
-255.52
-242.58
-217.19
-180.81
-137.00
-89.91
-43.07
0.74
38.90
68.37
86.43
91.90
86.32
74.02
60.62
50.80
46.79
48.03
52.11
56.57
60.12
62.92
66.01
70.25
75.62
81.10
85.20
86.56
84.76
80.33
74.43
68.33
62.82
58.13
54.11
50.60
47.92
46.74
47.95
51.95
58.48
66.48
74.44
80.85
84.63
85.36
83.27
79.10
73.86
68.84
65.37
64.59
67.28
73.62
83.12
94.81
107.11
117.81
124.17
123.26
112.83
92.61
64.97
34.71
7.56
-11.88
-21.84
-23.63
-20.43
-15.54
-10.95
-6.95
-3.01
1.19
5.15
7.98
9.13
8.95
8.56
8.99
10.46
12.07
12.40
10.35
6.05
0.90
-2.97
-3.57
0.03
7.51
17.50
28.18
37.97
45.92
51.88
56.11
59.07
61.14
62.48
62.96
62.35
60.21
55.93
48.91
38.69
25.29
9.45
-7.48
-23.80
-38.04
-49.55
-58.71
-66.57
-74.24
-82.12
-89.66
-95.64
-98.74
-98.30
-94.54
-88.60
-81.66
-74.57
-67.36
-59.54
-50.58
-40.40
-29.50
-18.86
-9.47
-1.91
3.58
7.19
9.17
9.86
9.68
9.26
9.26
10.17
12.16
14.65
16.77
17.57
16.54
13.89
10.40
7.26
5.47
5.83
8.57
13.37
19.51
25.77
30.88
33.82
34.31
32.84
30.69
29.30
29.80
32.61
37.16
42.14
46.08
47.76
46.66
43.21
38.39
33.37
28.93
25.03
21.04
16.22
10.35
4.03
-1.33
-4.31
-4.27
-1.77
1.46
3.34
2.45
-1.31
-6.69
-11.59
-14.26
-14.10
-11.91
-9.60
-9.17
-11.86
-17.56
-24.98
-32.10
-37.07
-38.67
-36.45
-30.86
-22.83
-13.56
-4.40
3.37
8.87
11.83
12.86
13.23
14.22
16.16
17.41
13.95
0.28
-28.01
-71.38
-124.67
-177.71
-218.57
-237.76
-231.59
-203.08
-160.04
-111.41
-64.06
-21.48
15.65
47.31
72.73
90.17
97.87
95.46
84.67
68.69
51.00
33.93
18.28
3.58
-10.57
-23.50
-33.31
-37.70
-35.14
-25.95
-12.32
2.27
14.24
20.97
21.52
16.67
8.47
-0.33
-7.40
-11.20
-11.48
-9.05
-5.14
-0.99
2.85
6.33
9.93
14.32
20.33
28.66
39.81
53.66
69.28
84.77
97.69
105.67
107.19
102.29
92.65
81.09
70.54
63.07
59.16
57.99
58.12
58.59
59.62
62.30
67.56
75.18
83.16
88.31
87.36
78.40
61.50
38.60
12.62
-13.58
-37.93
-59.26
-76.82
-90.09
-98.54
-102.08
-101.39
-98.29
-95.40
-95.44
-100.44
-111.15
-127.16
-147.32
-170.44
-195.51
-221.55
-247.03
-269.54
-286.31
-294.99
-294.54
-285.75
-270.72
-252.11
-232.14
-212.35
-193.52
-176.20
-160.87
-147.87
-137.14
-128.04
-119.56
-110.64
-100.48
-88.44
-73.94
-56.38
-35.52
-11.98
12.34
34.57
51.62
61.35
63.26
58.67
50.04
40.20
31.78
26.76
26.22
30.11
37.26
45.42
52.11
55.41
54.72
50.91
45.71
40.80
37.11
34.77
33.40
32.77
32.89
33.93
35.72
37.61
38.60
37.90
35.48
32.19
29.41
28.40
29.61
32.58
36.19
39.23
41.00
41.46
40.99
40.14
39.22
38.14
36.57
34.05
30.20
24.77
17.77
9.54
1.01
-6.33
-10.70
-10.74
-6.23
1.45
9.80
15.98
18.00
15.45
9.45
1.99
-4.94
-9.99
-12.58
-12.60
-10.08
-5.19
1.62
9.31
16.53
22.22
26.22
29.63
34.43
42.45
54.43
69.50
85.42
99.58
109.98
115.95
118.01
117.33
115.09
112.09
108.75
105.26
101.89
98.76
95.88
92.86
89.07
83.84
76.82
68.21
58.66
49.08
40.12
32.02
24.65
17.63
10.72
3.91
-2.50
-8.35
-13.68
-18.98
-24.75
-31.22
-38.06
-44.36
-48.87
-50.25
-47.65
-40.84
-30.42
-17.62
-4.04
8.80
19.76
28.31
34.61
39.45
43.96
49.34
56.43
65.53
76.39
88.43
100.94
113.24
124.83
135.39
144.81
153.21
160.92
168.51
176.44
184.73
192.94
200.27
205.97
209.51
210.44
208.20
202.05
191.35
176.13
157.48
137.16
116.69
96.44
75.39
51.89
25.14
-3.93
-32.53
-57.31
-76.14
-89.10
-98.48
-107.72
-120.01
-137.03
-158.45
-181.47
-201.26
-211.98
-208.65
-189.37
-156.97
-118.64
-83.71
-60.01
-50.81
-53.97
-63.76
-73.79
-79.80
-80.67
-77.33
-70.98
-61.79
-48.97
-31.96
-11.56
9.89
29.14
43.65
52.50
56.67
58.41
59.92
62.36
65.37
67.64
67.69
64.89
59.67
53.37
47.39
42.62
39.00
35.66
31.25
24.29
13.71
-0.69
-17.93
-35.81
-51.35
-61.60
-64.65
-60.09
-48.90
-32.82
