1680169988.00
64.000000
-0.00
-0.00
-0.00
-0.00
-0.00
-0.00
-0.00
-0.00
-0.00
-0.00
0.00
0.01
0.01
-0.00
-0.03
-0.05
-0.05
0.00
0.13
0.36
0.66
1.01
1.37
1.72
2.06
2.40
2.79
3.24
3.80
4.42
5.06
5.66
6.20
6.68
7.15
7.68
8.31
9.14
10.09
11.04
11.88
12.56
13.14
13.76
14.65
15.96
17.91
20.32
22.90
25.38
27.58
29.57
31.68
34.32
37.81
42.54
48.15
54.10
59.83
64.97
69.58
74.14
79.34
85.71
93.76
103.00
112.62
121.73
129.77
136.75
143.30
150.75
157.77
166.64
177.95
191.79
206.97
220.57
228.25
225.36
208.53
176.87
132.76
80.05
23.07
-34.94
-92.44
-149.16
-205.23
-260.37
-313.74
-363.88
-409.83
-450.90
-486.49
-515.71
-537.19
-549.16
-549.87
-538.24
-514.04
-478.46
-433.62
-382.13
-326.64
-269.40
-212.12
-156.08
-102.30
-51.65
-5.11
36.45
72.37
102.38
126.61
145.58
159.99
170.55
177.88
182.39
184.35
184.01
181.63
177.57
172.23
166.03
159.30
152.30
145.18
137.99
130.78
123.60
116.51
109.57
102.86
96.43
90.30
84.50
79.03
73.91
69.14
64.73
60.69
57.03
53.74
50.81
48.26
46.08
44.27
42.82
41.72
40.92
40.37
39.96
39.58
39.05
38.19
36.83
34.80
31.94
28.21
23.58
18.09
11.87
5.11
-1.93
-9.00
-15.80
-22.05
-27.53
-32.05
-35.47
-37.72
-38.79
-38.72
-37.54
-35.32
-32.14
-28.13
-23.42
-18.18
-12.64
-7.06
-1.71
3.19
7.42
10.85
13.38
15.00
15.77
15.79
15.13
13.99
12.67
11.53
10.92
11.21
12.65
15.44
19.54
24.63
30.43
36.66
43.04
49.28
55.03
59.94
63.65
65.59
65.04
61.69
55.60
47.15
36.92
25.55
13.63
1.71
-10.25
-22.65
-35.62
-48.97
-62.34
-75.40
-88.01
-100.33
-112.95
-124.51
-134.73
-143.15
-149.02
-151.32
-148.99
-141.17
-127.35
-103.42
-67.93
-22.20
30.39
85.09
137.09
182.56
219.22
246.38
264.14
273.36
274.83
269.53
258.77
243.99
226.60
207.65
187.64
168.19
149.96
133.08
117.79
104.44
93.19
84.15
77.37
72.79
70.37
69.48
69.30
69.25
68.99
68.27
67.11
65.75
64.61
64.18
64.56
65.61
67.05
68.52
69.24
68.55
66.22
62.59
58.45
54.45
51.02
48.16
45.50
41.08
33.18
21.12
5.68
-11.32
-27.89
-42.72
-55.52
-66.94
-80.94
-100.87
-127.95
-160.37
-194.34
-225.83
-252.22
-272.97
-289.46
-308.54
-336.12
-374.80
-422.19
-472.92
-520.94
-562.17
-595.56
-622.69
-652.72
-694.62
-754.40
-832.59
-925.07
-1023.96
-1119.18
-1200.06
-1220.62
-1152.13
-990.50
-761.08
-506.22
-266.07
-63.90
95.34
218.29
314.68
386.44
433.20
451.71
449.15
436.92
427.04
428.52
445.65
478.41
520.14
564.75
609.05
650.36
684.75
706.26
708.09
685.85
640.40
576.14
501.57
425.88
356.65
297.49
248.49
207.77
174.93
146.77
118.31
84.32
40.55
-13.34
-73.19
-130.55
-175.01
-197.92
-196.17
-173.32
-138.11
-100.76
-68.19
-42.94
-23.99
-7.92
8.69
27.23
47.37
67.72
87.06
105.85
124.97
144.69
164.13
181.03
192.19
194.94
187.67
165.05
125.75
72.13
9.63
-55.14
-116.63
-171.58
-218.60
-257.42
-288.13
-310.86
-325.56
-332.40
-332.38
-327.48
-320.22
-312.87
-306.93
-302.71
-298.62
-292.78
-283.80
-271.44
-256.67
-241.46
-227.88
-217.43
-210.37
-204.95
-198.31
-187.34
-169.80
-144.94
-113.51
-77.01
-36.93
6.09
52.68
104.20
162.06
227.26
300.27
380.73
466.59
553.04
631.77
692.25
724.71
724.13
692.92
640.67
580.47
523.71
476.05
436.53
400.22
362.18
320.08
274.35
226.27
175.89
121.75
62.49
-1.07
-64.95
-123.02
-169.08
-199.25
-212.96
-212.39
-201.24
-183.51
-162.79
-142.30
-124.68
-111.59
-103.01
-97.06
-90.37
-79.13
-60.41
-33.21
0.67
36.73
68.61
89.64
94.81
82.39
54.73
17.73
-21.12
-54.60
-77.21
-85.73
-79.20
-58.64
-26.77
12.60
54.60
93.85
124.75
143.18
147.19
137.22
115.88
87.50
58.18
33.89
18.82
13.14
13.89
15.83
13.14
0.76
-24.58
-62.40
-109.20
-158.81
-204.58
-238.60
-253.69
-245.60
-215.49
-170.00
-117.19
-64.67
-17.41
21.02
50.30
72.17
88.65
100.35
98.78
78.78
39.65
-4.09
-43.96
-75.08
-97.86
-112.28
-119.27
-122.02
-121.37
-116.58
-105.32
-87.26
-61.76
-26.82
20.04
80.14
150.51
227.82
306.78
380.92
441.46
473.76
469.37
428.79
374.92
322.47
279.53
243.18
211.00
179.99
148.79
118.68
91.10
65.72
37.49
1.78
-44.55
-101.39
-166.35
-233.48
-293.06
-334.55
-350.06
-339.27
-307.54
-265.01
-223.18
-192.68
-180.43
-188.18
-213.79
-252.72
-299.93
-348.09
-388.08
-410.04
-406.51
-374.77
-317.56
-242.94
-162.24
-87.91
-29.74
7.12
23.23
23.92
17.36
12.01
13.45
22.55
35.15
44.04
41.62
22.39
-15.34
-68.63
-130.12
-189.40
-235.33
-259.07
-256.77
-230.73
-188.37
-139.48
-92.77
-53.63
-23.65
-1.87
13.45
23.51
28.79
29.58
26.59
21.34
15.70
11.36
9.39
9.93
12.32
15.64
19.23
22.95
27.47
34.04
44.15
59.16
80.47
109.74
148.69
198.20
256.66
318.98
376.73
420.50
443.05
442.24
421.78
389.40
353.53
320.08
291.09
265.48
241.14
216.75
192.56
169.79
149.50
131.60
114.49
95.27
70.38
36.92
-5.53
-53.84
-101.39
-139.87
-162.21
-165.13
-150.00
-121.79
-86.75
-50.66
-18.74
4.12
13.35
6.44
-14.75
-43.02
-67.71
-79.05
-72.77
-52.30
-27.00
-7.27
0.16
-5.68
-21.28
-42.06
-65.28
-91.41
-122.94
-161.78
-206.71
-252.39
-290.38
-312.34
-313.30
-293.75
-259.89
-221.50
-187.96
-165.15
-153.76
-150.20
-149.49
-147.32
-140.55
-126.79
-103.76
-69.78
-25.09
26.87
79.51
124.54
152.34
156.92
138.94
105.96
69.04
37.07
13.31
-4.67
-21.80
-40.67
-59.18
-71.26
-70.11
-52.03
-19.05
21.72
62.47
95.14
115.88
125.26
126.75
123.91
118.35
109.32
95.69
77.25
55.48
34.33
17.92
8.76
7.01
11.22
16.55
21.18
25.73
32.35
44.90
66.22
96.80
134.42
174.79
212.96
245.30
269.62
277.77
265.30
231.30
178.98
114.44
44.45
-25.25
-90.34
-148.22
-197.69
-237.27
-266.39
-285.53
-296.35
-301.28
-302.80
-302.89
-302.80
-303.15
-303.25
-302.43
-300.41
-297.49
-294.51
-292.15
-290.76
-290.33
-290.57
-290.46
-289.02
-285.50
-279.40
-271.91
-263.80
-255.47
-246.95
-237.91
-227.59
-215.23
-200.25
-182.40
-161.68
-137.98
-111.29
-81.59
-49.09
-14.22
22.10
58.61
93.73
125.97
154.43
178.81
199.39
216.95
232.27
245.93
258.26
269.18
278.56
286.54
293.69
301.09
310.35
323.29
341.36
364.84
392.09
419.60
442.79
457.31
460.46
451.82
433.22
408.13
380.75
355.10
334.24
319.55
310.21
303.63
296.08
284.14
266.00
241.94
213.77
183.66
153.04
122.20
91.34
60.81
31.51
4.79
-18.13
-36.63
-50.73
-60.76
-66.96
-68.46
-64.42
-54.56
-39.79
-22.33
-4.96
10.11
22.31
32.88
45.51
63.58
88.78
120.27
154.99
188.91
218.61
242.09
258.80
270.79
280.14
288.51
296.55
303.73
308.60
309.31
304.17
282.38
238.21
171.15
87.20
-2.74
-86.75
-156.09
-207.11
-240.79
-260.66
-268.45
-267.31
-259.66
-247.68
-233.82
-220.78
-211.16
-207.03
-209.87
-219.62
-235.10
-255.38
-279.32
-304.95
-328.69
-345.88
-352.31
-346.47
-330.03
-308.46
-288.77
-276.73
-274.68
-281.13
-292.05
-303.02
-311.02
-314.51
-313.26
-307.37
-296.76
-281.47
-261.99
-239.61
-216.08
-193.07
-171.22
-150.08
-128.58
-105.89
-82.32
-59.27
-38.66
-21.77
-8.48
2.79
14.27
27.42
42.07
56.40
68.02
75.43
79.11
81.54
86.23
96.35
113.17
135.35
159.10
179.30
191.31
192.89
185.49
174.02
165.01
163.85
172.33
187.67
203.38
211.67
206.22
183.93
145.40
94.41
36.92
-20.12
-69.90
-107.28
-129.91
-138.68
-137.09
-129.68
-120.29
-111.14
-102.61
-94.08
-84.72
-73.90
-61.30
-46.95
-31.37
-15.71
-1.74
8.87
15.32
18.37
20.10
23.16
29.58
40.07
53.82
68.92
82.93
93.63
99.41
99.59
94.58
85.67
74.72
63.58
53.64
45.50
38.95
33.27
27.62
21.39
14.40
6.98
-0.30
-6.74
-11.85
-15.47
-17.89
-19.65
-21.48
-24.00
-27.49
-31.91
-36.85
-41.74
-45.97
-49.20
-51.34
-52.54
-53.05
-53.01
-52.37
-50.90
-48.37
-44.57
-39.49
-33.28
-26.20
-18.51
-10.54
-2.61
4.99
11.99
18.16
23.35
27.43
30.34
32.04
32.56
31.94
30.35
28.00
25.09
21.83
18.40
14.99
11.76
8.86
6.42
4.49
3.07
2.12
1.58
1.46
1.76
2.51
3.67
5.17
6.87
8.57
10.19
11.69
13.14
14.58
16.00
17.29
18.29
18.79
18.62
17.71
16.08
13.83
11.05
7.90
4.51
0.97
-2.61
-6.09
-9.31
-12.14
-14.46
-16.18
-17.28
-17.83
-17.92
-17.65
-17.12
-16.32
-15.24
-13.79
-11.93
-9.66
-7.18
-4.79
-2.82
-1.52
-0.87
-0.62
-0.25
0.68
2.41
4.75
7.18
9.08
9.97
9.76
8.70
7.34
6.21
5.63
5.53
5.39
4.27
1.13
-4.73
-13.24
-23.17
-32.25
-37.80
-37.64
-30.91
-18.48
-2.82
12.72
24.55
29.70
26.54
15.28
-1.73
-20.55
-36.60
-46.12
-47.39
-41.21
-30.36
-18.51
-8.83
-3.23
-2.41
-6.15
-13.72
-24.07
-35.93
-47.88
-58.66
-67.62
-74.81
-80.95
-86.80
-92.68
-98.25
-102.70
-105.30
-105.90
-105.32
-105.06
-107.07
-113.19
-124.60
-141.17
-160.99
-180.37
-194.51
-199.05
-191.73
-173.46
-148.14
-121.03
-96.54
-76.57
-60.18
-44.87
-28.38
-9.87
9.85
29.37
47.77
65.34
83.42
103.78
127.88
156.38
188.73
223.07
256.23
284.25
303.36
311.01
306.45
290.60
265.30
232.60
194.57
153.44
111.98
73.39
40.50
14.88
-3.64
-16.73
-26.39
-33.85
-39.15
-41.47
-39.97
-34.62
-26.41
-16.91
-7.77
-0.01
5.97
10.22
12.87
13.96
13.56
11.98
10.05
8.97
9.86
13.26
18.79
25.09
30.45
33.32
32.92
29.44
23.75
17.10
10.58
4.91
0.38
-2.97
-5.17
-6.32
-6.56
-6.32
-6.19
-6.78
-8.45
-10.99
-13.86
-16.35
-17.98
-18.68
-18.89
-19.29
-20.51
-22.78
-25.81
-28.93
-31.38
-32.68
-32.77
-31.94
-30.47
-28.37
-25.45
-21.57
-17.09
-12.92
-10.21
-9.60
-10.74
-12.38
-12.96
-11.50
-7.96
-3.09
2.31
7.97
14.22
21.56
29.97
38.59
46.13
51.60
55.18
58.27
62.89
70.53
81.35
93.73
104.89
111.98
113.25
108.68
99.81
88.95
78.13
68.63
60.64
53.63
46.77
39.32
30.92
21.39
10.67
-1.26
-14.18
-27.37
-39.59
-49.34
-55.54
-57.89
-57.35
-55.59
-54.34
-54.01
-53.42
-50.38
-43.06
-31.13
-15.61
1.21
17.08
30.31
40.96
50.16
59.44
69.56
80.43
92.01
104.10
116.71
129.36
142.36
156.33
172.07
189.53
207.47
224.08
236.18
240.06
231.71
209.98
177.19
139.04
102.05
66.25
31.52
-3.62
-34.48
-60.53
-80.63
-94.19
-98.60
-92.92
-79.49
-63.07
-50.12
-45.83
-53.62
-72.56
-99.67
-129.03
-154.72
-172.41
-179.96
-179.63
-175.28
-171.48
-170.99
-175.15
-182.55
-191.49
-199.13
-200.76
-191.77
-166.39
-124.16
-70.35
-14.75
33.44
69.28
93.43
109.51
118.94
120.19
107.15
74.81
23.11
-41.62
-109.10
-169.03
-211.24
-230.76
-228.71
-211.05
-184.48
-153.75
-120.93
-86.82
-52.70
-20.99
4.79
22.11
30.30
31.24
28.56
25.97
25.89
28.81
33.65
38.08
40.15
38.99
35.28
30.69
27.01
25.32
25.71
27.41
29.12
29.74
28.79
26.64
24.10
22.05
21.01
21.00
21.68
22.50
23.02
23.05
22.76
22.45
22.41
22.80
23.60
24.65
25.79
26.90
27.92
28.94
30.06
31.45
33.33
35.82
38.89
42.50
46.49
50.54
54.20
56.94
58.19
57.50
54.43
48.69
40.26
29.39
16.53
2.64
-11.51
-25.08
-37.26
-47.54
-55.68
-61.70
-65.82
-68.47
-70.02
-70.87
-71.56
-71.83
-71.57
-70.71
-69.62
-68.00
-65.83
-62.98
-59.37
-54.84
-49.26
-42.75
-35.70
-28.64
-22.10
-16.53
-11.96
-8.08
-4.28
0.07
5.26
11.00
16.56
21.03
23.61
24.02
22.61
20.31
18.03
16.43
15.48
14.52
12.58
8.71
2.22
-7.17
-18.97
-31.69
-42.82
-49.27
-48.69
-40.78
-27.78
-14.19
-5.06
-3.67
-10.02
-20.94
-31.74
-38.54
-39.93
-36.83
-31.64
-27.02
-24.96
-26.54
-31.84
-39.96
-48.82
-54.98
-53.79
-41.23
-15.72
20.83
63.31
105.25
141.02
167.12
180.50
182.06
175.53
165.81
157.09
151.73
149.94
150.27
149.36
143.55
130.36
108.74
79.23
43.95
6.64
-27.82
-54.60
-72.06
-81.90
-88.43
-96.94
-111.46
-133.20
-160.00
-187.23
-203.69
-200.79
-175.87
-134.19
-85.11
-36.63
6.89
44.01
74.82
99.95
118.96
132.43
141.64
148.27
153.74
158.35
161.48
162.38
161.30
156.75
149.35
140.40
130.98
121.56
111.36
98.45
80.43
54.91
20.66
-17.70
-52.35
-74.39
-75.94
-53.82
-11.64
40.48
92.36
129.48
144.59
136.32
108.96
71.60
33.78
1.94
-21.80
-41.40
-61.90
-81.12
-97.52
-112.10
-125.89
-140.72
-158.51
-180.33
-209.14
-245.23
-279.32
-304.43
-318.69
-321.78
-315.22
-301.82
-261.70
-187.95
-120.40
-72.79
-35.53
-5.80
17.71
34.68
43.70
43.13
28.07
-4.44
-48.86
-101.76
-162.73
-229.01
-294.84
-351.97
-391.62
-410.20
-408.03
-384.92
-346.59
-302.61
-260.21
-222.96
-191.34
-164.41
-143.20
-128.67
-118.21
-109.89
-103.04
-96.57
-89.84
-83.09
-77.20
-74.02
-74.35
-75.97
-76.43
-73.86
-66.81
-54.81
-38.32
-18.32
3.90
27.73
53.78
82.53
113.71
146.28
178.25
207.24
231.09
248.67
260.58
269.34
278.88
293.10
313.75
338.60
361.05
371.52
360.48
321.56
253.98
162.98
58.73
-46.03
-138.77
-209.53
-252.75
-267.95
-259.31
-234.10
-200.58
-165.81
-134.42
-108.49
-88.33
-73.45
-63.05
-56.02
-50.87
-45.98
-40.09
-32.92
-25.18
-18.15
-12.98
-10.04
-8.67
-7.53
-5.13
-0.54
6.30
14.57
22.94
30.09
35.21
38.18
39.41
39.58
39.13
38.15
36.27
32.98
27.84
21.28
14.08
7.17
1.28
-3.22
-6.25
-8.02
-8.94
-9.28
-8.69
-6.68
-2.84
2.96
10.51
19.34
28.84
38.39
47.76
58.16
70.94
87.13
106.96
130.00
155.27
181.49
207.13
231.16
255.85
283.61
316.06
353.46
394.95
439.05
483.47
524.48
558.50
587.37
612.31
633.08
647.90
655.24
655.07
648.15
633.74
611.44
588.31
569.01
554.11
540.44
524.90
508.27
495.31
490.87
500.68
536.69
601.36
685.32
770.33
838.35
879.71
894.77
889.09
804.33
613.52
329.28
3.96
-301.68
-548.90
-727.28
-834.10
-898.39
-942.14
-968.16
-976.39
-968.06
-947.66
-919.07
-882.90
-839.21
-790.59
-737.64
-674.00
-599.07
-519.07
-446.34
-394.46
-373.14
-386.67
-432.87
-499.74
-565.55
-612.36
-630.04
-618.12
-583.40
-528.32
-462.14
-398.96
-354.29
-324.59
-302.42
-281.24
-258.99
-235.81
-211.97
-188.30
-164.56
-138.74
-107.21
-70.27
-30.74
7.57
42.16
72.66
99.27
123.38
146.70
171.74
197.65
221.82
241.65
256.19
266.50
273.90
280.57
288.12
299.41
314.17
330.01
343.77
353.55
360.04
365.68
375.38
393.23
422.92
461.25
498.61
522.21
521.79
494.30
444.44
384.02
306.14
212.30
109.17
7.02
-85.49
-164.41
-225.03
-272.88
-311.21
-340.85
-357.81
-358.47
-340.44
-304.84
-257.57
-208.88
-170.48
-149.48
-146.72
-154.16
-161.09
-159.05
-146.14
-125.66
-105.30
-92.60
-89.00
-90.52
-90.32
-84.93
-75.78
-67.66
-64.21
-65.96
-68.94
-66.42
-52.75
-24.96
15.28
62.48
109.02
147.60
170.47
173.78
158.28
128.45
90.66
50.78
12.24
-24.59
-61.53
-100.82
-142.74
-184.96
-223.38
-253.82
-273.74
-283.28
-285.05
-282.82
-279.83
-276.80
-271.79
-261.49
-243.09
-215.89
-181.85
-144.58
-107.42
-72.03
-37.57
-1.96
36.49
77.68
119.54
158.49
190.94
214.99
231.06
241.55
249.33
256.23
261.98
264.65
261.24
249.36
228.73
201.65
172.14
144.22
120.47
101.73
87.84
77.41
68.52
59.44
49.26
38.51
29.71
27.18
35.65
58.05
91.52
126.95
152.15
156.87
137.09
96.52
44.49
-12.45
-64.75
-104.64
-129.27
-140.47
-141.67
-135.42
-123.20
-106.82
-89.00
-72.20
-58.65
-49.46
-44.00
-40.16
-35.86
-29.97
-22.88
-15.83
-9.60
-4.73
-1.48
0.51
1.97
2.88
2.23
-1.77
-10.91
-25.58
-44.33
-63.59
-77.87
-80.90
-67.85
-37.44
6.46
55.29
98.59
127.93
140.50
140.20
135.27
133.67
139.28
150.43
161.85
167.84
165.55
155.84
141.91
126.76
111.26
94.45
74.85
51.98
26.56
-0.38
-28.64
-58.37
-88.44
-114.81
-130.45
-127.78
-102.44
-56.40
1.48
57.79
99.29
117.19
109.54
80.53
37.68
-11.46
-61.55
-109.96
-156.20
-200.72
-244.12
-286.44
-326.54
-361.86
-388.31
-401.14
-396.23
-371.80
-329.43
-274.43
-214.83
-159.50
-116.12
-89.33
-79.61
-83.24
-93.07
-100.06
-95.38
-72.62
-29.88
29.20
95.96
158.95
207.42
234.63
239.79
227.33
204.58
178.71
154.74
135.15
120.51
110.40
103.78
98.97
93.63
85.52
73.51
58.41
42.90
30.46
23.81
24.01
30.15
40.04
51.25
61.91
71.18
79.18
86.62
94.38
102.97
112.18
121.12
128.53
133.28
134.80
133.47
130.35
126.99
124.79
124.51
125.99
128.32
130.32
131.05
129.96
126.67
120.39
109.79
93.22
69.37
37.93
-0.36
-44.08
-91.51
-140.56
-188.28
-230.42
-261.86
-278.29
-278.35
-265.03
-245.30
-227.73
-219.23
-222.45
-235.05
-251.25
-264.44
-269.45
-263.54
-246.05
-217.43
-178.84
-132.40
-81.66
-31.58
12.47
46.38
68.73
80.87
85.80
86.34
83.89
78.32
68.94
55.86
40.45
24.79
10.72
-0.99
-10.60
-18.75
-25.90
-32.10
-37.26
-41.69
-46.65
-53.86
-64.68
-79.05
-94.93
-108.81
-116.95
-116.56
-107.00
-90.79
-72.95
-59.68
-56.17
-64.52
-83.20
-107.46
-130.75
-146.79
-152.21
-146.83
-133.37
-115.43
-94.93
-72.50
-47.64
-19.28
13.56
50.47
89.69
127.72
159.69
181.72
190.04
182.80
161.56
136.43
119.89
122.28
144.58
177.81
212.09
240.28
260.72
275.55
287.35
296.34
300.00
293.87
274.28
243.30
204.32
161.67
118.48
75.08
27.87
-25.22
-80.31
-147.81
-225.10
-309.69
-397.76
-484.03
-561.44
-622.10
-658.68
-667.38
-649.81
-609.75
-555.35
-494.66
-433.66
-375.14
-319.68
-266.85
-216.83
-170.90
-128.33
-88.71
-50.10
-10.90
29.19
68.81
105.76
137.48
161.86
179.07
189.63
196.52
202.24
208.00
213.91
219.71
225.55
231.97
240.36
251.97
271.07
300.60
340.34
386.56
433.22
474.10
504.69
523.49
531.55
534.96
537.80
539.38
535.00
519.53
491.11
452.47
409.57
343.64
248.78
131.38
6.75
-109.91
-209.82
-290.47
-352.90
-399.68
-432.03
-451.19
-458.46
-456.32
-448.09
-436.51
-422.85
-406.98
-388.31
-368.10
-344.94
-318.16
-288.79
-259.05
-231.01
-205.76
-183.55
-164.41
-148.62
-134.64
-121.23
-108.06
-95.53
-83.98
-73.29
-62.96
-52.55
-41.90
-29.98
-16.05
0.07
17.81
36.49
55.36
74.24
93.45
113.73
136.01
160.22
184.52
205.44
218.89
221.72
213.09
194.96
171.64
148.58
131.00
122.70
125.72
140.35
165.19
197.06
230.90
260.20
278.49
281.21
267.48
240.57
206.74
172.96
144.31
122.60
106.54
93.54
81.29
69.03
57.18
46.52
37.21
28.62
19.75
10.08
-0.02
-9.34
-16.51
-20.63
-21.84
-21.21
-20.29
-20.31
-21.57
-23.32
-24.21
-23.08
-19.68
-14.84
-10.12
-7.07
-6.50
-8.21
-11.31
-14.71
-17.65
-19.89
-21.49
-22.57
-23.29
-23.82
-24.56
-26.03
-28.61
-32.26
-36.51
-40.61
-43.97
-46.45
-48.42
-50.51
-53.34
-57.01
-61.13
-65.01
-68.04
-70.12
-71.75
-73.96
-77.87
-84.08
-92.36
-101.68
-110.49
-117.39
-121.64
-123.35
-123.34
-122.86
-123.20
-125.31
-129.30
-134.03
-136.90
-134.16
-121.73
-96.65
-58.54
-10.37
41.87
90.80
129.73
154.69
165.15
163.67
154.33
141.21
127.18
113.64
100.93
89.05
78.10
68.32
59.97
52.92
46.73
40.92
35.27
30.10
26.13
24.07
24.24
26.12
28.66
30.62
31.16
30.14
28.04
25.47
22.74
19.62
15.56
10.26
4.08
-2.04
-6.87
-9.50
-9.71
-8.07
-5.47
-2.80
-0.57
1.08
2.21
2.81
2.81
2.27
1.60
1.59
3.09
6.68
12.23
18.91
25.41
30.40
33.04
33.13
31.18
27.95
24.18
20.38
16.77
13.40
10.39
7.95
6.30
5.50
5.23
4.75
3.22
-0.12
-5.32
-11.73
-18.19
-23.48
-26.88
-28.36
-28.50
-28.02
-27.45
-26.81
-25.82
-24.16
-21.68
-18.49
-14.78
-10.62
-6.02
-0.98
4.24
9.13
13.02
15.40
16.34
16.37
16.30
16.68
17.51
18.38
18.70
17.96
16.04
12.99
9.04
4.51
-0.13
-4.17
-6.71
-6.84
-4.12
1.05
7.38
13.23
17.09
18.10
16.38
12.64
8.21
4.50
2.49
2.59
4.87
8.82
13.65
18.51
22.54
25.58
27.90
29.72
31.07
32.45
34.14
36.45
39.58
42.78
45.82
48.56
50.64
51.92
53.56
56.72
62.34
70.75
80.18
89.56
97.87
103.84
106.52
106.25
103.15
97.30
88.90
77.01
63.52
52.28
47.71
44.03
36.64
21.51
-3.24
-26.12
-46.45
-64.74
-79.73
-92.75
-101.42
-101.89
-92.09
-72.52
-46.07
-18.98
3.88
19.14
24.88
21.41
11.30
-2.39
-16.88
-30.29
-43.04
-54.83
-64.95
-72.98
-78.33
-80.53
-80.09
-78.23
-76.37
-76.32
-78.09
-80.37
-81.82
-81.29
-78.44
-74.26
-70.55
-69.15
-71.51
-77.17
-84.14
-90.34
-93.93
-93.85
-89.92
-82.53
-72.28
-60.36
-47.98
-36.03
-27.25
-24.47
-28.23
-35.85
-43.41
-48.61
-52.30
-57.74
-66.07
-75.71
-82.43
-80.91
-67.42
-41.62
-5.69
32.56
63.71
81.32
84.13
75.89
62.43
48.46
35.92
24.45
12.75
0.73
-10.17
-18.24
-22.51
-23.28
-22.21
-21.63
-23.41
-28.59
-36.51
-45.25
-52.76
-57.68
-59.63
-59.26
-57.77
-56.06
-54.97
-54.33
-53.24
-50.63
-45.85
-38.92
-30.65
-22.39
-15.62
-11.72
-11.13
-13.41
-17.47
-21.98
-25.83
-28.60
-30.70
-32.95
-36.37
-41.17
-46.67
-51.32
-53.11
-50.10
-40.78
-24.17
0.81
32.54
69.20
108.14
145.81
178.34
202.47
216.40
220.28
216.41
207.63
196.29
183.53
169.06
152.00
132.27
111.61
93.28
81.34
77.61
80.67
86.94
92.65
96.30
100.01
108.44
121.29
136.97
150.67
156.06
149.15
130.41
104.35
77.04
53.24
34.69
21.00
12.14
5.61
0.09
-4.53
-8.24
-11.96
-18.23
-30.78
-52.63
-85.10
-127.07
-173.34
-215.72
-246.25
-260.27
-257.82
-242.98
-221.05
-196.45
-171.81
-147.71
-124.18
-101.81
-81.82
-65.42
-53.22
-44.72
-38.57
-33.37
-27.87
-21.49
-14.60
-8.10
-2.89
0.59
2.57
3.81
5.07
7.00
9.72
12.90
15.92
18.25
19.68
20.36
20.68
21.09
21.87
23.10
24.64
26.28
27.90
29.53
31.29
33.34
35.75
38.36
40.78
42.49
42.77
41.23
37.64
31.91
24.32
15.45
5.99
-3.25
-11.42
-17.79
-21.80
-23.22
-22.32
-19.49
-15.34
-10.69
-6.35
-2.85
-0.61
0.37
0.31
-0.79
-2.58
-5.00
-8.32
-12.98
-19.21
-27.16
-36.55
-46.64
-56.92
-66.31
-74.16
-80.22
-84.51
-86.88
-87.28
-85.30
-77.39
-64.62
-48.78
-32.54
-18.71
-10.86
-9.59
-14.68
-24.89
-38.36
-53.51
-68.69
-83.66
-99.11
-116.47
-137.53
-164.46
-198.83
-240.86
-289.22
-335.82
-371.90
-389.21
-382.89
-353.18
-305.73
-249.17
-191.99
-140.25
-96.30
-60.52
-32.41
-11.84
0.94
5.88
4.21
-1.62
-8.80
-14.92
-19.31
-22.51
-25.89
-30.59
-37.07
-44.81
-52.68
-59.48
-64.34
-67.26
-68.66
-68.96
-68.14
-65.65
-60.48
-51.64
-38.63
-21.79
-2.55
16.97
34.41
47.65
55.21
56.42
51.40
41.08
26.99
11.09
-4.44
-17.35
-25.52
-27.19
-21.20
-7.02
15.19
44.71
80.46
121.09
165.25
211.69
259.57
308.47
358.08
407.57
454.95
496.77
528.54
546.10
546.98
531.53
502.94
466.12
426.03
386.40
349.18
314.86
283.25
253.97
226.63
200.70
175.47
150.29
124.99
100.09
76.66
55.78
37.84
22.29
7.89
-6.65
-21.71
-36.38
-48.71
-56.47
-58.10
-53.52
-44.13
-32.33
-20.67
-11.12
-4.83
-2.38
-4.22
-10.80
-22.29
-37.84
-55.11
-70.44
-79.86
-80.75
-73.02
-59.18
-43.26
-28.99
-18.22
-10.50
-3.87
3.65
12.67
22.06
29.45
32.26
28.55
17.62
0.23
-21.29
-43.00
-59.74
-66.27
-59.21
-38.79
-9.73
19.91
41.49
49.14
42.06
24.50
3.66
-13.62
-23.43
-25.70
-23.20
-19.67
-18.15
-20.16
-25.88
-34.78
-45.95
-58.18
-69.78
-78.72
-83.08
-81.81
-75.22
-65.09
-54.21
-45.59
-41.70
-43.54
-50.44
-60.05
-69.40
-76.08
-79.04
-78.74
-76.68
-74.55
-73.32
-72.93
-72.36
-70.45
-66.66
-61.36
-55.02
-48.22
-41.42
-35.04
-29.80
-26.32
-25.22
-26.96
-31.32
-36.17
-39.15
-38.57
-33.98
-26.53
-16.74
-4.81
8.89
23.85
41.26
61.11
81.83
100.77
114.09
121.36
123.87
123.11
120.59
120.84
127.21
141.13
161.85
185.11
209.57
234.10
256.63
275.01
291.67
308.40
325.03
339.03
344.05
338.98
324.79
302.79
246.53
144.62
4.16
-150.54
-273.26
-357.53
-407.49
-429.38
-433.25
-425.33
-406.49
-378.08
-342.92
-304.99
-271.04
-241.90
-216.29
-192.30
-168.56
-141.84
-111.03
-77.44
-43.30
-12.92
14.15
40.33
69.13
102.81
142.90
187.37
230.64
266.24
286.90
290.04
277.18
254.16
227.65
203.21
182.53
162.99
140.82
111.53
73.27
18.47
-51.06
-124.98
-188.42
-226.40
-239.46
-232.95
-212.48
-182.27
-144.96
-101.39
-53.70
-6.54
33.34
58.43
64.36
50.02
17.54
-28.13
-79.25
-128.47
-170.40
-202.24
-223.58
-234.28
-234.87
-226.53
-210.74
-188.43
-160.80
-129.49
-96.51
-63.94
-32.92
-4.20
21.42
43.33
61.77
77.43
91.18
103.75
115.53
127.30
139.96
154.14
169.91
186.12
200.23
208.66
208.07
196.68
175.20
146.41
113.81
80.14
46.26
11.23
-26.61
-67.88
-110.97
-152.03
-186.15
-209.36
-220.33
-220.72
-214.15
-204.10
-192.49
-179.26
-163.43
-144.56
-123.48
-101.91
-81.29
-61.82
-42.44
-21.83
0.41
23.01
43.47
59.02
67.67
68.79
63.05
51.94
37.16
20.33
2.84
-13.99
-28.90
-40.65
-48.26
-51.22
-49.86
-45.23
-38.89
-32.36
-26.49
-21.34
-16.49
-11.43
-6.08
-0.79
3.81
7.27
9.55
11.03
12.33
13.94
16.10
18.69
21.32
23.37
24.28
23.66
21.50
18.04
13.63
8.61
3.12
-2.65
-8.38
-13.47
-17.08
-18.56
-17.77
-15.24
-12.02
-9.43
-8.66
-10.59
-15.72
-23.98
-34.68
-46.27
-56.48
-62.82
-63.42
-57.95
-48.07
-37.02
-28.32
-24.89
-27.83
-36.01
-46.60
-56.16
-61.95
-62.70
-58.52
-49.71
-37.01
-20.99
-2.11
19.06
41.44
63.54
84.00
102.02
118.46
133.54
146.55
156.43
162.94
167.81
174.47
186.49
205.10
228.72
250.91
263.02
258.00
233.34
191.59
138.20
79.00
13.24
-55.40
-120.77
-175.49
-213.65
-232.68
-233.20
-218.07
-191.14
-157.67
-119.42
-79.33
-41.31
-8.75
16.79
36.12
51.42
65.85
79.11
91.33
99.30
97.27
79.23
41.96
-12.93
-78.95
-144.51
-195.33
-217.09
-201.74
-149.45
-67.79
31.40
135.43
229.03
296.83
329.28
327.95
302.22
263.90
222.55
183.61
148.05
111.75
71.46
22.13
-37.15
-103.56
-171.35
-233.69
-284.94
-314.72
-319.89
-303.20
-270.95
-229.33
-183.86
-139.24
-99.33
-66.88
-42.95
-28.05
-20.43
-17.00
-13.98
-9.10
-2.11
5.76
12.91
18.32
20.93
21.04
19.97
19.60
21.17
24.86
29.98
35.55
40.88
45.22
48.45
51.07
53.90
57.47
61.70
66.08
69.78
72.38
73.41
72.59
70.09
66.39
62.03
57.41
52.86
48.58
44.85
41.91
39.65
38.23
37.84
38.64
40.79
44.34
49.32
55.75
63.63
72.32
81.36
90.36
98.97
106.94
114.15
120.25
125.24
129.49
132.84
135.41
137.29
138.44
138.67
137.60
134.07
126.35
118.09
110.59
104.72
100.89
99.14
99.16
100.55
102.01
102.58
102.01
99.81
95.97
90.45
83.24
74.35
64.14
50.92
33.89
13.97
-7.16
-27.50
-45.84
-61.77
-75.55
-87.14
-101.30
-121.12
-146.31
-174.15
-201.60
-227.20
-250.97
-274.15
-297.03
-327.20
-369.03
-420.68
-475.15
-524.39
-562.55
-586.52
-596.09
-590.85
-581.79
-577.79
-581.12
-588.18
-594.31
-597.64
-599.22
-602.86
-555.04
-434.26
-257.40
-67.97
95.98
219.46
305.68
365.31
396.56
412.13
410.52
388.16
347.09
295.44
242.43
193.24
158.41
139.01
134.48
133.46
124.09
101.25
67.05
27.09
-13.97
-53.71
-94.29
-137.10
-172.13
-193.19
-198.63
-193.31
-184.84
-178.28
-172.96
-165.41
-148.91
-121.19
-86.40
-51.27
-22.80
-5.78
-2.89
-8.93
-18.83
-27.46
-32.84
-37.13
-42.42
-49.21
-55.83
-59.48
-57.60
-50.02
-37.32
-20.11
-3.84
8.61
16.51
21.06
24.28
28.08
32.86
38.35
44.17
49.34
54.01
58.88
64.95
73.05
83.64
96.38
110.89
127.16
145.18
165.45
187.98
211.86
235.10
254.78
267.42
270.16
261.74
243.30
218.70
193.31
172.32
159.12
154.42
156.18
161.11
166.20
169.83
172.31
175.11
180.02
188.16
199.35
211.88
222.78
228.42
225.59
212.71
190.35
161.01
128.12
94.76
62.97
33.74
7.65
-14.44
-31.13
-40.84
-42.61
-36.60
-24.29
-8.09
9.21
25.02
37.39
45.45
49.21
49.42
47.14
43.25
38.31
32.52
26.03
19.03
12.00
5.44
-0.23
-5.07
-9.53
-14.39
-20.42
-28.06
-37.16
-46.86
-55.76
-62.24
-65.01
-63.58
-58.56
-51.52
-44.45
-39.08
-36.21
-35.47
-35.59
-35.19
-33.53
-30.79
-27.90
-25.87
-25.11
-25.20
-25.25
-24.43
-22.45
-19.57
-16.21
-12.47
-7.93
-1.95
5.80
14.97
24.43
32.71
38.46
40.88
39.84
35.72
29.32
21.75
14.19
7.73
3.14
0.62
-0.14
0.16
0.76
1.03
0.67
-0.42
-2.08
-4.06
-6.09
-7.90
-9.27
-10.07
-10.30
-10.04
-9.52
-8.92
-8.37
-7.85
-7.09
-5.76
-3.62
-0.87
1.78
3.17
2.29
-1.27
-6.99
-13.52
-19.30
-23.24
-25.26
-26.16
-27.16
-29.12
-32.06
-35.19
-37.26
-37.23
-34.74
-30.29
-24.92
-19.84
-15.96
-13.64
-12.78
-12.98
-13.83
-15.04
-16.32
-17.27
-17.34
-15.89
-12.63
-7.95
-2.90
1.13
2.97
2.25
-0.55
-4.42
-8.32
-11.47
-13.56
-14.50
-14.32
-13.15
-11.27
-9.19
-7.54
-6.80
-6.99
-7.76
-8.53
-8.90
-8.84
-8.72
-9.00
-10.03
-11.75
-13.75
-15.48
-16.39
-16.21
-14.88
-12.50
-9.22
-5.25
-0.70
4.34
9.74
15.30
20.50
24.75
27.46
28.29
27.32
24.97
21.88
18.52
15.16
11.94
9.07
6.96
6.04
6.56
8.22
10.28
11.70
11.74
10.20
7.58
4.86
3.03
2.79
4.38
7.59
11.90
16.63
21.04
24.36
25.92
25.34
22.77
18.78
14.25
10.00
6.48
3.72
1.37
-1.08
-4.34
-9.19
-16.48
-26.80
-39.97
-54.64
-68.38
-78.52
-83.05
-81.57
-75.36
-66.90
-58.63
-52.10
-47.64
-44.73
-42.74
-41.37
-40.64
-40.64
-41.20
-41.75
-41.59
-40.24
-37.78
-34.90
-32.62
-31.83
-33.11
-36.55
-41.79
-48.05
-54.16
-58.79
-60.77
-59.49
-54.76
-47.41
-38.99
-31.15
-24.96
-20.48
-16.85
-12.62
-6.03
5.38
23.08
46.92
74.95
104.16
131.44
154.52
172.47
185.97
198.02
211.02
225.72
240.72
253.65
262.59
266.67
266.17
262.22
257.77
254.02
249.88
241.44
224.04
194.79
153.97
105.10
42.64
-30.12
-103.45
-164.76
-206.84
-230.02
-239.16
-239.88
-236.70
-232.47
-226.18
-215.47
-196.21
-165.37
-122.68
-70.72
-15.00
37.07
78.49
106.48
113.90
103.45
81.03
52.30
21.07
-10.47
-40.48
-66.61
-85.27
-94.24
-93.10
-85.39
-76.62
-71.72
-73.21
-80.59
-90.92
-100.10
-104.24
-100.06
-86.76
-65.40
-38.43
-9.70
15.66
31.64
33.98
22.75
3.23
-17.08
-31.46
-36.68
-33.76
-26.62
-19.37
-14.05
-10.17
-5.88
-0.29
5.88
10.85
13.16
12.66
10.70
9.35
10.59
15.06
21.73
28.53
33.14
34.04
30.79
24.38
16.36
8.41
1.64
-3.55
-7.30
-9.98
-11.77
-12.78
-12.65
-11.21
-8.60
-5.46
-2.73
-1.35
-2.06
-5.03
-10.06
-16.15
-22.24
-27.37
-30.83
-32.31
-31.55
-28.62
-22.29
-13.48
-2.77
9.13
21.77
34.84
48.05
61.49
74.90
88.02
100.18
110.99
119.14
123.36
122.72
116.68
105.65
90.15
71.38
50.72
30.95
12.83
-2.98
-15.84
-27.13
-35.44
-39.94
-40.25
-36.38
-28.79
-20.61
-14.65
-12.96
-16.30
-23.86
-34.05
-44.61
-53.12
-57.58
-59.94
-62.57
-67.89
-77.65
-92.50
-112.79
-138.90
-172.70
-199.32
-213.09
-213.21
-203.47
-189.57
-176.40
-167.05
-162.32
-160.66
-157.78
-150.16
-133.27
-104.27
-63.94
-17.44
27.21
62.51
84.64
94.77
95.49
90.65
83.08
73.88
63.14
51.18
39.32
29.52
23.46
20.22
17.80
14.00
7.43
-1.75
-11.90
-20.50
-25.18
-25.08
-20.37
-12.58
-3.78
4.27
10.66
15.35
19.05
22.48
25.80
28.44
29.17
26.82
20.88
11.79
0.80
-9.94
-18.59
-24.32
-27.27
-28.77
-30.33
-32.91
-36.58
-40.62
-43.02
-42.25
-38.24
-32.30
-27.06
-24.85
-26.53
-31.14
-36.18
-36.80
-28.55
-11.33
13.16
41.43
70.12
97.38
123.18
148.68
177.66
213.45
257.75
310.24
368.03
426.60
480.06
521.68
531.57
497.17
418.84
312.19
201.10
105.73
35.89
-8.88
-34.64
-48.20
-52.08
-46.90
-34.06
-16.32
-0.31
7.88
5.20
-7.95
-28.83
-52.01
-73.09
-90.45
-106.02
-124.58
-151.72
-192.18
-244.93
-305.29
-363.25
-406.45
-424.06
-410.72
-368.84
-307.50
-239.19
-175.57
-124.23
-86.50
-59.70
-40.06
-24.97
-13.06
-3.04
6.76
17.88
29.91
40.18
43.56
34.60
10.25
-26.63
-66.37
-95.83
-105.26
-93.41
-66.15
-32.47
-0.16
26.35
45.61
57.86
63.88
64.61
61.30
56.47
52.37
50.51
51.63
55.29
59.87
62.91
62.17
57.20
51.19
50.02
58.56
79.38
110.59
145.63
175.30
191.24
186.07
162.51
127.81
89.98
54.94
25.28
1.03
-18.64
-34.15
-45.17
-50.72
-51.26
-48.55
-44.78
-42.03
-41.32
-42.49
-44.46
-45.88
-45.31
-42.62
-38.74
-35.06
-32.83
-32.62
-34.21
-36.68
-38.88
-39.74
-39.05
-37.38
-35.73
-35.09
-36.00
-38.35
-41.27
-43.49
-43.74
-41.33
-36.48
-30.12
-23.74
-18.69
-15.81
-15.00
-15.21
-15.11
-13.64
-10.58
-6.55
-2.85
-0.61
-0.38
-1.44
-2.26
-1.02
3.89
13.59
28.64
48.90
72.84
96.44
114.48
121.38
113.61
91.80
61.11
29.39
4.01
-11.10
-16.39
-15.43
-12.35
-9.73
-7.87
-5.89
-3.15
-0.10
1.88
1.61
-1.04
-4.87
-8.23
-9.54
-8.34
-5.29
-1.83
0.53
0.91
-0.55
-2.93
-4.95
-5.57
-4.48
-2.11
0.61
2.71
3.66
3.50
2.76
2.17
2.32
3.43
5.26
7.33
9.13
10.36
11.02
11.38
11.81
12.69
14.27
16.62
19.67
23.23
27.13
31.18
35.11
38.64
41.41
43.06
43.29
41.73
38.17
32.58
25.18
16.31
6.56
-3.32
-12.55
-20.50
-26.75
-31.24
-34.22
-36.08
-37.28
-38.09
-38.55
-38.53
-37.87
-36.53
-34.75
-33.01
-31.82
-31.55
-32.13
-33.14
-33.93
-33.84
-32.71
-30.93
-29.37
-29.02
-30.57
-34.01
-38.63
-43.25
-46.69
-48.34
-48.36
-47.53
-47.02
-48.11
-51.85
-58.72
-68.15
-78.00
-84.84
-84.75
-74.87
-55.19
-29.31
-3.45
15.69
23.46
18.94
4.91
-13.35
-29.95
-40.29
-41.95
-34.56
-19.49
0.99
24.60
48.43
69.77
86.97
99.51
107.45
110.76
109.05
101.80
88.89
70.90
49.41
26.83
5.93
-10.42
-19.53
-19.49
-9.91
7.40
28.34
47.63
60.42
63.90
58.34
46.91
34.31
25.13
22.25
25.88
33.85
42.39
47.23
44.80
33.19
12.64
-14.29
-43.11
-68.38
-84.96
-89.45
-81.16
-62.18
-36.62
-9.38
15.00
33.08
42.58
42.48
33.04
16.02
-5.21
-26.19
-42.56
-51.25
-51.52
-44.87
-34.13
-22.31
-11.55
-2.86
3.40
7.02
7.60
4.76
-1.46
-10.11
-19.37
-26.93
-30.62
-29.13
-22.50
-12.11
-0.50
9.30
14.52
13.55
6.40
-5.03
-17.44
-26.74
-28.97
-21.36
-2.92
25.12
59.46
95.34
127.55
151.63
164.84
166.65
158.51
143.14
123.48
101.95
80.32
59.85
41.86
27.69
18.48
14.43
14.54
16.56
17.62
15.17
7.76
-4.54
-20.24
-36.89
-51.81
-62.77
-68.55
-69.31
-66.49
-62.42
-59.38
-58.90
-61.27
-65.73
-71.02
-75.98
-79.93
-82.45
-83.21
-81.54
-76.76
-68.52
-57.40
-45.17
-34.40
-27.82
-27.10
-32.27
-41.45
-51.61
-59.44
-62.52
-60.00
-52.60
-42.31
-31.53
-22.40
-16.37
-14.20
-15.95
-21.15
-28.92
-37.94
-46.72
-53.86
-58.43
-60.30
-60.09
-58.83
-57.55
-56.83
-56.75
-57.09
-57.47
-57.70
-57.82
-57.99
-58.14
-57.74
-55.46
-49.33
-37.35
-18.22
7.87
38.89
71.31
100.87
123.55
136.43
138.34
130.15
114.46
95.13
76.21
60.96
51.19
47.39
49.54
58.04
74.20
99.53
134.51
177.35
223.88
268.50
305.92
332.58
347.09
349.63
341.03
321.89
292.54
253.63
206.71
154.62
101.10
50.10
5.01
-31.82
-58.93
-75.66
-81.86
-78.19
-66.49
-50.21
-34.36
-24.60
-25.79
-40.34
-67.26
-102.34
-139.22
-171.39
-193.81
-204.02
-202.19
-190.50
-172.32
-151.40
-131.33
-115.14
-104.76
-100.45
-100.35
-100.59
-96.33
-83.19
-59.03
-24.94
14.73
53.58
84.86
103.17
105.40
91.15
62.47
23.32
-21.02
-64.63
-101.63
-126.92
-136.95
-130.51
-109.27
-77.75
-42.62
-11.17
10.50
18.93
13.92
-1.95
-24.62
-50.05
-74.90
-96.71
-113.43
-123.01
-123.92
-115.85
-100.55
-81.79
-64.57
-53.46
-51.10
-57.36
-69.57
-83.71
-95.69
-102.52
-102.75
-96.53
-85.42
-72.01
-59.35
-50.03
-45.06
-43.05
-40.29
-32.22
-15.35
10.89
43.67
77.92
108.69
132.96
150.50
162.80
171.36
176.26
176.10
169.08
154.49
133.51
108.98
84.19
62.06
44.57
33.01
28.07
29.89
37.64
49.20
61.37
70.49
73.48
68.51
55.27
34.66
8.56
-20.29
-48.42
-72.02
-87.64
-93.30
-89.29
-78.29
-64.59
-52.83
-46.45
-46.83
-53.28
-63.53
-74.88
-85.00
-92.28
-95.71
-94.61
-88.57
-77.54
-62.09
-43.51
-23.52
-3.86
14.22
30.11
43.69
54.93
63.76
70.34
75.39
80.43
87.35
97.65
111.40
126.98
141.33
151.19
154.46
150.99
142.53
131.81
121.48
113.02
106.65
101.69
97.26
92.80
88.29
84.23
81.27
79.98
80.29
81.37
81.62
79.13
72.41
61.25
47.12
32.83
21.63
15.98
16.74
23.04
32.78
43.59
53.63
62.04
68.93
75.04
81.29
88.36
96.39
104.62
111.40
114.47
111.43
100.59
81.53
55.44
24.93
-6.69
-36.21
-61.22
-80.60
-94.49
-104.15
-111.50
-118.77
-127.89
-140.15
-155.86
-174.15
-193.33
-211.13
-225.46
-234.90
-238.96
-238.09
-233.41
-226.34
-218.10
-209.65
-201.46
-193.43
-185.23
-176.29
-166.07
-154.28
-140.88
-126.11
-110.43
-94.43
-78.68
-63.74
-50.04
-37.83
-27.16
-17.95
-10.02
-3.48
1.37
4.17
4.85
4.00
3.05
4.07
9.03
18.91
32.98
48.66
62.19
69.75
68.81
59.07
42.44
22.59
3.69
-10.58
-17.72
-16.67
-7.62
8.19
28.65
50.82
71.20
86.12
92.59
89.09
76.18
56.41
33.79
12.60
-3.74
-13.45
-16.48
-14.20
-8.67
-1.97
4.17
8.67
11.08
11.61
11.16
11.16
13.21
18.54
27.53
39.47
52.68
64.82
73.51
76.59
72.57
60.78
41.71
17.18
-9.66
-34.71
-53.89
-64.10
-64.25
-55.41
-40.52
-23.33
-7.54
3.94
9.21
7.37
-1.37
-15.64
-32.80
-49.14
-60.52
-63.54
-56.54
-40.30
-17.94
6.00
26.73
40.43
45.04
40.48
28.33
11.44
-6.73
-22.53
-32.70
-34.83
-27.86
-12.39
9.25
33.30
55.16
70.40
75.70
69.76
53.67
30.70
5.50
-16.95
-32.43
-38.28
-33.74
-19.95
0.48
23.79
45.67
61.69
68.24
63.28
46.95
21.78
-7.83
-36.49
-59.08
-71.82
-73.22
-64.23
-48.06
-29.36
-13.13
-3.54
-2.95
-11.42
-26.75
-45.24
-62.53
-74.74
-79.22
-74.88
-62.30
-43.35
-20.94
1.45
20.10
31.72
34.08
26.69
11.28
-8.46
-27.55
-41.17
-45.97
-40.97
-27.83
-10.04
8.14
22.97
31.91
34.08
30.10
21.76
11.56
2.24
-3.79
-4.93
-0.73
8.07
19.83
32.42
43.81
52.48
57.71
59.77
59.91
60.04
62.09
67.29
75.51
85.35
94.51
100.64
102.11
98.26
89.46
76.74
61.53
45.46
30.21
17.31
7.78
2.09
0.07
1.19
4.77
10.19
16.87
24.14
31.12
36.77
40.12
40.52
37.81
32.46
25.50
18.40
12.62
9.30
8.84
10.84
14.14
17.32
19.09
18.78
16.36
12.28
7.18
1.66
-3.86
-9.08
-13.72
-17.58
-20.55
-22.69
-24.31
-25.86
-27.66
-29.82
-32.03
-33.60
-33.75
-31.96
-28.12
-22.66
-16.30
-9.79
-3.71
1.57
5.67
8.22
8.81
7.41
4.56
1.51
-0.23
0.54
4.35
10.81
18.83
26.95
33.56
37.05
35.81
28.45
14.19
-6.44
-31.25
-56.59
-77.99
-91.44
-94.70
-87.95
-73.86
-56.75
-41.24
-31.03
-28.10
-32.60
-43.20
-57.74
-73.57
-87.87
-97.83
-101.07
-96.26
-83.58
-64.89
-43.46
-23.16
-7.45
1.20
1.73
-5.37
-18.21
-33.47
-47.03
-54.68
-53.33
-41.90
-21.74
3.78
30.48
54.53
73.27
85.44
91.06
91.14
87.55
82.78
79.55
80.24
86.14
97.05
111.22
126.07
138.76
147.02
149.35
145.20
134.85
119.26
100.00
79.16
59.11
42.17
30.39
25.30
27.58
36.90
51.50
68.04
82.04
88.75
84.53
68.05
40.82
6.64
-29.51
-62.97
-90.34
-109.75
-120.53
-122.95
-118.07
-107.86
-95.49
-84.74
-79.34
-81.58
-91.53
-106.80
-123.16
-135.84
-140.89
-136.34
-122.49
-101.78
-77.86
-54.66
-35.78
-23.90
-20.47
-25.41
-36.68
-50.34
-61.18
-64.05
-55.51
-35.30
-6.57
24.88
52.41
70.46
75.98
68.75
50.95
26.33
-0.84
-26.27
-46.28
-58.00
-59.79
-51.50
-34.61
-12.14
11.76
32.56
46.39
51.07
46.69
35.60
21.70
9.25
1.70
0.94
7.06
18.73
33.66
49.17
62.57
71.39
73.67
68.34
55.61
37.20
16.24
-3.30
-17.57
-23.81
-21.25
-11.25
3.09
17.83
29.26
34.82
33.51
25.91
13.82
-0.27
-13.61
-23.66
-28.38
-26.64
-18.33
-4.44
13.15
31.98
49.35
62.77
70.34
71.12
65.51
55.37
43.67
33.84
28.92
30.59
38.88
52.19
67.76
82.47
93.48
98.79
97.65
90.77
80.09
68.51
59.00
53.89
54.28
59.78
68.82
79.19
88.52
94.71
96.16
91.78
81.22
65.18
45.40
24.62
5.98
-7.85
-15.43
-17.25
-15.72
-14.67
-18.18
-29.54
-50.24
-79.46
-114.05
-149.05
-178.69
-197.63
-202.25
-191.60
-167.80
-135.60
-101.40
-71.60
-51.22
-42.71
-45.57
-56.56
-70.62
-82.11
-86.11
-79.55
-61.87
-35.04
-3.12
28.68
55.18
72.17
77.14
69.56
50.93
24.46
-5.25
-32.93
-53.50
-63.06
-60.00
-45.42
-23.01
1.80
23.23
36.48
38.55
28.77
8.61
-18.63
-48.34
-75.25
-94.47
-102.32
-97.37
-80.81
-56.26
-28.96
-4.67
11.57
16.45
8.92
-9.45
-34.87
-62.00
-84.97
-98.77
-100.39
-89.49
-68.36
-41.38
-13.83
9.23
23.91
28.23
22.26
8.05
-10.88
-30.18
-45.59
-53.72
-52.78
-42.79
-25.62
-4.40
17.12
35.31
47.23
51.08
46.46
34.52
17.84
0.07
-14.87
-23.59
-24.15
-16.52
-2.45
15.07
32.82
48.13
59.38
65.87
67.69
65.28
59.44
51.54
43.57
38.00
37.08
42.08
52.52
66.15
79.45
88.88
91.81
87.19
75.73
59.40
41.12
24.20
12.02
7.50
12.46
26.91
48.67
73.52
96.04
110.94
114.50
105.44
85.26
57.52
26.76
-2.78
-28.09
-47.75
-61.71
-70.65
-75.46
-76.90
-75.60
-72.22
-67.74
-63.51
-61.03
-61.53
-65.25
-71.15
-76.96
-79.96
-78.09
-70.78
-59.41
-46.70
-35.81
-29.20
-27.93
-31.63
-38.88
-47.69
-55.88
-61.47
-62.80
-58.93
-49.74
-36.04
-19.40
-1.95
13.93
25.84
31.74
30.42
22.01
8.37
-7.22
-20.80
-28.91
-29.67
-23.28
-11.76
1.94
15.02
25.54
32.60
35.98
35.86
32.55
26.62
19.14
11.80
6.61
5.29
8.63
16.16
26.32
36.87
45.60
50.93
52.23
49.76
44.50
37.78
30.90
24.90
20.34
17.41
16.05
16.08
17.17
18.82
20.22
20.35
18.31
13.64
6.62
-1.62
-9.43
-14.99
-16.78
-14.05
-6.98
3.27
14.67
24.63
30.56
30.52
23.86
11.54
-4.05
-19.64
-31.99
-38.85
-39.58
-35.16
-27.89
-20.43
-15.04
-13.05
-14.71
-19.48
-26.34
-33.97
-40.74
-44.97
-45.23
-40.74
-31.91
-20.23
-8.06
2.24
8.99
11.60
10.47
6.63
1.42
-3.93
-8.33
-10.93
-11.19
-9.03
-4.85
0.50
5.94
10.42
13.17
13.95
13.14
11.57
10.35
10.33
11.93
14.91
18.56
21.83
23.84
24.02
22.21
18.63
13.76
8.31
3.07
-1.07
-3.38
-3.41
-1.18
2.82
7.72
12.41
15.72
16.69
14.79
10.15
3.62
-3.35
-9.07
-12.09
-11.65
-7.95
-1.98
4.79
10.92
15.27
17.08
16.07
12.37
6.48
-0.64
-7.67
-13.15
-15.82
-14.97
-10.70
-3.89
4.01
11.34
16.72
19.19
18.43
14.71
8.87
2.14
-4.04
-8.20
-9.26
-6.77
-1.11
6.44
14.07
19.94
22.65
21.62
17.15
10.30
2.61
-4.20
-8.62
-9.57
-6.71
-0.62
7.30
15.08
20.74
22.87
20.88
15.27
7.29
-1.29
-8.67
-13.33
-14.30
-11.28
-4.73
4.16
13.79
22.44
28.64
31.35
30.19
25.51
18.31
10.11
2.62
-2.61
-4.54
-2.94
1.50
7.38
12.91
16.25
15.88
10.92
1.32
-12.04
-27.29
-42.00
-53.59
-59.90
-59.87
-53.66
-42.65
-29.11
-15.73
-5.09
0.85
1.08
-4.05
-12.94
-22.91
-30.90
-34.35
-31.92
-23.78
-11.44
2.87
16.75
28.10
35.25
36.98
32.61
22.25
7.09
-10.58
-27.65
-40.97
-48.13
-47.93
-40.60
-27.37
-10.24
8.34
25.52
38.37
44.22
41.56
30.73
14.23
-3.71
-18.32
-25.66
-23.77
-13.06
3.99
23.66
41.98
55.37
61.29
58.39
46.90
28.58
6.71
-14.54
-30.87
-38.95
-37.35
-26.77
-9.85
9.62
27.67
40.87
46.84
44.53
34.18
17.29
-3.36
-24.13
-41.11
-50.96
-51.90
-44.12
-29.83
-12.52
3.86
15.86
21.13
18.62
8.67
-7.24
-26.58
-46.13
-62.47
-72.63
-74.75
-68.44
-54.85
-36.36
-16.09
2.69
17.07
24.99
25.55
19.31
8.22
-4.58
-15.32
-20.68
-18.59
-9.00
6.26
24.03
40.93
54.20
62.06
63.84
59.61
50.21
37.25
23.19
10.97
3.21
1.39
5.16
12.62
20.96
27.47
30.31
28.58
22.18
11.61
-2.04
-17.14
-31.39
-42.35
-47.95
-47.15
-40.20
-28.60
-14.65
-0.96
9.97
16.18
16.50
10.88
0.52
-12.18
-24.19
-32.42
-34.56
-29.70
-18.51
-3.00
13.98
29.39
40.52
45.44
43.30
34.54
20.81
4.83
-10.04
-20.60
-24.47
-20.79
-10.36
4.54
20.75
34.89
44.18
46.84
42.42
31.82
17.03
0.77
-13.99
-24.51
-28.86
-26.17
-17.05
-3.55
11.13
23.35
29.82
28.60
19.46
4.05
-14.57
-32.66
-46.64
-53.79
-52.78
-43.94
-29.11
-11.25
6.26
20.38
28.88
30.60
25.40
14.09
-1.67
-19.28
-35.33
-46.11
-48.39
-40.37
-22.23
3.92
34.64
65.97
94.27
116.64
131.05
136.63
133.80
124.35
111.25
97.90
87.07
80.01
76.11
73.20
68.61
60.03
46.14
26.89
3.15
-23.34
-50.30
-74.88
-94.06
-105.08
-106.35
-98.07
-82.46
-63.36
-45.27
-32.14
-26.38
-28.40
-36.76
-48.77
-61.15
-70.83
-75.49
-73.78
-65.65
-52.25
-35.72
-18.78
-4.21
5.77
9.89
8.07
1.37
-8.17
-18.03
-25.58
-28.72
-26.22
-18.04
-5.37
9.60
24.14
35.47
41.28
40.15
31.78
17.27
-0.99
-19.49
-34.10
-40.94
-37.52
-23.57
-1.55
23.77
46.63
61.87
66.44
60.08
45.15
25.64
5.89
-10.28
-20.21
-22.42
-16.77
-4.42
12.21
29.76
44.47
53.07
53.55
45.63
30.72
11.63
-8.15
-25.06
-36.23
-40.10
-36.71
-27.81
-16.37
-5.83
0.76
1.46
-4.15
-15.15
-29.53
-44.71
-58.04
-67.30
-71.06
-68.89
-61.43
-50.19
-37.37
-25.28
-16.02
-11.07
-10.93
-14.98
-21.49
-28.17
-32.63
-33.24
-29.44
-21.83
-11.82
-1.11
8.84
17.06
23.03
26.63
28.01
27.48
25.57
22.96
20.41
18.49
17.50
17.31
17.47
17.31
16.06
12.98
7.57
-0.22
-9.82
-19.85
-28.39
-33.45
-33.74
-29.22
-21.21
-11.88
-3.42
2.70
6.08
7.16
6.74
5.42
3.49
1.10
-1.49
-3.82
-5.31
-5.64
-4.92
-3.71
-2.65
-2.23
-2.43
-2.75
-2.46
-0.88
2.32
6.92
12.18
17.09
20.52
21.51
19.44
14.16
6.07
-3.85
-14.18
-23.18
-29.16
-30.88
-27.91
-20.87
-11.46
-2.09
4.65
6.86
3.81
-3.64
-13.48
-22.99
-29.71
-32.09
-29.76
-23.39
-14.31
-4.11
5.55
13.12
17.29
17.17
12.64
4.60
-5.15
-14.10
-19.84
-20.58
-15.71
-5.90
7.08
20.80
32.61
40.26
42.30
38.45
29.67
17.94
5.80
-4.24
-10.24
-11.22
-7.29
0.47
10.21
19.68
26.58
29.14
26.59
19.50
9.73
-0.10
-7.42
-10.44
-8.51
-2.20
7.13
17.77
28.02
36.37
41.58
42.73
39.44
32.18
22.26
11.69
2.73
-2.75
-3.75
-0.33
6.40
14.79
23.02
29.56
33.53
34.65
33.22
29.82
25.21
20.12
15.21
10.95
7.55
4.94
2.77
0.46
-2.47
-6.23
-10.51
-14.47
-17.06
-17.29
-14.75
-9.74
-3.20
3.60
9.33
12.90
13.63
11.32
6.51
0.23
-6.09
-11.13
-14.04
-14.80
-14.22
-13.49
-13.76
-15.66
-19.19
-23.81
-28.67
-32.83
-35.43
-35.71
-33.28
-28.20
-21.24
-13.75
-7.45
-3.98
-4.45
-9.07
-17.01
-26.55
-35.47
-41.60
-43.26
-39.67
-31.01
-18.51
-4.24
9.24
19.41
24.28
23.01
16.18
5.72
-5.39
-14.04
-17.76
-15.44
-7.54
4.25
17.58
29.97
39.27
43.92
43.12
37.00
26.83
14.98
4.52
-1.45
-0.88
6.54
19.34
34.74
49.44
60.61
66.31
65.57
58.43
45.75
29.24
11.48
-4.43
-15.65
-20.27
-18.02
-10.31
0.25
10.58
17.96
20.48
17.27
8.57
-4.31
-19.18
-33.25
-43.74
-48.52
-46.64
-38.58
-26.05
-11.54
2.29
13.06
19.11
19.82
15.61
7.80
-1.62
-10.56
-17.08
-19.75
-17.87
-11.59
-1.90
9.39
19.90
27.24
29.52
25.96
17.10
4.79
-8.33
-19.36
-25.87
-26.47
-21.10
-11.01
1.53
13.84
23.46
28.64
28.67
23.93
15.71
5.99
-2.98
-9.05
-10.60
-7.00
1.29
12.62
24.58
34.56
40.34
40.62
35.25
25.21
12.25
-1.48
-13.84
-22.98
-27.57
-27.03
-21.56
-12.26
-0.99
9.90
18.17
22.13
21.10
15.39
6.10
-5.32
-17.28
-28.27
-36.87
-41.85
-42.44
-38.68
-31.64
-23.33
-16.07
-11.73
-10.99
-13.12
-16.39
-18.74
-18.54
-15.00
-8.26
0.84
10.95
20.54
28.10
32.46
32.94
29.71
23.73
16.55
9.85
4.87
2.11
1.30
1.74
2.71
3.98
5.77
8.56
12.63
17.55
22.14
24.91
24.66
21.21
15.67
10.07
6.68
7.17
11.89
19.82
29.07
37.44
42.99
44.25
40.36
31.11
17.19
0.36
-16.64
-30.67
-39.20
-41.19
-37.57
-30.85
-24.20
-20.36
-20.82
-25.55
-33.26
-42.02
-49.66
-54.19
-54.20
-49.04
-39.04
-25.59
-10.79
2.93
13.28
18.77
18.92
14.40
6.74
-1.95
-9.50
-14.02
-14.22
-9.73
-1.18
9.78
20.80
29.37
33.54
32.45
26.58
17.46
7.21
-1.73
-6.82
-5.58
3.96
22.43
48.20
77.10
103.17
120.36
124.73
115.73
96.23
71.27
46.11
24.73
9.13
-0.33
-4.21
-3.51
0.50
6.07
11.03
13.07
10.33
1.95
-11.43
-27.73
-43.90
-56.73
-63.68
-63.53
-56.71
-45.06
-31.38
-18.68
-9.44
-5.20
-6.20
-11.44
-19.03
-26.82
-32.95
-36.22
-36.35
-33.71
-29.19
-23.79
-18.54
-14.45
-12.43
-12.93
-15.67
-19.65
-23.44
-25.82
-26.37
-25.64
-24.82
-25.01
-26.72
-29.63
-32.98
-35.99
-38.20
-39.40
-39.44
-38.12
-35.11
-30.26
-23.74
-16.09
-8.00
-0.21
6.54
11.67
14.75
15.81
15.42
14.64
14.74
16.66
20.62
26.09
32.03
37.30
40.95
42.22
40.52
35.38
26.64
14.77
1.07
-12.43
-23.51
-30.51
-32.88
-31.30
-27.35
-22.90
-19.50
-18.06
-18.91
-22.08
-27.60
-35.42
-45.12
-55.59
-64.98
-71.14
-72.42
-68.54
-60.91
-52.28
-45.60
-42.87
-44.33
-48.44
-52.70
-54.53
-52.23
-45.18
-34.02
-20.16
-5.65
7.13
15.87
18.75
15.08
5.73
-6.92
-19.68
-29.57
-34.74
-34.97
-31.20
-24.79
-16.63
-6.84
5.05
19.19
34.92
50.74
64.81
75.75
82.95
86.54
86.80
83.97
78.13
69.58
59.24
48.59
39.37
32.84
29.49
29.02
30.76
34.09
38.73
44.50
51.06
57.59
62.80
65.36
64.42
59.91
52.66
44.03
35.39
27.74
21.66
17.32
14.75
13.83
14.16
14.85
14.55
11.67
4.87
-6.32
-21.32
-38.45
-55.35
-69.49
-78.79
-82.05
-79.07
-70.62
-58.19
-43.80
-29.72
-18.28
-11.50
-10.65
-15.83
-25.80
-38.07
-49.55
-57.21
-58.71
-52.91
-39.94
-21.07
1.39
24.43
44.74
59.27
65.91
64.16
55.26
42.12
28.57
18.40
14.35
17.48
26.98
40.43
54.44
65.45
70.60
68.26
58.34
42.27
22.59
2.39
-15.47
-28.97
-37.31
-40.90
-40.91
-38.98
-36.71
-35.36
-35.78
-38.20
-42.19
-46.72
-50.40
-51.71
-49.30
-42.13
-29.55
-11.44
11.62
38.10
65.43
90.16
108.59
117.65
115.80
103.42
82.74
57.43
31.69
9.62
-5.56
-12.00
-9.63
-0.09
13.38
26.64
35.49
36.72
28.88
12.82
-8.56
-31.03
-50.00
-61.66
-63.81
-56.19
-40.56
-20.32
0.25
16.74
25.56
24.79
14.70
-2.27
-22.00
-39.73
-51.34
-54.15
-47.56
-32.98
-13.26
7.91
26.83
40.47
47.02
46.20
39.39
29.19
18.80
10.92
7.20
7.94
12.54
19.79
28.27
36.32
41.78
42.30
35.84
21.61
0.79
-23.24
-45.84
-62.42
-69.87
-67.43
-56.60
-40.54
-23.15
-8.21
1.29
3.55
-1.69
-13.07
-27.94
-42.81
-54.21
-59.40
-56.90
-46.74
-30.51
-11.12
7.52
21.13
25.93
19.72
2.85
-21.54
-48.01
-70.13
-82.35
-81.64
-68.33
-46.07
-20.65
1.72
16.16
20.16
13.97
0.06
-17.77
-35.35
-48.75
-54.80
-51.48
-38.37
-17.18
8.39
33.25
52.14
61.23
59.33
48.16
31.93
15.94
5.15
2.99
10.59
26.62
47.72
69.26
86.46
95.62
95.15
85.91
71.07
55.10
42.48
36.55
38.46
46.92
58.41
68.10
71.09
63.99
45.93
19.02
-12.27
-42.61
-67.34
-83.62
-90.74
-89.75
-82.61
-71.65
-59.23
-47.45
-38.17
-32.69
-31.44
-33.78
-38.07
-41.91
-42.67
-38.21
-27.45
-11.06
8.54
27.55
41.81
47.96
44.46
31.83
12.36
-10.49
-32.94
-51.33
-62.75
-65.52
-59.69
-47.35
-32.33
-19.17
-11.78
-12.17
-19.91
-32.45
-46.12
-57.18
-62.65
-60.74
-50.99
-34.24
-12.66
10.46
31.21
45.88
51.92
48.77
38.04
23.16
8.42
-2.18
-5.98
-2.33
7.38
20.21
32.61
41.35
44.39
41.25
32.98
21.79
10.36
1.19
-4.06
-4.86
-1.85
3.46
9.17
13.38
14.47
11.29
3.29
-9.27
-25.11
-42.05
-57.44
-68.67
-73.97
-72.77
-65.73
-54.68
-42.27
-31.52
-25.21
-25.12
-31.23
-41.48
-52.08
-58.77
-58.22
-49.16
-32.68
-11.62
10.44
30.25
45.39
54.40
56.75
52.73
43.73
32.07
20.91
13.42
11.93
17.11
27.68
40.72
52.58
60.04
61.26
56.44
47.63
38.00
30.65
27.56
28.94
33.54
39.37
44.55
47.83
48.53
46.20
40.35
30.69
17.56
2.55
-11.70
-22.28
-27.02
-25.31
-18.16
-7.51
4.55
16.25
26.09
32.66
34.49
30.28
19.57
3.11
-16.94
-37.44
-54.93
-66.40
-70.05
-65.61
-54.41
-39.24
-23.61
-10.88
-3.49
-2.35
-6.85
-15.19
-24.96
-33.61
-39.03
-39.93
-36.13
-28.58
-19.08
-9.70
-2.22
2.25
3.31
1.09
-3.93
-11.04
-19.26
-27.33
-33.92
-37.85
-38.39
-35.24
-28.51
-18.57
-6.16
7.46
20.63
31.51
38.70
41.88
42.10
41.35
41.79
44.84
50.52
57.59
64.04
67.95
68.17
64.53
57.76
49.04
39.65
30.67
22.94
17.01
13.19
11.60
12.16
14.63
18.66
23.83
29.67
35.62
41.04
45.26
47.85
48.83
48.81
48.79
49.84
52.60
57.05
62.50
67.84
71.88
73.55
71.99
66.54
56.98
43.70
27.84
11.27
-3.98
-16.37
-25.57
-32.56
-39.19
-47.17
-57.25
-68.86
-80.39
-90.02
-96.41
-99.19
-98.71
-95.63
-90.42
-83.31
-74.56
-64.57
-53.92
-42.92
-31.31
-18.23
-2.72
15.43
35.03
53.36
66.96
72.69
68.99
56.53
37.98
17.29
-1.48
-15.15
-22.16
-22.55
-17.81
-10.23
-2.24
4.06
7.14
6.20
1.26
-6.82
-16.30
-24.87
-30.04
-29.84
-23.52
-11.80
2.96
17.44
28.22
32.71
29.96
20.87
7.93
-5.71
-17.08
-24.31
-26.88
-25.36
-20.86
-14.55
-7.62
-1.37
2.54
2.34
-3.30
-14.79
-31.09
-49.91
-68.22
-82.97
-91.51
-92.12
-84.17
-68.57
-47.93
-26.30
-8.23
2.67
4.98
0.20
-7.91
-14.72
-16.50
-11.72
-1.12
12.78
27.00
38.93
47.03
50.74
50.27
46.29
39.63
31.19
21.76
12.23
3.50
-3.37
-7.44
-8.09
-5.25
0.37
7.52
14.57
20.16
23.54
24.96
25.43
26.45
29.50
35.39
44.04
54.28
64.08
71.14
73.41
69.72
59.90
44.71
25.43
3.53
-19.58
-42.60
-64.12
-82.61
-96.46
-104.37
-105.75
-101.23
-92.59
-82.26
-72.65
-65.40
-60.89
-58.50
-57.22
-56.25
-55.45
-55.18
-55.68
-56.56
-56.65
-54.47
-48.96
-40.07
-28.83
-16.85
-5.63
4.05
12.16
19.03
24.98
30.06
34.18
37.47
40.41
43.71
47.77
52.37
56.53
59.09
59.16
56.63
52.25
47.09
42.13
37.86
34.30
31.11
28.10
25.23
22.60
20.28
18.16
16.02
13.63
10.90
7.99
5.20
2.88
1.23
0.33
0.12
0.45
1.13
1.97
2.80
3.47
3.87
3.91
3.59
2.89
1.77
0.24
-1.70
-3.98
-6.40
-8.55
-9.87
-9.71
-7.65
-3.68
1.68
7.42
12.40
15.69
16.90
16.26
14.39
12.05
9.84
8.08
6.78
5.79
4.98
4.26
3.63
3.07
2.60
2.17
1.74
1.27
0.74
0.28
-0.03
-0.19
-0.43
-1.16
-2.90
-5.92
-10.14
-15.04
-19.87
-23.92
-26.71
-28.05
-28.10
-27.22
-25.87
-24.48
-23.42
-22.90
-22.86
-23.04
-23.11
-22.88
-22.29
-21.51
-20.76
-20.29
-20.29
-21.02
-22.71
-25.57
-29.59
-34.29
-38.70
-41.61
-41.92
-38.98
-32.88
-24.21
-13.90
-3.00
7.52
16.78
24.09
29.11
31.97
33.27
33.94
34.91
36.73
39.36
42.28
44.67
45.78
45.14
42.65
38.68
33.86
28.97
24.73
21.69
19.99
19.41
19.46
19.44
18.74
16.94
13.95
10.08
5.96
2.28
-0.31
-1.56
-1.67
-1.17
-0.74
-0.92
-1.85
-3.35
-5.03
-6.53
-7.76
-8.85
-9.96
-11.21
-12.52
-13.66
-14.46
-14.84
-14.92
-14.73
-14.14
-12.70
-9.89
-5.42
0.48
6.93
12.67
16.51
17.83
16.79
14.31
11.54
9.45
8.52
8.60
9.24
9.96
10.52
10.82
10.86
10.43
9.24
7.03
3.79
-0.07
-3.82
-6.77
-8.49
-9.05
-8.81
-8.14
-7.25
-6.06
-4.43
-2.30
0.06
2.32
4.24
5.85
7.43
9.26
11.42
13.66
15.55
16.74
17.14
16.98
16.64
16.50
16.78
17.59
19.00
21.07
23.81
26.88
29.59
30.91
29.87
26.05
19.85
12.60
5.99
1.55
0.19
2.10
7.04
14.61
24.35
35.60
47.36
58.36
67.41
73.87
77.66
79.00
77.94
74.20
67.42
57.75
46.21
34.30
23.39
13.90
5.18
-3.97
-14.30
-25.51
-36.33
-45.21
-51.35
-55.05
-57.57
-60.24
-63.75
-67.75
-71.29
-73.53
-74.37
-74.81
-76.55
-81.44
-90.66
-104.21
-120.77
-137.91
-152.62
-161.88
-163.25
-155.32
-138.22
-113.85
-85.69
-58.20
-35.71
-21.12
-14.79
-14.26
-14.84
-11.28
0.32
21.11
49.20
80.43
109.99
133.86
149.66
156.90
156.59
150.78
142.09
133.32
126.79
123.93
124.71
127.57
130.02
129.40
123.61
111.52
93.05
69.19
42.03
14.45
-10.46
-30.16
-43.43
-50.68
-53.43
-53.63
-52.96
-52.52
-52.93
-54.30
-55.87
-55.89
-51.75
-40.91
-22.39
2.04
27.83
48.89
59.48
56.05
37.82
6.25
-36.15
-86.70
-142.43
-199.43
-252.46
-295.42
-323.11
-333.29
-328.01
-312.95
-295.29
-280.52
-270.06
-261.06
-248.21
-226.77
-195.07
-155.04
-110.81
-66.38
-23.75
17.74
60.54
107.25
158.86
213.46
265.93
309.05
335.35
339.52
320.65
282.85
234.14
183.87
139.74
105.88
82.62
67.86
58.82
53.32
49.82
46.83
42.22
33.37
18.10
-4.25
-32.04
-61.41
-87.33
-105.11
-111.80
-107.02
-93.00
-73.71
-53.54
-36.00
-22.90
-14.30
-9.25
-6.51
-5.03
-4.01
-2.49
0.82
7.39
18.16
32.94
50.03
66.59
79.52
86.33
85.89
78.50
65.65
49.35
31.66
14.32
-1.18
-13.42
-20.98
-22.45
-16.87
-4.21
14.16
35.43
55.77
71.22
78.77
77.15
67.29
51.94
34.76
19.24
7.76
1.06
-1.59
-1.89
-1.95
-3.70
-8.57
-17.20
-29.06
-42.27
-53.65
-59.46
-56.61
-44.00
-23.22
1.50
24.32
39.28
41.76
29.61
3.85
-31.17
-68.52
-99.98
-118.03
-118.11
-99.86
-67.23
-27.01
13.31
47.57
71.94
84.96
86.92
79.17
63.94
44.25
23.83
6.58
-4.33
-7.29
-2.68
7.21
18.76
27.94
31.10
25.73
11.03
-11.60
-38.56
-64.54
-83.72
-91.42
-85.44
-67.01
-40.41
-11.70
13.06
29.38
35.18
30.97
19.30
4.11
-10.20
-19.48
-20.82
-13.16
2.27
22.17
42.04
57.39
64.99
63.72
54.66
40.56
25.04
11.59
3.07
1.22
6.49
18.00
33.65
50.39
64.86
74.09
76.24
70.76
58.35
40.55
19.43
-2.57
-22.62
-37.66
-45.01
-43.09
-32.25
-15.00
4.52
21.62
32.37
34.56
28.21
15.41
-0.27
-14.65
-23.77
-24.76
-16.48
0.11
22.07
45.06
64.29
75.58
76.41
66.55
48.12
25.04
2.10
-16.08
-26.09
-26.27
-17.01
-0.67
18.96
37.37
50.20
54.10
47.46
30.70
6.31
-21.65
-48.28
-68.79
-79.55
-78.84
-67.32
-47.97
-25.52
-5.48
6.89
7.60
-5.40
-31.81
-68.75
-110.86
-150.98
-181.34
-195.33
-189.22
-163.40
-122.48
-74.19
-27.37
10.45
34.75
44.82
43.43
35.85
28.29
26.66
35.34
56.25
88.36
127.44
166.69
198.21
214.83
212.18
189.77
151.09
102.56
51.97
6.89
-26.56
-44.45
-45.61
-31.76
-7.38
21.09
46.54
62.99
67.19
59.21
42.28
21.33
1.57
-12.91
-19.65
-17.85
-7.95
8.70
29.90
52.61
72.97
86.87
90.95
83.75
66.49
42.93
18.48
-1.41
-12.69
-13.66
-5.07
10.26
28.29
44.29
53.52
51.77
36.22
6.41
-34.92
-81.84
-126.36
-160.54
-178.79
-179.37
-164.69
-140.26
-112.93
-88.95
-72.71
-66.04
-68.33
-76.76
-87.02
-94.23
-94.31
-84.99
-66.36
-40.62
-11.49
16.60
39.33
53.01
55.29
45.58
25.63
-0.29
-26.00
-45.27
-54.07
-51.86
-41.43
-27.55
-15.46
-9.52
-11.79
-21.82
-37.58
-56.64
-76.73
-95.64
-110.80
-120.25
-122.80
-117.15
-101.35
-73.48
-33.08
18.41
77.07
137.12
190.18
226.42
237.93
221.57
179.87
119.27
48.82
-22.59
-82.10
-115.30
-114.79
-85.02
-37.81
16.28
70.52
121.49
166.09
202.29
228.31
241.49
240.88
228.57
208.62
183.41
153.15
114.58
68.58
18.09
-33.21
-81.00
-120.01
-145.10
-162.23
-172.38
-177.78
-181.58
-187.87
-200.94
-224.48
-261.73
-305.69
-340.88
-354.72
-339.29
-293.78
-225.32
-146.47
-70.71
-8.23
36.58
63.96
77.73
82.38
81.17
75.70
66.80
56.00
46.09
40.24
39.40
42.05
44.71
43.42
35.66
21.58
3.69
-14.01
-27.14
-32.67
-30.47
-20.90
-6.65
7.84
17.62
19.05
11.59
-0.98
-12.67
-17.24
-11.09
4.61
24.98
44.03
57.47
64.25
66.09
65.56
64.37
62.94
60.43
55.89
49.14
40.80
32.15
24.46
18.55
14.62
12.23
10.51
8.64
6.04
2.79
-0.78
-4.53
-8.86
-14.36
-20.61
-25.52
-25.15
-15.51
5.35
35.45
68.92
98.93
119.13
126.97
123.93
114.04
101.32
88.28
75.49
62.47
49.16
36.46
26.03
19.20
16.25
16.47
18.68
21.86
25.37
29.26
33.71
38.73
43.67
47.18
47.61
42.61
32.52
18.10
1.12
-16.38
-32.39
-45.48
-55.11
-61.54
-65.49
-67.67
-68.92
-69.62
-69.94
-69.75
-68.90
-67.34
-65.32
-63.25
-61.57
-60.88
-61.55
-63.64
-66.95
-70.95
-75.07
-78.93
-82.35
-85.28
-87.77
-89.68
-89.86
-86.74
-78.67
-64.43
-43.83
-17.94
11.00
39.86
66.05
87.91
104.94
117.59
126.78
133.61
139.16
144.78
150.34
154.77
155.42
148.60
131.40
103.50
68.30
32.05
1.53
-18.81
-28.08
-28.90
-25.42
-21.03
-17.12
-13.28
-8.65
-3.06
2.54
7.04
9.77
11.06
11.97
13.65
16.65
20.45
23.78
24.98
22.97
17.55
9.48
0.21
-8.73
-16.27
-22.00
-26.31
-30.00
-33.65
-37.69
-42.02
-46.15
-49.49
-51.64
-52.37
-51.88
-50.57
-48.64
-46.41
-43.66
-39.80
-33.92
-25.23
-13.22
1.93
19.17
36.93
52.86
64.87
71.62
72.56
68.04
58.86
45.71
28.91
9.04
-14.01
-39.85
-67.11
-93.60
-116.71
-134.29
-145.25
-151.73
-154.02
-153.74
-152.24
-150.28
-147.99
-144.87
-139.44
-129.14
-110.62
-80.57
-38.57
12.26
65.52
113.43
149.73
172.29
183.47
188.41
191.76
194.49
193.84
185.30
165.92
136.69
102.80
71.29
48.15
35.90
32.75
34.12
35.02
31.77
22.38
6.37
-15.92
-42.76
-70.67
-94.76
-109.76
-112.08
-101.52
-81.66
-58.57
-38.61
-26.22
-23.02
-28.35
-40.22
-56.26
-73.81
-89.88
-101.06
-104.12
-97.01
-79.88
-55.49
-28.58
-4.70
11.44
17.08
12.05
-1.51
-19.74
-37.96
-51.69
-57.46
-53.67
-40.76
-21.27
0.68
20.20
32.53
34.16
23.96
3.96
-20.75
-43.00
-55.79
-54.66
-39.28
-13.57
16.17
43.60
64.39
76.55
79.76
74.08
59.48
36.60
7.93
-21.62
-45.64
-58.24
-56.23
-40.26
-14.34
15.50
43.10
63.40
73.12
70.88
57.28
34.93
8.14
-17.72
-37.43
-46.88
-43.98
-28.95
-4.22
25.89
55.89
80.12
94.14
95.96
86.75
70.24
51.36
34.58
22.57
15.79
13.07
12.66
12.91
12.72
11.17
7.31
0.29
-10.20
-23.43
-37.36
-49.03
-55.41
-54.42
-45.74
-31.03
-13.45
3.17
15.08
19.49
14.94
1.61
-18.60
-42.22
-64.73
-81.45
-88.79
-85.18
-71.63
-51.63
-30.10
-12.15
-1.54
0.07
-6.73
-19.79
-36.34
-53.85
-70.46
-84.75
-95.29
-100.41
-98.13
-86.76
-65.52
-34.73
4.18
48.88
96.28
142.78
184.41
217.57
239.87
250.88
252.10
246.08
235.00
219.52
198.67
170.54
133.64
87.79
34.46
-23.57
-82.79
-139.36
-189.41
-229.45
-256.95
-271.17
-273.69
-268.09
-259.26
-251.93
-249.24
-251.74
-257.21
-261.36
-259.38
-247.70
-225.31
-194.12
-158.15
-121.99
-89.17
-61.23
-37.76
-17.13
2.50
22.49
43.39
65.08
87.16
109.09
130.39
150.71
169.86
187.87
205.21
222.80
241.87
263.60
288.21
314.49
339.89
361.42
377.02
386.67
392.15
395.83
398.97
400.43
397.02
385.08
362.40
329.47
289.21
245.63
202.46
162.60
127.96
100.11
80.25
68.79
65.06
67.24
72.89
79.72
86.31
91.80
95.82
97.87
97.29
93.55
86.41
75.96
62.45
46.14
27.23
6.34
-15.30
-35.89
-53.57
-67.10
-76.41
-82.55
-87.20
-91.97
-97.61
-103.81
-109.58
-113.82
-116.10
-117.05
-118.14
-121.23
-128.22
-140.69
-159.64
-185.04
-215.03
-245.31
-269.61
-281.35
-276.14
-253.90
-219.16
-179.42
-142.10
-111.54
-88.05
-69.19
-52.36
-36.87
-24.23
-16.58
-14.57
-16.27
-17.95
-16.40
-10.96
-4.11
0.07
-1.60
-9.34
-20.19
-30.05
-35.77
-36.94
-35.59
-34.53
-35.62
-38.95
-43.47
-48.40
-54.10
-61.62
-71.76
-83.71
-94.87
-102.03
-102.71
-96.36
-84.26
-69.01
-53.53
-40.68
-32.99
-32.74
-41.62
-59.81
-85.27
-113.23
-137.27
-150.76
-149.15
-131.30
-99.91
-60.93
-21.97
9.56
28.35
32.57
24.13
8.19
-8.54
-19.76
-21.47
-12.74
4.32
25.73
47.04
64.40
75.23
78.28
73.68
62.72
47.73
31.79
18.28
10.15
9.00
14.76
25.62
38.67
50.82
59.64
63.85
63.30
58.57
50.24
38.67
23.99
6.71
-11.99
-30.14
-45.59
-56.84
-63.48
-66.36
-67.07
-67.08
-67.10
-66.94
-65.93
-63.81
-61.07
-58.98
-59.03
-61.95
-67.22
-72.98
-76.87
-77.21
-74.16
-69.63
-66.62
-67.89
-74.73
-86.41
-100.47
-113.76
-123.74
-129.81
-132.64
-134.02
-136.33
-141.89
-152.56
-168.81
-189.37
-211.15
-230.23
-241.67
-241.29
-227.11
-199.97
-163.40
-121.42
-77.68
-34.86
4.66
40.28
71.93
99.43
122.26
139.49
151.55
159.53
168.06
176.75
183.22
184.73
179.43
168.35
152.39
134.40
118.46
108.36
105.86
111.96
126.01
145.54
167.11
186.56
202.75
216.25
227.93
230.69
218.53
189.88
148.65
106.34
64.91
26.48
-5.81
-28.84
-39.73
-35.90
-16.04
19.28
66.98
118.19
160.53
181.34
175.33
147.54
110.73
77.87
56.62
47.50
45.34
46.57
48.03
48.70
47.70
43.70
33.59
13.44
-20.50
-70.38
-130.93
-192.61
-243.88
-274.84
-279.13
-257.51
-217.49
-171.14
-130.62
-103.44
-91.22
-90.34
-95.29
-99.98
-102.85
-103.42
-101.71
-96.54
-85.28
-65.38
-35.64
2.59
47.85
96.37
143.93
186.87
223.08
252.06
274.21
290.44
288.32
264.37
220.59
163.56
101.41
41.33
-11.66
-55.28
-89.53
-116.16
-135.43
-148.81
-158.07
-164.94
-170.56
-175.36
-179.35
-182.36
-185.34
-186.28
-184.10
-178.73
-170.90
-161.72
-152.30
-143.66
-136.60
-131.80
-128.56
-126.30
-124.74
-123.82
-123.49
-123.51
-123.33
-122.09
-118.59
-113.62
-107.39
-100.26
-92.76
-85.52
-79.07
-73.57
-69.05
-65.57
-63.02
-61.16
-59.95
-59.37
-59.42
-59.86
-60.18
-59.88
-58.58
-56.19
-52.65
-48.17
-43.12
-37.85
-32.53
-26.61
-19.54
-10.97
-1.01
9.90
20.95
31.31
40.29
47.93
56.05
66.53
80.69
98.62
119.20
140.62
160.98
178.71
193.69
209.28
228.70
253.89
284.45
317.76
350.38
379.43
402.82
421.13
440.04
464.32
496.26
535.09
578.07
622.82
667.85
710.41
747.22
777.26
796.52
800.25
785.44
752.97
708.35
659.23
610.88
535.57
417.36
254.95
66.56
-118.45
-274.98
-391.83
-463.51
-506.45
-534.50
-550.21
-551.53
-535.14
-500.27
-451.62
-395.72
-340.15
-292.49
-254.95
-222.25
-188.30
-149.79
-109.24
-74.59
-55.05
-56.64
-79.77
-116.56
-153.06
-177.37
-184.01
-175.93
-162.58
-154.74
-159.91
-180.17
-210.53
-241.11
-262.11
-266.77
-252.74
-221.74
-177.77
-125.96
-72.23
-22.36
18.54
46.26
58.58
56.02
41.72
20.47
-2.88
-24.83
-43.65
-59.29
-72.96
-86.17
-99.82
-113.47
-125.09
-131.47
-129.31
-116.88
-95.01
-67.39
-39.36
-16.19
-1.48
3.72
0.78
-7.36
-17.13
-25.26
-29.39
-28.38
-22.42
-12.84
-1.75
8.37
15.21
17.02
13.10
4.14
-7.64
-19.07
-26.93
-29.19
-25.82
-18.65
-10.48
-3.79
0.03
0.80
-0.99
-4.59
-9.23
-13.95
-17.61
-19.07
-17.53
-12.95
-5.90
2.64
11.85
21.16
30.33
39.06
46.87
53.39
58.61
63.17
68.05
74.13
81.74
90.56
99.77
108.27
115.05
119.22
120.15
117.57
111.71
103.45
94.08
84.90
76.55
68.77
60.32
49.43
34.49
14.42
-11.05
-41.42
-75.46
-111.32
-146.46
-178.15
-203.95
-222.56
-234.20
-240.17
-242.00
-240.23
-234.08
-222.09
-203.30
-178.09
-148.38
-116.76
-85.45
-55.68
-27.90
-2.38
20.03
37.96
50.15
55.88
55.09
48.23
36.03
19.63
1.10
-16.55
-29.93
-36.24
-34.46
-25.80
-13.25
-0.37
9.99
16.60
19.88
21.22
22.13
23.56
25.54
27.34
27.86
26.17
21.70
14.42
4.69
-6.33
-16.95
-25.07
-28.79
-26.70
-18.11
-3.11
17.39
41.54
67.56
93.55
117.52
137.48
152.10
160.87
163.99
161.17
150.63
130.48
99.24
56.61
4.04
-54.99
-116.18
-175.18
-228.43
-273.18
-304.67
-316.66
-303.79
-264.48
-202.34
-125.93
-45.92
31.18
95.07
137.95
158.03
159.46
147.92
129.46
106.35
81.29
58.54
42.77
39.38
51.62
78.29
112.44
143.71
161.49
158.81
134.46
90.89
38.25
-9.26
-39.85
-50.24
-45.40
-33.59
-20.62
-7.51
7.70
27.96
53.39
80.91
104.23
117.29
116.75
102.68
77.79
45.88
11.85
-19.76
-42.40
-51.58
-46.96
-32.68
-15.57
-2.13
4.20
4.72
3.62
5.19
9.95
15.20
16.87
11.79
-0.88
-19.58
-41.19
-62.66
-81.49
-96.44
-107.28
-114.01
-117.19
-117.80
-117.31
-115.22
-112.44
-110.04
-109.58
-113.04
-122.33
-139.12
-163.77
-194.25
-225.57
-250.96
-263.30
-257.55
-232.32
-188.92
-131.73
-66.95
-1.26
59.53
110.90
149.95
175.12
186.25
186.72
181.92
178.00
180.06
190.52
208.61
230.83
252.43
269.26
281.92
293.91
309.30
329.64
352.31
370.93
377.92
367.82
329.15
261.80
177.48
95.26
31.33
-8.75
-29.76
-40.64
-47.87
-55.63
-62.32
-65.30
-63.90
-60.64
-60.26
-67.63
-85.57
-114.32
-153.02
-197.18
-240.43
-275.87
-297.76
-302.82
-290.46
-262.74
-218.56
-164.00
-109.21
-64.66
-35.70
-21.52
-15.53
-11.64
-6.47
-0.68
0.89
-8.33
-33.76
-75.43
-126.73
-176.34
-210.35
-215.96
-186.02
-123.13
-38.70
49.69
124.85
173.83
189.33
172.07
130.96
80.33
35.31
8.44
6.63
32.12
81.16
141.18
193.52
220.79
214.79
179.92
134.17
89.13
49.99
22.92
5.27
-8.19
-21.33
-35.11
-47.53
-54.89
-56.58
-53.26
-44.77
-33.10
-17.63
6.07
43.48
96.93
162.57
227.54
276.64
306.19
315.92
304.49
272.76
222.70
157.09
80.88
1.55
-70.66
-126.26
-162.67
-183.57
-196.76
-209.49
-225.58
-244.87
-264.99
-282.97
-297.08
-308.83
-320.36
-332.62
-342.71
-344.40
-331.00
-298.51
-247.37
-182.61
-113.25
-43.77
17.61
64.11
93.70
109.32
115.44
114.79
108.35
95.96
79.04
60.91
47.34
43.65
51.83
69.07
88.14
100.08
97.53
77.45
41.19
-2.74
-41.57
-64.30
-67.32
-55.83
-41.13
-31.97
-32.51
-43.14
-61.02
-82.39
-104.29
-124.17
-139.87
-149.65
-152.64
-149.50
-142.01
-131.80
-119.70
-105.46
-88.22
-66.94
-41.07
-11.05
21.45
54.41
85.49
112.62
134.56
151.12
163.43
173.37
182.75
192.60
203.98
216.51
228.78
239.24
246.51
250.61
252.94
256.17
263.33
277.29
297.04
316.53
326.44
317.12
283.52
227.84
159.24
82.55
8.21
-53.71
-97.81
-121.33
-132.24
-139.31
-147.57
-159.35
-173.47
-185.44
-190.46
-184.80
-166.35
-136.33
-98.80
-59.31
-22.26
10.35
40.41
71.50
101.38
125.32
142.66
148.34
133.57
96.42
43.38
-11.46
-51.55
-65.53
-50.03
-10.03
43.84
100.03
150.00
187.80
209.26
211.73
192.18
150.49
90.90
20.69
-51.83
-118.92
-176.19
-222.55
-257.96
-285.63
-308.99
-330.60
-345.38
-347.13
-330.57
-295.30
-254.68
-213.60
-175.34
-142.73
-115.97
-97.88
-91.95
-100.00
-121.41
-151.96
-182.57
-204.56
-209.89
-193.79
-157.04
-105.40
-46.54
12.28
66.47
115.34
157.66
192.87
220.38
239.48
245.64
236.76
213.93
181.57
152.18
129.53
113.49
102.19
91.98
82.11
74.29
71.49
76.90
93.25
120.14
155.25
193.61
227.45
248.09
248.54
225.80
182.16
124.83
62.59
4.27
-44.01
-80.29
-105.94
-124.33
-139.07
-152.15
-163.11
-169.43
-167.14
-153.06
-126.62
-89.85
-46.80
-1.44
43.22
84.86
120.20
144.20
150.83
135.97
101.00
52.45
-0.44
-49.65
-90.69
-122.97
-147.71
-164.96
-172.17
-164.19
-137.45
-92.30
-33.72
30.52
91.46
139.61
166.06
164.54
134.29
79.60
9.50
-64.62
-131.64
-180.84
-205.08
-203.52
-188.98
-171.22
-155.47
-140.90
-128.03
-118.15
-112.54
-111.55
-113.54
-114.25
-108.22
-91.99
-66.27
-35.56
-5.01
21.89
43.47
58.90
66.94
63.90
45.51
9.45
-41.32
-96.66
-141.80
-163.25
-154.04
-115.44
-57.51
7.27
68.10
119.02
159.59
192.77
221.64
241.52
257.88
266.91
265.87
253.68
231.58
203.05
172.75
144.61
120.31
99.66
79.06
56.03
30.17
4.02
-17.66
-30.44
-32.79
-27.28
-18.80
-13.75
-15.45
-23.50
-34.19
-42.65
-45.52
-42.70
-37.15
-32.67
-32.68
-38.02
-47.19
-56.67
-61.99
-59.15
-45.82
-21.80
11.63
51.90
94.98
135.09
165.13
177.97
168.23
133.94
77.79
4.80
-72.38
-137.62
-178.04
-189.63
-177.38
-150.84
-119.45
-90.11
-66.54
-49.30
-37.40
-28.64
-20.60
-11.12
0.78
14.55
28.15
39.37
47.16
50.01
46.80
37.31
23.29
9.03
0.37
2.13
15.15
34.11
48.39
47.74
28.32
-4.41
-38.21
-60.75
-65.98
-56.66
-41.87
-31.05
-28.39
-31.45
-33.58
-29.80
-20.07
-10.61
-9.54
-22.15
-47.52
-77.63
-101.24
-108.67
-96.83
-70.15
-37.97
-9.77
8.60
16.70
16.70
10.55
-1.38
-19.73
-43.67
-69.13
-89.00
-95.97
-85.94
-60.55
-26.76
6.10
30.02
41.26
41.04
34.09
25.72
19.70
17.49
18.73
22.29
27.29
33.36
39.33
44.94
50.36
55.99
62.80
72.28
85.83
103.98
125.32
146.46
163.04
171.36
170.09
161.18
148.96
137.97
130.83
126.86
122.69
113.93
97.23
71.57
38.43
1.04
-36.76
-71.27
-99.44
-118.81
-127.70
-125.66
-113.84
-95.08
-73.40
-53.12
-37.47
-27.88
-23.71
-22.87
-23.14
-23.25
-23.46
-25.23
-30.28
-39.51
-52.44
-67.16
-80.99
-91.40
-96.69
-96.28
-90.52
-80.48
-67.63
-53.78
-40.84
-30.50
-23.85
-20.96
-20.86
-21.94
-22.53
-21.62
-19.23
-16.29
-14.01
-13.35
-14.58
-17.24
-20.40
-23.07
-24.49
-24.33
-22.64
-19.71
-15.87
-11.31
-5.89
1.04
10.43
23.62
41.83
65.67
94.60
126.66
158.59
186.54
207.07
217.89
218.48
210.07
195.25
177.04
158.24
140.91
126.36
115.38
108.32
105.13
105.09
106.45
106.41
101.64
89.04
66.74
34.93
-4.10
-46.47
-87.76
-124.12
-153.18
-174.48
-188.98
-198.25
-203.33
-204.10
-199.24
-186.98
-166.10
-136.58
-99.89
-58.62
-15.98
24.51
59.27
84.84
98.37
98.27
84.94
60.73
29.17
-6.07
-42.20
-77.93
-113.19
-148.61
-184.90
-222.16
-259.45
-294.71
-324.88
-346.44
-356.51
-353.43
-337.05
-308.40
-269.10
-220.70
-164.71
-102.86
-37.69
26.49
84.11
129.50
158.85
171.92
172.73
168.72
168.55
179.24
203.21
237.44
274.64
306.07
324.71
327.09
313.67
287.72
253.63
214.56
171.98
125.82
75.53
21.11
-36.71
-96.44
-156.12
-209.50
-248.58
-265.98
-258.80
-230.03
-186.45
-135.52
-83.44
-34.87
6.64
38.13
58.50
68.80
72.30
72.78
72.45
71.59
68.98
62.43
49.20
28.01
0.12
-30.46
-57.85
-76.48
-82.70
-74.08
-50.45
-17.83
13.84
35.41
43.47
42.80
41.24
43.55
50.12
55.56
50.89
29.73
-7.70
-53.88
-96.38
-122.04
-122.24
-96.04
-50.21
3.99
55.81
97.98
126.76
140.73
138.93
120.84
87.62
42.83
-7.64
-56.80
-98.33
-128.47
-146.32
-153.60
-153.85
-151.39
-150.74
-155.59
-167.26
-183.87
-200.74
-212.05
-213.49
-204.17
-186.61
-165.11
-143.46
-123.50
-105.78
-91.16
-81.92
-81.15
-90.40
-107.25
-124.96
-134.80
-129.74
-107.56
-71.39
-27.67
17.05
58.37
94.78
126.54
154.37
178.74
200.10
219.49
238.85
260.55
286.22
315.33
344.40
367.52
378.56
374.11
355.66
329.37
303.32
283.25
269.29
255.72
233.88
196.74
142.22
74.28
1.20
-67.16
-121.88
-156.35
-166.60
-151.55
-113.38
-57.86
6.39
69.86
124.95
167.83
198.59
219.50
232.66
238.45
235.53
222.31
198.80
167.48
132.51
97.88
65.79
36.04
7.41
-20.75
-47.14
-68.91
-83.14
-88.73
-87.31
-83.41
-83.18
-92.06
-112.64
-142.86
-175.74
-200.48
-206.00
-185.39
-139.85
-79.95
-22.56
14.60
19.28
-10.82
-67.13
-133.08
-189.16
-218.62
-212.33
-170.43
-102.04
-22.64
49.99
100.44
119.39
105.08
62.65
1.93
-64.22
-122.23
-160.37
-171.93
-158.09
-128.24
-97.13
-80.04
-87.56
-121.08
-170.73
-219.06
-247.81
-247.44
-220.84
-178.37
-130.70
-84.68
-42.75
-6.71
20.78
36.60
38.67
28.70
13.58
3.87
9.94
38.43
87.89
149.25
209.27
255.41
280.61
285.30
275.48
251.73
221.04
187.87
152.91
115.03
73.68
30.75
-9.86
-44.00
-68.88
-82.71
-85.79
-79.25
-64.94
-45.86
-26.28
-11.39
-6.09
-13.03
-28.97
-47.35
-61.07
-65.69
-61.09
-50.63
-38.73
-28.48
-20.55
-13.45
-6.26
0.59
5.71
7.91
7.25
5.05
3.07
3.07
5.94
11.16
17.16
22.25
25.47
27.04
28.20
30.56
35.42
43.11
52.98
63.43
72.61
78.60
80.16
76.76
68.54
55.99
39.32
19.27
-3.35
-27.66
-52.56
-76.70
-98.72
-117.35
-131.68
-141.74
-147.37
-148.67
-146.04
-139.99
-130.92
-119.19
-105.01
-86.09
-64.67
-42.32
-20.16
0.91
20.10
36.71
50.32
60.94
68.96
74.66
79.12
83.27
87.59
92.03
95.87
98.16
98.29
96.25
91.72
85.25
77.44
68.50
58.26
45.74
30.36
12.36
-6.99
-25.82
-41.67
-52.56
-57.79
-58.01
-55.86
-53.87
-53.66
-55.15
-56.88
-56.68
-52.74
-44.62
-33.62
-23.33
-17.28
-18.30
-27.69
-44.87
-67.38
-91.07
-110.81
-115.32
-100.59
-69.52
-31.22
3.04
24.82
31.31
25.71
14.70
4.97
-1.40
-4.47
-5.68
-6.11
-6.16
-6.35
-7.09
-7.75
-7.54
-4.93
2.03
12.99
24.35
33.76
40.19
45.08
51.96
64.45
83.26
106.20
125.46
133.28
124.51
99.45
64.33
28.82
2.52
-12.46
-16.57
-14.86
-12.98
-15.16
-23.11
-34.81
-46.76
-53.71
-51.59
-39.52
-20.64
0.39
19.72
36.40
51.89
67.86
84.60
99.98
110.98
115.22
113.58
107.59
99.66
91.51
82.56
70.53
52.35
26.15
-7.00
-43.04
-77.39
-105.84
-126.02
-138.00
-143.66
-145.98
-147.79
-151.28
-157.33
-164.96
-170.75
-169.62
-157.00
-130.99
-94.16
-52.99
-15.58
11.43
25.38
28.16
24.47
18.79
13.63
9.00
3.93
-2.16
-8.72
-14.46
-18.39
-20.57
-22.40
-25.69
-32.01
-41.51
-52.98
-64.36
-73.39
-78.77
-79.28
-74.77
-65.66
-52.61
-35.93
-15.78
7.57
33.45
60.09
85.62
107.96
126.38
139.19
145.69
146.18
141.57
133.11
122.21
110.12
97.88
86.17
75.21
65.19
56.31
48.59
41.87
35.91
30.50
25.64
21.31
17.34
13.71
10.75
8.66
7.37
6.45
5.09
3.21
1.49
1.34
4.40
11.91
22.94
33.62
38.18
31.03
10.34
-21.81
-60.38
-99.51
-133.02
-155.96
-165.16
-159.66
-140.90
-109.65
-70.04
-29.51
0.50
11.70
3.09
-19.11
-43.49
-65.22
-81.61
-91.24
-92.61
-85.40
-68.62
-42.70
-10.66
21.51
42.58
43.90
22.06
-13.48
-54.92
-94.16
-125.35
-142.33
-141.85
-125.43
-97.86
-66.81
-39.82
-21.80
-11.02
-0.50
18.50
51.65
98.97
155.72
213.00
259.44
283.09
275.89
236.15
170.41
92.58
21.25
-24.90
-34.35
-7.70
41.81
94.31
130.78
139.35
117.24
70.15
9.75
-50.42
-97.48
-120.78
-112.58
-69.83
3.11
92.19
176.67
236.09
257.17
239.75
196.73
148.86
116.36
111.56
134.58
166.93
187.01
178.35
138.18
75.92
5.21
-62.97
-118.44
-160.76
-189.67
-202.90
-198.73
-177.85
-145.36
-110.66
-84.85
-75.73
-84.45
-102.61
-115.12
-108.05
-76.00
-27.01
20.89
49.32
49.57
26.56
-3.21
-20.12
-11.42
23.52
73.02
119.25
146.47
146.39
118.86
70.00
8.50
-59.29
-122.97
-171.58
-198.51
-202.93
-187.85
-157.57
-116.75
-72.52
-31.93
-3.12
6.84
-4.36
-31.97
-65.40
-92.08
-102.47
-92.74
-66.60
-35.20
-12.51
-8.28
-23.06
-48.78
-74.04
-89.01
-91.14
-83.05
-70.10
-58.10
-51.36
-51.70
-58.06
-67.53
-74.71
-73.53
-59.20
-30.71
8.47
52.09
93.90
130.35
161.54
190.27
219.52
251.01
284.09
316.10
343.06
360.19
362.70
346.99
312.98
265.30
213.34
168.65
140.73
133.15
141.91
157.23
167.52
163.79
142.29
104.70
56.35
3.95
-46.13
-88.64
-119.52
-136.31
-138.85
-130.08
-115.93
-104.22
-102.16
-113.83
-137.78
-166.53
-188.73
-193.71
-176.89
-143.44
-107.81
-88.23
-98.59
-141.50
-206.18
-272.49
-319.29
-332.76
-310.96
-262.81
-203.22
-147.30
-106.22
-85.33
-84.23
-97.83
-117.92
-135.50
-142.90
-135.28
-111.00
-71.05
-18.14
43.33
106.80
162.93
200.58
209.71
185.34
130.39
55.97
-21.03
-83.03
-116.76
-117.70
-91.19
-50.63
-12.70
8.41
5.53
-19.86
-59.54
-102.49
-139.71
-166.15
-179.94
-179.81
-163.86
-130.36
-79.52
-15.25
55.65
124.70
185.03
233.70
271.30
300.34
322.29
336.89
343.05
340.79
330.33
311.44
283.02
243.06
190.74
127.37
57.51
-13.35
-73.77
-111.99
-122.29
-107.84
-81.44
-52.80
-27.87
-9.98
-0.74
0.89
-2.09
-5.08
-2.77
7.39
25.50
48.58
71.64
88.88
95.10
85.72
57.65
11.44
-49.38
-117.02
-178.83
-220.08
-231.09
-212.17
-173.48
-133.77
-100.61
-76.01
-59.50
-50.82
-49.78
-57.79
-76.03
-104.75
-142.71
-185.79
-228.99
-265.77
-289.41
-295.59
-284.32
-259.88
-228.53
-195.26
-160.94
-124.00
-82.07
-34.56
15.61
63.07
101.98
128.64
142.86
148.02
148.51
148.32
150.28
155.89
166.37
181.79
201.06
222.04
242.56
260.54
274.38
283.12
286.66
287.67
289.49
294.53
302.52
310.18
311.76
301.08
274.17
222.14
146.89
60.52
-19.65
-80.36
-117.94
-136.86
-144.17
-145.25
-142.65
-135.85
-125.09
-112.50
-101.48
-94.60
-92.23
-92.56
-92.79
-90.94
-85.38
-76.54
-66.54
-58.07
-52.69
-50.06
-48.03
-44.11
-36.87
-25.75
-11.92
2.18
13.86
21.73
25.33
25.22
22.19
16.44
7.80
-4.45
-21.14
-42.98
-69.78
-100.48
-132.12
-159.70
-177.04
-178.85
-163.39
-134.03
-98.68
-67.04
-46.69
-39.96
-43.76
-51.24
-55.83
-53.60
-44.10
-29.10
-11.04
8.74
30.20
53.49
78.31
103.32
126.27
144.76
157.73
165.63
169.36
168.99
163.32
150.10
127.58
96.69
61.43
27.95
2.05
-13.65
-20.65
-23.06
-24.87
-27.45
-29.11
-26.84
-19.15
-8.22
0.53
1.19
-9.05
-27.90
-48.44
-62.58
-65.46
-57.49
-43.62
-30.04
-20.66
-15.47
-11.53
-5.18
5.16
18.19
30.92
40.32
44.83
45.10
43.67
43.49
46.43
52.22
58.25
60.67
55.91
42.30
20.75
-5.35
-31.31
-52.73
-67.82
-77.27
-83.63
-90.36
-98.45
-107.42
-115.70
-121.85
-125.07
-124.89
-120.03
-108.03
-86.78
-56.95
-24.08
2.63
14.51
8.55
-9.96
-29.06
-36.04
-23.78
5.97
43.99
79.02
103.34
115.44
118.71
117.98
116.39
114.54
111.91
108.52
106.05
107.02
112.98
122.38
130.70
131.80
120.65
96.06
61.73
24.99
-6.39
-27.35
-37.57
-40.11
-38.87
-36.12
-31.45
-22.79
-8.82
8.97
28.33
43.58
49.05
41.46
21.66
-4.62
-27.86
-37.96
-28.50
-0.62
35.71
64.88
71.69
47.79
-4.22
-71.23
-134.54
-176.63
-187.22
-166.34
-122.78
-70.15
-22.23
10.71
23.91
18.04
-2.27
-30.53
-60.50
-87.32
-107.91
-121.22
-128.07
-130.61
-131.37
-132.43
-134.59
-137.34
-139.46
-139.75
-137.59
-132.57
-123.54
-109.64
-92.05
-75.96
-70.12
-83.51
-120.13
-175.37
-234.74
-277.75
-286.21
-252.18
-181.30
-89.60
4.07
85.98
150.45
199.88
241.19
280.56
320.22
358.53
392.19
418.26
434.54
436.77
419.51
378.80
314.04
228.98
131.39
31.28
-62.58
-134.02
-171.56
-176.28
-158.36
-128.99
-96.23
-65.26
-39.59
-20.91
-8.83
-2.75
-1.20
-1.24
0.07
4.43
11.57
19.91
27.90
34.92
40.27
43.82
46.98
50.27
53.39
54.70
52.04
43.42
27.67
3.66
-28.43
-64.94
-99.85
-125.48
-134.96
-124.89
-97.32
-59.48
-21.63
7.25
22.99
26.87
24.21
20.83
20.34
23.07
27.11
29.96
30.36
28.75
26.44
25.01
25.31
27.45
30.75
34.81
39.52
44.58
48.63
48.69
41.14
23.63
-2.84
-33.43
-60.50
-77.09
-80.20
-72.50
-61.06
-53.69
-55.94
-67.19
-83.14
-97.73
-106.00
-105.75
-97.55
-83.52
-65.76
-45.80
-24.47
-2.86
17.30
33.82
44.64
48.75
46.70
40.60
33.23
26.99
23.00
21.12
20.45
20.08
19.79
20.07
21.96
26.42
33.44
41.94
50.14
56.20
58.81
57.59
52.99
46.10
38.12
29.45
20.00
9.57
-1.70
-13.30
-24.74
-35.46
-44.96
-52.75
-59.13
-64.81
-70.65
-77.72
-87.38
-101.00
-118.82
-139.41
-154.86
-158.05
-143.81
-109.74
-57.20
8.75
79.75
145.83
197.42
227.24
230.68
206.64
158.99
96.22
29.65
-29.35
-71.33
-90.39
-85.21
-55.88
-11.83
30.52
56.19
59.70
45.14
21.26
-3.68
-24.63
-40.22
-52.11
-61.74
-69.59
-75.60
-80.06
-83.88
-87.78
-91.80
-95.14
-98.52
-100.40
-99.23
-93.95
-84.02
-69.50
-50.46
-26.71
1.98
35.35
72.18
110.63
148.27
181.43
204.60
211.87
199.94
169.99
127.62
81.34
40.69
8.07
-17.17
-37.81
-56.87
-74.80
-90.19
-101.38
-108.01
-112.77
-119.33
-131.09
-149.34
-171.85
-191.30
-198.71
-186.83
-153.13
-101.45
-36.76
33.11
100.47
159.95
210.86
253.96
289.79
317.36
333.74
339.14
335.84
327.28
304.12
262.38
204.13
138.13
83.88
42.48
11.02
-14.67
-39.78
-67.42
-97.57
-128.67
-156.17
-173.38
-175.06
-158.19
-126.35
-87.70
-50.40
-17.73
10.84
39.14
67.79
91.68
105.01
102.91
83.19
46.75
-2.64
-60.84
-117.98
-162.93
-187.68
-188.82
-169.56
-138.16
-104.54
-76.25
-56.25
-43.00
-33.65
-26.67
-21.94
-20.57
-23.42
-29.75
-37.17
-42.47
-43.27
-39.80
-34.53
-30.55
-30.27
-34.34
-41.63
-50.22
-57.92
-63.01
-65.05
-64.51
-62.31
-59.18
-56.03
-52.30
-47.52
-41.20
-32.88
-22.35
-9.49
5.62
22.51
40.33
57.94
74.12
87.86
98.80
107.18
113.77
119.49
125.26
132.11
141.02
152.06
163.56
171.64
170.97
156.69
126.47
81.97
28.90
-24.91
-72.28
-109.12
-135.19
-153.13
-166.64
-177.34
-186.30
-194.00
-201.19
-209.00
-218.96
-231.80
-246.15
-257.97
-261.08
-249.77
-221.07
-176.46
-120.83
-61.58
-6.10
40.44
76.52
103.97
126.18
146.29
165.79
185.67
205.25
222.65
235.45
241.91
241.79
235.90
225.81
213.53
203.54
200.34
206.85
222.85
244.61
265.75
278.80
277.72
249.52
192.01
115.32
37.73
-24.67
-65.57
-87.82
-98.10
-102.09
-102.78
-99.27
-90.92
-79.30
-67.98
-60.47
-57.90
-58.84
-60.29
-59.57
-54.03
-43.34
-29.73
-17.03
-8.94
-6.75
-9.33
-13.61
-17.80
-20.44
-21.84
-23.94
-29.36
-40.12
-55.71
-73.28
-89.04
-99.81
-103.64
-100.62
-92.48
-81.95
-72.43
-66.47
-65.35
-68.83
-74.86
-79.63
-78.62
-68.42
-45.29
-13.39
18.24
40.19
47.16
39.88
23.48
4.44
-12.55
-25.97
-37.15
-47.47
-57.13
-65.22
-70.67
-73.67
-75.62
-78.46
-84.01
-93.12
-104.65
-116.02
-125.01
-128.90
-126.62
-118.64
-106.51
-92.28
-78.11
-65.36
-54.63
-46.15
-40.23
-37.72
-39.72
-47.25
-60.83
-80.43
-105.24
-133.74
-164.02
-193.94
-221.63
-245.31
-263.21
-273.48
-274.19
-264.40
-243.82
-213.27
-174.87
-132.03
-88.89
-49.61
-17.73
4.46
16.17
18.36
13.44
4.77
-3.95
-9.38
-9.10
-1.90
12.04
31.32
53.64
76.10
95.73
109.84
116.38
114.08
102.64
82.71
55.94
24.77
-7.99
-39.49
-67.18
-89.06
-103.78
-110.71
-109.65
-100.55
-83.69
-59.83
-30.63
1.73
34.47
64.53
89.04
105.88
114.57
116.29
113.59
109.77
108.72
113.91
127.54
149.51
177.43
207.91
237.72
265.09
289.82
313.61
338.04
362.97
385.60
401.57
408.27
405.48
395.77
382.07
368.68
359.25
356.07
359.47
368.17
381.79
397.69
410.95
412.84
398.64
368.41
327.48
282.95
241.16
209.20
189.16
178.83
170.24
161.96
158.43
167.96
196.01
241.51
300.99
364.14
417.62
444.53
440.23
410.33
367.58
323.93
255.22
149.03
6.49
-120.71
-215.42
-273.15
-306.99
-324.76
-335.04
-346.80
-361.24
-375.87
-384.74
-386.81
-377.94
-356.44
-324.07
-286.89
-252.23
-221.59
-194.85
-172.11
-159.87
-162.15
-180.44
-215.40
-259.97
-301.15
-323.48
-319.58
-292.90
-256.52
-221.34
-192.98
-171.29
-153.58
-138.20
-124.30
-112.62
-103.95
-99.35
-97.35
-95.01
-89.34
-78.65
-64.01
-48.19
-35.36
-29.99
-35.89
-54.69
-84.68
-120.29
-152.97
-174.01
-176.54
-157.89
-121.11
-74.59
-29.44
4.12
19.50
15.00
-7.25
-41.23
-78.46
-109.59
-126.26
-122.61
-96.62
-51.31
7.69
67.02
111.63
132.56
131.15
116.02
97.30
81.87
71.53
64.41
56.87
46.75
34.16
21.12
8.86
-1.51
-8.78
-12.02
-11.27
-8.52
-6.80
-9.36
-18.38
-34.33
-54.28
-71.56
-79.11
-73.37
-56.41
-34.32
-14.67
-1.10
5.13
4.83
0.82
-3.60
-5.67
-3.90
1.85
10.84
21.46
31.59
39.79
46.55
52.45
56.02
52.82
37.09
4.94
-42.72
-99.24
-153.64
-192.04
-202.76
-180.07
-125.92
-48.79
39.57
127.53
206.00
263.36
291.10
287.45
258.42
213.90
162.95
111.98
65.45
29.23
4.00
-9.26
-10.65
-2.47
10.85
24.93
37.67
49.36
62.49
78.18
95.90
111.68
118.97
111.70
87.45
49.10
3.12
-43.22
-85.22
-118.81
-139.54
-142.17
-122.67
-81.92
-28.03
24.13
57.99
60.99
31.51
-20.75
-79.42
-128.75
-159.65
-171.04
-167.72
-156.49
-144.77
-137.80
-138.00
-144.78
-154.67
-162.08
-160.46
-144.87
-108.91
-55.44
3.87
54.38
86.54
99.53
98.69
91.62
82.90
74.87
68.03
62.70
59.19
56.61
51.65
38.99
13.90
-24.56
-70.32
-112.65
-140.64
-148.08
-135.67
-109.37
-76.19
-41.40
-7.80
23.65
51.43
72.97
85.60
88.65
83.33
73.58
65.66
66.14
79.49
105.50
137.03
164.09
177.02
170.59
146.07
110.16
71.54
37.51
11.97
-4.30
-12.22
-13.80
-11.43
-8.74
-10.69
-22.45
-46.69
-81.94
-122.31
-156.41
-174.55
-172.36
-152.02
-120.25
-85.11
-52.29
-24.04
-0.10
20.58
38.03
51.47
59.70
61.77
56.90
45.05
26.74
3.12
-23.39
-48.86
-68.03
-75.66
-66.69
-42.31
-9.28
22.97
46.25
56.62
54.93
45.34
32.75
20.63
9.99
0.87
-6.72
-11.91
-13.03
-8.34
3.28
21.66
44.60
67.64
85.48
93.14
87.37
67.72
36.79
-0.45
-38.18
-71.11
-96.11
-112.68
-121.77
-126.60
-132.00
-142.98
-162.85
-191.51
-224.57
-254.16
-271.08
-267.98
-242.09
-196.02
-136.61
-72.23
-9.94
46.08
94.42
135.04
167.98
192.41
207.46
213.41
212.51
208.64
206.14
208.40
216.87
230.42
245.04
254.69
252.66
233.62
195.53
140.81
76.02
10.03
-48.80
-95.17
-128.07
-150.21
-165.99
-179.09
-190.58
-198.74
-200.22
-192.13
-173.74
-146.84
-114.62
-79.92
-43.85
-6.44
31.47
66.24
90.93
97.10
78.06
32.36
-34.55
-111.01
-182.19
-234.21
-257.64
-249.35
-212.52
-155.05
-87.46
-20.73
35.39
73.83
91.30
89.10
72.93
51.78
35.84
33.65
49.62
82.45
125.56
169.01
202.89
220.19
219.02
202.78
178.58
154.54
137.03
128.70
128.32
131.61
132.82
126.33
108.35
77.96
38.37
-3.12
-36.69
-52.78
-45.33
-13.53
38.26
102.12
168.25
226.65
268.34
286.59
278.09
244.11
190.57
126.51
61.36
1.92
-48.21
-87.19
-112.94
-122.93
-116.19
-96.04
-71.13
-53.01
-51.98
-71.73
-106.63
-143.52
-167.30
-167.52
-141.72
-94.88
-36.15
23.62
74.07
106.51
114.81
96.06
51.32
-13.62
-90.37
-163.65
-217.32
-241.62
-237.11
-212.17
-177.34
-141.31
-109.17
-82.74
-61.29
-43.51
-28.17
-14.31
-1.38
11.34
22.82
30.84
32.60
25.89
9.70
-14.88
-43.72
-70.22
-86.24
-87.65
-76.28
-58.70
-42.49
-32.41
-29.16
-29.86
-31.34
-32.09
-32.79
-34.27
-35.60
-33.43
-23.36
-3.01
26.26
59.55
90.58
113.87
127.26
132.55
131.97
129.86
130.40
136.60
149.84
169.50
192.48
213.56
226.62
226.56
211.78
185.03
152.90
123.80
104.78
98.86
104.08
114.42
122.10
120.46
105.39
76.03
34.42
-15.50
-68.83
-120.28
-164.86
-198.39
-218.21
-224.52
-221.08
-214.25
-210.69
-214.09
-222.80
-229.95
-226.12
-203.57
-160.16
-100.66
-34.98
25.23
70.12
93.88
95.16
76.92
45.79
11.17
-16.73
-29.88
-25.79
-9.07
9.86
18.89
9.68
-19.08
-61.91
-109.87
-155.05
-193.85
-227.29
-258.76
-290.78
-321.69
-345.19
-352.81
-337.68
-298.04
-238.55
-168.44
-98.37
-37.05
12.07
50.50
81.93
109.34
133.71
154.61
171.69
184.63
191.45
189.52
176.46
151.63
118.26
83.88
58.50
51.28
66.15
98.93
140.65
181.67
214.50
235.85
246.59
245.20
231.99
215.08
197.09
174.54
145.59
110.51
71.88
33.41
-2.00
-32.68
-57.97
-77.57
-88.17
-83.87
-60.97
-22.67
18.94
45.92
42.80
4.41
-61.01
-132.83
-186.02
-202.61
-179.04
-126.95
-67.01
-18.81
7.11
11.72
5.71
3.36
15.41
45.00
87.44
133.22
172.31
197.05
202.68
187.39
151.82
99.28
37.18
-23.25
-68.97
-89.90
-83.33
-56.38
-23.41
-0.49
1.02
-21.29
-61.87
-110.65
-157.61
-195.33
-219.30
-226.73
-216.16
-188.19
-146.21
-97.22
-49.87
-11.28
15.80
33.30
45.63
56.87
65.09
66.25
55.00
29.35
-7.15
-44.39
-69.43
-72.89
-54.15
-20.88
16.16
47.72
69.77
83.74
95.79
111.19
131.66
153.44
168.76
169.27
149.27
108.75
53.04
-9.42
-69.11
-115.73
-141.97
-145.71
-130.05
-100.98
-64.04
-23.25
18.19
54.80
83.55
100.56
103.07
91.32
68.72
40.67
12.13
-12.35
-30.52
-42.16
-49.88
-57.93
-70.83
-91.63
-120.18
-152.53
-181.23
-197.76
-195.33
-172.05
-131.62
-82.09
-33.36
5.35
27.00
27.54
5.89
-35.20
-89.11
-145.68
-192.84
-220.06
-221.59
-198.45
-157.44
-108.41
-60.31
-18.58
15.09
41.75
63.24
81.07
96.22
109.96
124.47
142.90
168.83
204.54
249.74
300.52
349.34
386.63
403.48
395.16
363.18
315.61
263.80
218.48
185.79
165.84
153.77
142.32
125.86
102.64
75.12
47.32
22.97
3.85
-10.60
-23.02
-38.01
-59.89
-91.20
-130.86
-175.62
-219.60
-254.94
-273.63
-270.01
-244.38
-201.96
-151.62
-102.53
-64.73
-45.77
-48.75
-71.95
-110.37
-159.55
-214.65
-270.20
-318.59
-354.29
-373.44
-374.44
-358.73
-320.83
-264.39
-201.09
-154.08
-125.86
-109.96
-96.27
-79.56
-58.89
-36.33
-15.94
0.61
15.83
36.57
67.72
110.72
163.25
219.28
269.70
303.25
311.16
291.51
251.43
202.27
156.25
122.59
105.35
103.18
110.65
122.55
136.62
154.16
176.09
200.75
222.78
234.17
227.04
197.11
147.02
87.18
33.08
-0.96
-6.67
15.17
56.03
104.02
149.02
185.57
212.85
232.08
243.36
245.31
235.87
214.63
183.93
148.84
115.01
86.66
65.20
49.14
35.35
20.79
3.96
-14.71
-33.39
-50.10
-63.65
-74.43
-84.21
-95.31
-109.68
-127.95
-149.49
-173.19
-198.02
-223.34
-248.78
-273.62
-296.34
-314.92
-327.25
-332.20
-330.56
-323.69
-312.06
-294.35
-267.70
-229.47
-179.29
-119.79
-56.83
1.48
48.10
79.10
94.51
97.42
91.87
81.22
68.04
52.99
34.36
10.07
-21.75
-61.75
-109.22
-162.66
-219.88
-277.25
-320.92
-337.41
-318.42
-267.20
-196.36
-120.58
-51.36
0.58
35.62
54.95
59.28
52.65
41.70
34.85
39.80
59.83
92.46
131.83
170.62
202.53
225.63
239.61
244.65
240.80
228.66
210.73
192.46
179.81
169.83
159.26
142.73
115.62
77.06
30.75
-17.10
-60.48
-94.60
-121.37
-142.12
-157.20
-165.31
-164.48
-153.52
-132.81
-104.98
-74.06
-44.15
-16.69
8.54
33.26
59.93
90.96
127.69
169.34
212.41
250.55
276.84
285.01
272.04
239.66
194.22
144.43
98.18
60.21
31.23
9.54
-7.34
-20.82
-30.70
-35.70
-34.72
-28.03
-17.71
-7.44
-1.44
-3.39
-14.93
-34.95
-59.57
-83.33
-101.12
-109.82
-109.28
-101.81
-90.86
-79.40
-69.16
-60.43
-52.81
-45.79
-38.71
-30.29
-18.29
0.19
27.41
63.28
104.58
145.38
179.09
200.92
209.48
206.44
194.90
177.21
153.83
123.89
86.64
43.19
-2.88
-46.42
-82.25
-106.90
-119.50
-121.63
-116.29
-106.74
-95.59
-84.36
-73.81
-64.44
-56.99
-52.35
-51.29
-53.77
-58.69
-64.19
-68.49
-70.61
-70.76
-69.86
-68.82
-67.90
-66.53
-63.82
-59.17
-52.74
-45.36
-38.11
-31.76
-26.46
-21.83
-17.30
-12.58
-7.96
-4.18
-2.04
-1.90
-3.43
-5.68
-7.57
-8.48
-8.51
-8.45
-9.24
-11.47
-15.01
-19.06
-22.53
-24.59
-25.04
-24.24
-22.93
-21.63
-20.39
-18.72
-15.85
-11.25
-4.95
2.41
9.74
15.97
20.45
23.02
23.93
23.53
22.02
19.43
15.67
10.55
3.77
-5.17
-16.86
-31.41
-47.56
-62.12
-70.25
-66.99
-49.58
-19.48
17.14
50.96
72.60
76.06
60.61
30.60
-6.74
-44.12
-76.24
-100.54
-116.64
-125.09
-126.65
-121.96
-111.62
-96.47
-77.50
-55.63
-31.45
-4.97
24.44
57.79
95.86
138.16
181.65
220.29
245.86
250.01
227.38
177.90
107.67
27.34
-50.68
-115.53
-160.04
-181.14
-178.97
-155.80
-115.58
-64.11
-9.08
40.88
78.25
98.85
103.20
95.88
83.43
71.43
62.62
56.82
52.42
48.22
44.26
41.47
40.40
40.55
40.43
38.73
35.41
31.83
29.90
30.83
34.34
38.61
41.44
41.41
38.49
33.87
29.19
25.65
23.58
22.52
21.69
20.43
18.51
16.11
13.46
10.72
7.77
4.34
0.16
-4.77
-10.16
-15.44
-20.01
-23.41
-25.51
-26.45
-26.57
-26.23
-25.70
-25.16
-24.55
-23.76
-22.59
-21.00
-19.12
-17.29
-15.92
-15.22
-15.10
-15.11
-14.50
-12.60
-9.05
-3.93
2.14
8.35
13.89
18.15
20.87
22.01
21.69
20.08
17.39
13.87
9.91
5.89
2.22
-0.90
-3.46
-5.66
-7.65
-9.56
-11.34
-12.93
-14.34
-15.73
-17.35
-19.36
-21.78
-24.48
-27.32
-30.26
-33.23
-36.13
-38.74
-40.75
-41.93
-42.36
-42.51
-43.00
-44.40
-46.72
-49.42
-51.54
-52.21
-50.97
-47.95
-43.86
-39.40
-34.74
-29.19
-21.33
-9.62
7.03
28.84
54.99
83.38
110.74
133.01
146.40
148.47
139.08
120.79
98.26
77.23
62.24
55.51
56.78
64.29
75.83
89.21
102.72
114.98
125.46
133.80
139.80
143.38
144.70
144.14
141.86
138.13
133.33
128.64
124.67
120.98
115.93
107.20
92.68
70.90
42.08
4.51
-38.50
-79.86
-111.50
-128.38
-130.60
-121.90
-107.82
-92.65
-79.25
-67.62
-57.77
-50.61
-47.64
-50.05
-58.10
-71.94
-91.23
-113.77
-136.78
-158.24
-177.33
-194.28
-209.79
-218.94
-217.74
-204.16
-178.90
-144.59
-104.57
-61.82
-18.69
22.73
60.47
91.91
114.87
129.57
136.95
137.63
131.85
118.99
97.93
67.66
27.16
-24.02
-85.99
-155.93
-230.05
-303.01
-367.93
-416.93
-442.74
-441.21
-412.78
-362.28
-297.41
-226.49
-156.37
-92.00
-37.00
5.88
35.08
51.47
59.31
65.52
77.25
99.22
131.73
170.64
209.11
240.00
258.51
263.67
258.53
249.08
242.27
243.47
254.14
270.76
285.49
288.81
273.03
235.42
179.38
113.75
50.27
-0.01
-30.00
-38.26
-28.54
-7.49
18.34
44.62
69.61
92.62
111.93
123.69
123.31
108.25
80.89
48.78
22.00
8.41
9.75
20.67
31.21
31.71
17.00
-11.96
-49.90
-90.54
-129.22
-163.57
-192.12
-212.57
-221.24
-214.44
-190.57
-151.78
-103.82
-54.29
-10.17
23.99
46.50
58.01
60.47
56.70
50.15
44.81
44.82
53.48
72.23
100.04
133.32
166.69
194.34
211.37
214.94
204.73
182.50
151.46
115.09
76.10
35.87
-5.24
-46.64
-86.19
-119.57
-141.19
-146.17
-132.54
-102.45
-61.62
-17.47
22.99
54.36
73.04
76.88
64.93
37.87
-1.67
-49.16
-99.28
-147.54
-191.59
-231.10
-266.27
-296.22
-318.38
-329.47
-327.23
-312.29
-288.06
-259.71
-232.17
-208.17
-187.41
-167.01
-143.20
-113.21
-76.75
-36.08
4.35
38.58
60.56
64.92
48.13
9.61
-47.06
-113.70
-177.94
-226.20
-247.96
-238.82
-201.96
-146.74
-85.24
-28.15
18.14
52.78
78.64
99.41
118.39
137.22
156.04
173.98
190.62
202.74
208.04
207.86
203.70
196.68
186.94
173.01
152.12
121.31
79.25
29.00
-21.23
-60.01
-77.48
-70.60
-44.18
-7.22
31.45
65.07
92.70
112.57
121.09
114.99
94.37
63.97
32.25
8.12
-0.83
7.55
27.66
48.00
55.51
40.55
-0.13
-62.40
-135.93
-205.73
-255.95
-274.47
-255.81
-202.33
-122.96
-30.87
59.94
131.40
169.66
171.82
145.58
103.11
54.53
5.99
-39.52
-80.39
-115.07
-141.19
-157.29
-163.39
-161.10
-153.18
-141.81
-128.29
-113.03
-95.62
-74.65
-48.59
-16.54
21.71
63.56
106.91
149.98
190.69
226.29
253.87
270.83
275.74
269.20
253.85
234.21
215.13
200.35
191.78
189.63
192.68
198.69
204.83
207.54
203.55
190.62
168.49
138.98
105.54
72.25
43.11
21.32
7.90
1.34
-2.56
-9.76
-26.21
-55.73
-98.29
-150.17
-201.18
-238.95
-254.85
-248.45
-226.98
-200.26
-175.77
-156.42
-140.92
-125.62
-108.36
-89.14
-69.90
-53.36
-41.67
-35.56
-34.71
-38.18
-44.04
-50.46
-54.31
-51.97
-40.65
-20.68
3.11
21.96
26.31
11.10
-23.01
-68.89
-110.84
-133.00
-125.81
-88.93
-30.30
37.79
105.30
164.50
210.27
240.42
254.91
255.41
244.37
224.78
194.36
158.95
123.01
89.27
58.61
30.32
3.20
-23.07
-47.21
-66.80
-77.03
-75.26
-61.75
-40.39
-18.34
-3.56
-1.61
-13.03
-32.09
-48.78
-55.47
-49.15
-32.00
-9.43
13.12
32.51
48.61
62.89
77.07
90.47
101.62
108.88
111.62
110.41
106.50
101.38
96.05
91.17
86.09
80.41
74.39
69.15
66.23
67.08
72.46
82.21
95.33
109.40
122.25
132.23
138.52
140.89
139.27
133.34
121.82
107.94
92.70
76.95
61.57
47.49
35.59
26.49
20.54
17.78
18.11
20.61
24.65
29.77
35.72
42.35
49.56
57.25
65.25
73.38
80.88
87.09
91.46
93.53
92.93
89.50
83.27
74.43
63.43
50.49
36.03
20.52
4.54
-11.39
-26.67
-40.67
-52.80
-62.36
-68.91
-72.13
-71.83
-68.10
-61.32
-52.07
-41.12
-29.29
-17.35
-6.04
3.99
12.32
18.65
22.84
24.93
25.18
24.07
22.30
20.62
19.72
20.04
21.71
24.43
27.69
30.92
33.60
35.45
36.26
35.82
33.59
28.78
20.27
7.17
-10.91
-33.46
-58.97
-85.35
-110.37
-132.46
-151.07
-166.73
-180.54
-193.57
-206.27
-218.19
-228.48
-236.37
-241.91
-246.20
-251.11
-258.69
-270.60
-287.86
-310.45
-337.23
-365.44
-390.76
-407.87
-411.99
-400.58
-374.50
-338.07
-297.26
-257.78
-223.18
-194.40
-170.43
-149.61
-130.72
-113.14
-96.56
-80.20
-62.70
-42.56
-19.03
6.91
32.08
51.41
59.46
52.36
29.89
-3.59
-39.86
-69.08
-83.11
-78.15
-55.99
-22.95
12.64
43.69
66.49
81.05
89.88
95.73
99.90
101.72
99.64
92.77
82.14
70.70
62.12
58.88
61.26
67.27
73.79
78.23
79.65
78.81
77.18
75.78
74.11
70.44
62.59
49.13
30.23
7.62
-16.08
-38.09
-56.04
-67.99
-72.25
-67.39
-52.61
-28.46
2.40
35.02
63.04
80.02
81.32
65.44
34.18
-8.26
-56.60
-105.83
-151.52
-189.24
-214.08
-220.79
-205.29
-166.99
-110.49
-45.24
16.57
63.66
89.17
92.10
77.02
51.98
25.83
6.32
-0.82
7.96
34.08
76.50
130.85
189.26
241.30
276.29
286.40
269.05
227.56
170.04
107.13
49.31
4.86
-21.49
-29.38
-22.95
-10.03
-0.14
-1.64
-19.04
-51.86
-95.75
-145.25
-196.58
-248.12
-298.94
-346.24
-383.98
-404.12
-400.05
-369.95
-318.24
-253.99
-187.36
-125.83
-72.49
-26.88
12.56
46.19
72.46
88.97
94.39
89.70
78.01
63.13
48.00
34.17
22.29
13.19
8.78
11.73
24.40
47.61
80.32
120.12
164.01
208.88
251.23
286.95
311.74
322.22
317.35
298.97
271.04
237.79
202.32
166.27
130.83
98.03
70.65
51.00
39.17
32.10
24.64
12.14
-7.11
-30.89
-54.23
-71.83
-80.08
-77.79
-65.49
-44.30
-15.32
19.73
57.60
92.79
118.46
128.34
118.98
91.17
49.61
1.43
-46.39
-88.89
-123.84
-151.23
-171.70
-185.09
-189.75
-182.65
-160.75
-122.66
-70.25
-9.13
51.90
102.74
134.38
141.26
122.95
84.51
35.18
-13.91
-52.96
-76.25
-83.33
-78.29
-67.41
-56.17
-47.03
-39.25
-30.05
-17.22
-1.26
13.99
22.35
17.97
-1.73
-34.23
-72.23
-105.71
-125.34
-125.32
-104.67
-66.91
-18.61
32.50
79.18
115.93
140.22
153.29
160.23
168.60
185.28
213.30
249.72
286.13
311.89
318.30
301.73
264.39
212.73
154.61
97.09
45.08
1.32
-33.25
-59.24
-78.91
-95.95
-115.07
-141.03
-176.98
-222.84
-274.27
-323.12
-359.21
-374.16
-364.83
-335.12
-294.87
-255.55
-225.23
-205.06
-189.68
-170.96
-143.10
-105.72
-63.58
-23.16
11.20
39.31
64.25
89.48
116.12
141.99
162.72
173.99
173.46
161.56
141.11
116.32
91.77
71.42
57.75
51.54
52.00
57.53
66.61
78.26
91.52
104.91
115.54
119.43
112.85
94.04
64.54
29.50
-3.43
-26.15
-32.27
-19.23
10.40
48.75
84.46
106.01
105.95
83.80
46.53
5.66
-27.40
-45.76
-48.86
-41.37
-29.77
-18.98
-10.88
-4.90
-0.21
2.65
1.39
-6.44
-21.80
-42.78
-65.20
-84.42
-97.43
-104.28
-108.17
-114.00
-126.14
-146.36
-172.36
-198.13
-215.80
-218.45
-202.60
-169.25
-123.14
-70.65
-17.68
31.34
73.14
104.65
122.42
123.38
106.53
74.67
34.68
-3.87
-31.64
-42.62
-36.03
-16.29
8.78
31.04
44.90
48.58
43.79
34.01
22.48
11.15
0.83
-7.71
-12.86
-12.26
-4.10
11.70
33.09
56.82
80.24
102.42
123.90
144.74
162.70
172.54
167.88
144.53
103.72
53.10
4.66
-29.61
-42.27
-32.85
-7.41
24.66
54.36
75.87
87.39
90.18
86.88
80.05
71.64
62.70
53.51
43.67
32.14
17.75
-0.20
-21.25
-43.52
-64.07
-79.91
-88.92
-90.45
-85.32
-75.47
-63.51
-52.35
-44.57
-41.50
-42.50
-44.44
-42.55
-32.30
-11.62
17.83
50.99
81.39
103.58
114.65
114.54
105.01
88.29
66.44
41.54
16.34
-5.25
-18.39
-18.12
-0.68
35.03
86.33
146.29
204.52
249.38
271.21
265.42
233.86
184.04
126.04
68.81
17.72
-25.82
-62.89
-94.99
-122.80
-146.38
-165.99
-182.66
-197.68
-211.36
-222.39
-228.27
-226.88
-218.27
-205.49
-193.55
-187.16
-188.36
-195.42
-203.66
-207.68
-203.80
-191.29
-172.05
-149.01
-124.61
-99.76
-74.22
-47.75
-20.95
4.66
27.44
46.70
63.27
79.10
96.40
116.78
140.95
168.81
199.88
233.12
266.73
297.85
322.91
338.62
343.12
336.48
320.41
297.49
270.10
240.06
208.79
177.51
147.37
118.93
91.91
65.09
36.98
6.64
-25.48
-57.52
-87.00
-111.50
-129.32
-139.62
-142.19
-137.49
-126.91
-112.95
-99.10
-89.11
-85.43
-87.99
-93.98
-98.77
-97.87
-89.01
-72.88
-52.43
-31.34
-12.22
4.02
17.79
29.87
40.61
49.58
56.05
59.57
60.33
59.16
57.12
55.05
53.46
52.41
51.64
50.70
49.02
45.98
40.95
33.18
21.81
6.07
-14.44
-39.28
-67.00
-95.25
-121.44
-143.24
-159.10
-168.32
-170.81
-167.11
-158.46
-146.77
-134.38
-123.41
-114.89
-108.46
-102.84
-96.78
-90.17
-84.32
-81.27
-82.74
-89.01
-98.71
-109.29
-118.00
-122.81
-123.02
-119.20
-112.90
-106.24
-101.31
-99.78
-102.63
-110.21
-122.40
-138.66
-157.75
-177.27
-193.35
-201.23
-196.50
-176.92
-143.75
-101.79
-57.90
-18.78
11.32
31.62
44.36
53.23
61.66
71.61
83.50
96.82
110.99
125.91
142.07
160.27
181.35
206.22
235.67
269.94
307.69
344.97
375.05
389.78
382.18
349.35
294.13
224.52
151.07
83.46
27.85
-13.83
-42.87
-62.07
-74.17
-81.46
-86.33
-91.59
-100.37
-115.29
-137.41
-165.58
-196.67
-226.72
-252.17
-270.92
-282.21
-285.88
-281.50
-267.93
-243.78
-208.49
-163.39
-112.11
-60.18
-13.77
21.70
42.75
48.30
39.71
20.36
-5.15
-31.55
-53.62
-67.15
-70.53
-65.90
-59.20
-58.33
-69.57
-94.35
-127.68
-159.96
-180.99
-184.30
-169.30
-140.24
-103.34
-63.72
-24.01
15.42
55.27
96.48
139.75
185.32
232.59
279.62
322.92
358.52
383.44
396.66
399.35
393.76
382.03
365.47
344.76
320.70
294.72
268.58
243.74
220.77
199.41
178.88
158.61
138.52
119.17
101.58
86.68
74.86
65.78
58.38
51.30
43.50
34.64
25.22
16.32
9.11
4.26
1.83
1.18
1.26
1.00
-0.36
-3.07
-6.90
-11.36
-15.96
-20.42
-24.72
-29.03
-33.53
-38.31
-43.38
-48.73
-54.34
-59.83
-64.41
-66.75
-65.51
-60.06
-50.99
-40.19
-30.11
-22.74
-18.73
-17.31
-16.88
-16.11
-14.61
-12.86
-12.04
-13.21
-17.01
-23.70
-33.63
-47.10
-63.99
-82.84
-100.54
-113.35
-118.01
-112.88
-98.33
-76.18
-48.59
-17.54
15.21
47.78
77.71
102.51
120.36
130.70
134.34
133.33
130.62
129.70
134.11
146.64
168.20
197.15
229.41
260.38
286.99
308.77
327.26
344.21
359.45
370.15
371.89
360.83
335.98
299.49
255.34
207.25
156.99
104.11
47.61
-11.79
-70.14
-121.01
-157.86
-177.00
-178.95
-167.59
-148.18
-125.45
-102.79
-82.91
-68.79
-63.85
-71.20
-91.86
-123.73
-161.43
-197.51
-224.04
-234.59
-225.74
-198.12
-156.77
-110.19
-68.11
-38.46
-25.26
-28.30
-44.42
-69.63
-100.64
-135.15
-171.33
-207.42
-241.93
-273.90
-303.09
-329.06
-350.38
-364.13
-366.91
-356.31
-332.35
-297.77
-256.94
-214.53
-174.29
-138.94
-110.25
-89.56
-77.48
-73.41
-75.54
-81.24
-88.08
-94.36
-99.33
-102.24
-101.72
-95.88
-82.73
-61.15
-31.31
5.57
47.40
91.18
132.97
167.69
189.66
194.06
178.61
145.01
99.09
49.70
6.48
-22.56
-33.25
-26.00
-5.45
21.26
46.91
66.16
76.63
78.86
75.41
69.60
64.99
65.29
74.11
93.99
124.77
162.21
198.04
222.04
225.52
204.67
162.03
105.04
42.93
-16.60
-69.38
-114.60
-153.26
-186.28
-213.52
-233.90
-246.48
-251.22
-249.30
-242.67
-233.23
-222.22
-210.03
-196.73
-182.69
-168.99
-156.86
-146.65
-136.75
-123.34
-101.29
-66.26
-16.95
43.77
109.34
171.93
225.24
266.34
295.89
316.60
331.14
340.60
344.48
341.76
332.25
317.34
299.58
281.44
264.17
247.34
229.51
209.51
187.41
164.66
143.46
125.58
111.50
100.32
90.27
79.69
67.92
55.54
43.91
34.43
27.52
22.34
17.05
9.63
-1.17
-15.17
-30.97
-46.59
-60.32
-71.56
-80.99
-90.30
-101.44
-115.73
-133.13
-152.18
-170.41
-185.19
-194.69
-198.28
-196.50
-190.68
-182.31
-172.54
-162.24
-151.99
-142.24
-133.20
-124.55
-115.61
-105.58
-94.07
-81.37
-68.53
-56.82
-47.22
-40.19
-35.57
-32.83
-31.36
-30.56
-29.80
-28.36
-25.47
-20.64
-14.05
-6.63
0.34
5.36
7.35
5.80
0.74
-7.14
-16.62
-25.55
-30.85
-29.07
-18.10
2.13
29.40
60.12
90.73
118.96
143.96
166.04
185.54
202.15
215.28
224.47
229.85
231.99
231.52
228.34
221.99
212.16
198.83
183.58
169.82
161.72
162.58
173.07
190.75
210.95
228.51
238.27
237.87
228.41
212.97
194.35
173.50
150.00
123.90
96.35
66.75
34.83
1.04
-33.60
-68.62
-104.36
-140.80
-176.57
-209.80
-242.68
-277.81
-316.51
-357.64
-398.73
-437.36
-471.25
-497.75
-496.96
-456.90
-381.27
-288.81
-198.94
-121.47
-57.38
-3.43
44.05
89.42
128.90
156.42
167.69
162.57
143.53
113.21
69.29
15.61
-39.04
-85.98
-117.14
-127.41
-115.93
-87.06
-49.48
-12.73
17.27
38.76
51.39
56.46
54.72
45.80
28.62
3.07
-27.81
-57.20
-77.69
-87.58
-87.22
-80.74
-73.93
-71.04
-72.79
-75.93
-74.39
-62.99
-40.59
-10.24
21.57
48.07
65.51
74.40
79.07
85.82
99.46
121.44
150.40
183.71
218.12
251.96
284.39
313.61
335.69
344.72
335.26
305.69
259.77
205.89
154.20
112.58
84.30
68.09
60.05
56.13
53.92
52.48
51.69
51.40
50.93
49.22
45.27
38.45
28.67
16.47
2.47
-12.82
-29.15
-46.67
-65.91
-87.52
-112.08
-139.88
-170.91
-204.95
-241.34
-278.89
-315.69
-349.35
-377.41
-397.94
-410.13
-414.24
-411.11
-401.18
-384.00
-358.63
-324.74
-283.43
-237.32
-189.72
-143.34
-99.54
-57.94
-17.03
24.76
68.46
114.47
162.36
210.29
254.55
288.96
306.99
303.79
277.91
231.71
170.97
103.58
37.61
-20.17
-66.56
-100.27
-122.00
-134.18
-141.01
-147.02
-155.90
-169.64
-188.11
-210.96
-234.66
-252.90
-258.31
-245.61
-213.40
-165.49
-111.29
-63.57
-36.31
-36.09
-58.71
-91.26
-118.19
-127.53
-114.73
-84.09
-32.54
29.20
83.73
118.67
133.66
134.80
126.88
111.53
88.22
57.70
20.93
-17.67
-52.19
-77.90
-93.89
-104.41
-112.01
-118.54
-124.02
-128.72
-131.22
-129.41
-121.81
-109.56
-95.66
-82.91
-73.14
-66.23
-61.26
-55.14
-48.12
-39.34
-29.08
-18.57
-8.94
-1.01
5.22
9.82
13.54
17.27
22.28
28.90
36.78
45.38
54.22
63.11
71.79
80.14
87.90
95.00
100.77
104.23
104.59
101.48
95.31
87.20
78.83
71.99
68.46
69.42
75.32
86.10
101.28
120.24
142.32
166.87
193.44
221.86
252.04
283.47
314.63
342.69
363.74
373.77
369.98
351.92
321.78
283.69
242.44
202.14
165.59
134.39
109.31
90.69
78.50
72.03
69.79
69.65
69.33
66.99
61.58
52.93
41.47
27.96
13.19
-2.09
-17.09
-31.03
-43.04
-52.33
-58.27
-60.48
-59.02
-54.47
-47.98
-41.11
-35.63
-32.97
-33.83
-37.93
-44.04
-50.39
-55.18
-57.27
-56.46
-53.48
-49.48
-45.53
-42.45
-40.63
-40.08
-40.52
-41.58
-42.88
-44.16
-45.15
-45.62
-45.51
-44.89
-43.97
-42.74
-41.36
-40.25
-39.90
-40.58
-41.93
-43.02
-42.60
-39.66
-33.34
-24.23
-14.52
-7.01
-3.69
-4.69
-8.24
-11.59
-12.09
-6.76
5.28
22.34
41.04
57.92
70.65
78.13
80.52
79.15
78.95
84.81
99.60
123.24
153.29
185.88
216.62
241.73
259.36
273.39
288.25
305.60
322.65
333.52
331.81
313.35
278.09
211.13
113.66
2.67
-97.50
-169.94
-212.28
-232.09
-238.40
-237.16
-230.75
-217.15
-195.66
-169.30
-143.29
-121.95
-106.77
-96.45
-88.56
-80.10
-68.37
-52.80
-35.75
-21.22
-12.87
-12.59
-20.60
-36.30
-58.84
-85.36
-111.98
-136.22
-157.18
-174.41
-187.85
-197.36
-203.12
-205.75
-205.60
-203.75
-201.88
-200.84
-199.03
-192.56
-176.53
-148.05
-108.35
-62.80
-19.34
14.66
35.40
43.74
43.76
40.17
35.98
31.89
27.35
21.98
16.38
11.96
9.80
9.88
11.07
11.59
9.90
5.57
-0.65
-7.41
-13.36
-17.82
-21.14
-24.28
-28.60
-34.95
-43.26
-52.45
-60.90
-66.91
-69.25
-67.90
-62.77
-54.45
-43.79
-31.48
-18.05
-3.98
10.23
23.91
36.24
46.56
54.33
59.37
61.94
62.71
62.49
62.05
61.80
61.85
61.99
61.78
60.78
58.78
55.85
52.29
48.42
44.33
39.91
34.97
29.21
22.52
15.18
7.85
1.39
-3.37
-6.07
-6.78
-5.94
-4.09
-1.58
1.59
5.84
11.52
18.90
28.01
38.73
50.97
64.36
78.08
90.37
98.89
101.35
96.81
86.47
73.46
61.45
52.73
47.19
41.21
31.48
16.47
-2.37
-21.29
-36.45
-46.11
-51.22
-53.87
-55.08
-53.22
-45.33
-29.20
-5.58
21.79
47.93
69.32
85.33
97.55
107.86
116.34
121.30
120.90
115.09
106.13
97.16
89.82
82.71
71.90
52.95
23.44
-15.38
-59.09
-101.56
-136.93
-160.69
-169.92
-163.26
-141.45
-108.06
-69.29
-33.02
-6.27
6.87
6.35
-4.96
-22.93
-44.29
-66.97
-89.39
-109.63
-125.11
-133.69
-134.94
-130.68
-123.92
-117.07
-110.54
-102.96
-92.60
-78.93
-62.87
-45.98
-29.33
-12.96
3.39
19.27
32.86
41.65
43.83
39.71
31.60
22.80
15.89
11.59
8.94
6.38
2.92
-1.30
-5.29
-8.14
-9.69
-10.68
-12.20
-14.94
-18.67
-22.12
-23.55
-21.46
-15.33
-6.00
4.77
14.77
22.25
26.24
26.96
25.31
22.55
19.88
18.05
17.51
18.33
20.38
23.26
26.49
29.53
31.84
32.98
32.63
30.56
26.62
20.78
13.39
5.26
-2.22
-7.44
-9.14
-7.02
-1.98
4.06
8.67
9.79
6.39
-1.25
-11.76
-23.20
-33.85
-42.54
-48.89
-53.20
-55.99
-57.61
-58.05
-57.27
-55.45
-53.34
-51.96
-52.78
-57.54
-68.31
-86.94
-114.56
-150.54
-191.83
-232.72
-265.30
-282.16
-278.74
-254.98
-214.83
-164.47
-109.96
-55.53
-3.41
46.19
92.72
134.48
168.91
194.14
210.23
219.37
225.23
231.59
242.53
260.41
284.62
311.59
335.45
349.56
348.44
329.94
289.58
229.90
159.75
90.70
32.48
-10.77
-39.80
-57.07
-63.92
-60.61
-47.09
-25.63
-2.39
15.63
23.53
21.81
12.96
0.63
-12.94
-27.30
-44.56
-69.84
-107.61
-159.37
-222.17
-288.77
-348.75
-391.02
-406.05
-380.07
-310.70
-207.23
-88.17
25.74
118.94
185.36
227.47
252.51
267.79
276.44
278.36
271.56
253.66
223.26
181.24
131.24
79.55
33.39
-2.61
-26.85
-40.89
-47.87
-50.52
-49.91
-45.78
-37.98
-27.61
-17.79
-11.79
-11.26
-15.31
-21.06
-24.91
-24.11
-17.99
-8.01
3.18
13.04
20.19
24.84
28.07
31.31
35.49
39.91
42.69
41.77
35.49
23.33
6.27
-13.82
-34.10
-51.94
-65.59
-74.30
-78.29
-78.52
-76.41
-73.36
-71.05
-70.24
-71.09
-73.47
-76.69
-79.74
-81.43
-80.65
-74.43
-63.57
-48.43
-29.44
-7.55
16.03
40.00
62.84
82.99
99.29
110.20
115.30
114.71
108.63
97.38
81.16
59.98
33.91
3.38
-31.56
-68.52
-104.02
-134.44
-156.43
-167.92
-168.39
-158.83
-137.01
-108.20
-76.04
-42.51
-8.69
24.67
56.47
84.88
107.86
124.44
132.41
131.46
121.89
104.27
80.09
52.24
25.25
4.79
-3.83
-0.34
12.08
27.60
40.27
46.72
46.75
42.62
36.98
31.16
24.68
17.46
10.45
5.80
6.08
12.13
21.52
28.52
25.62
6.55
-29.47
-76.64
-125.45
-164.80
-186.93
-190.11
-178.20
-157.87
-135.22
-113.34
-92.69
-72.67
-52.87
-33.55
-14.73
4.20
24.12
44.90
64.58
79.89
87.83
87.64
81.15
71.73
62.00
52.29
40.44
23.99
2.75
-19.31
-35.06
-38.19
-26.65
-4.00
22.52
45.32
60.12
67.06
69.40
70.69
72.14
72.96
70.07
61.66
48.72
34.89
25.05
23.06
30.04
43.32
57.57
66.84
66.49
54.33
30.53
-2.87
-41.87
-79.97
-110.20
-126.79
-126.92
-112.17
-87.94
-61.45
-38.82
-22.74
-12.63
-6.50
-3.14
-3.04
-7.93
-18.63
-33.74
-49.54
-61.43
-66.45
-64.38
-57.83
-48.41
-37.34
-25.48
-13.95
-4.00
3.98
11.76
22.88
40.85
66.22
94.51
116.98
124.60
113.17
85.87
52.17
22.67
4.26
-2.07
-0.06
5.15
10.26
15.13
21.32
29.98
40.53
51.05
60.10
68.05
76.54
87.01
99.60
112.05
119.71
116.68
97.38
56.87
-3.35
-75.49
-148.43
-210.90
-253.28
-269.19
-257.13
-221.50
-171.68
-119.59
-75.75
-46.32
-31.78
-28.30
-31.29
-37.75
-46.69
-57.62
-69.74
-81.14
-89.44
-93.81
-92.25
-84.20
-70.10
-50.81
-26.34
3.08
36.71
72.55
107.66
138.59
161.52
173.26
168.19
146.75
112.21
69.28
22.28
-24.75
-68.51
-106.82
-138.24
-161.95
-177.14
-185.34
-187.59
-185.74
-181.39
-175.94
-170.61
-166.04
-162.24
-158.24
-153.26
-146.68
-138.33
-127.26
-112.25
-92.23
-66.41
-34.28
4.77
51.22
105.75
163.64
220.98
274.02
318.81
352.51
375.01
389.66
401.82
415.78
431.51
444.76
448.50
435.25
400.40
344.60
273.94
197.84
126.30
67.90
29.63
16.40
28.26
58.99
96.72
127.00
137.06
119.98
77.18
12.31
-59.21
-116.87
-144.83
-139.23
-107.47
-62.10
-14.99
25.13
55.51
76.06
87.38
91.36
91.60
92.15
95.25
99.66
100.60
90.39
63.87
18.87
-41.38
-108.56
-171.29
-218.66
-243.73
-245.79
-230.86
-209.13
-193.47
-193.60
-213.38
-250.00
-296.39
-344.89
-390.03
-428.76
-458.63
-477.49
-480.78
-463.41
-422.85
-361.88
-288.42
-213.14
-145.55
-82.60
-25.39
23.40
60.86
85.18
95.95
94.63
84.96
72.24
62.05
55.42
51.64
48.57
44.08
36.87
27.18
16.69
7.94
4.15
7.08
18.18
38.07
66.20
98.87
130.02
153.88
164.97
163.75
163.24
173.68
195.46
223.47
247.88
259.02
251.94
228.21
194.39
157.21
119.21
79.23
35.01
-14.53
-66.81
-115.14
-150.53
-164.92
-154.84
-124.03
-81.62
-38.04
-1.19
26.37
47.47
67.13
88.20
108.40
120.45
117.11
96.30
63.34
28.48
1.60
-12.57
-16.13
-16.01
-19.62
-29.95
-44.47
-57.03
-62.73
-60.74
-53.45
-44.02
-34.62
-26.44
-20.67
-20.49
-29.83
-52.07
-86.87
-127.19
-160.27
-172.81
-156.80
-112.87
-50.16
18.90
82.32
126.95
142.88
128.20
89.70
38.38
-11.84
-57.98
-98.79
-132.29
-156.63
-170.90
-175.57
-173.58
-169.63
-167.93
-170.35
-173.63
-171.20
-155.86
-122.38
-70.38
-6.14
58.31
108.96
134.13
129.58
99.01
52.50
3.44
-35.21
-54.71
-52.52
-32.09
-1.32
30.97
57.06
72.04
74.86
68.17
57.14
47.69
44.76
50.97
66.28
87.99
111.87
133.81
151.46
164.80
175.62
186.61
200.38
219.05
243.96
275.03
309.92
343.46
368.49
377.83
367.27
337.49
293.85
243.75
193.44
146.44
104.06
67.49
39.31
23.11
20.88
30.38
44.23
51.80
43.12
13.04
-36.49
-96.89
-155.20
-197.99
-214.64
-200.27
-157.48
-96.14
-30.96
22.05
50.17
47.77
17.86
-29.23
-79.12
-118.10
-137.31
-134.34
-113.31
-82.31
-50.40
-24.95
-10.74
-10.20
-24.00
-51.55
-90.25
-136.19
-184.11
-228.03
-262.21
-282.02
-284.25
-267.87
-234.62
-188.63
-136.64
-85.95
-42.11
-7.01
21.25
46.58
73.53
98.89
118.63
126.86
119.51
96.82
63.55
26.91
-6.48
-33.08
-53.22
-68.78
-82.05
-94.02
-104.77
-114.87
-126.82
-144.43
-171.07
-206.35
-243.96
-273.37
-283.19
-266.02
-221.87
-158.50
-88.26
-24.32
24.51
55.69
71.65
77.65
79.10
79.98
82.12
85.57
86.85
81.18
63.74
32.03
-11.68
-59.89
-101.49
-125.94
-126.46
-104.54
-66.64
-21.28
24.95
69.69
114.16
159.89
199.83
232.66
247.42
235.94
197.34
140.80
83.13
42.64
32.16
54.04
100.41
154.63
199.64
222.54
217.91
187.67
139.19
82.42
27.02
-18.96
-51.98
-71.38
-79.52
-80.46
-78.63
-77.45
-78.27
-80.04
-79.18
-72.06
-55.99
-31.67
-4.19
17.98
25.05
8.96
-33.89
-100.72
-182.68
-265.68
-333.54
-371.93
-372.31
-334.60
-267.18
-184.31
-101.80
-33.00
14.56
40.20
49.34
51.58
57.70
76.57
111.51
158.32
205.18
236.03
236.69
201.07
135.21
56.41
-12.67
-52.39
-53.91
-22.57
24.43
65.19
82.32
69.90
35.29
-4.73
-31.90
-34.38
-11.71
25.66
61.66
82.60
83.12
68.26
50.29
42.33
51.65
76.50
107.27
131.08
137.78
124.08
94.27
57.71
24.80
3.29
-3.05
6.04
28.31
59.92
95.52
128.30
150.42
154.48
135.23
91.12
24.98
-56.47
-143.36
-223.79
-285.33
-317.29
-313.72
-276.18
-214.72
-145.79
-87.49
-53.34
-47.84
-65.37
-93.08
-116.31
-123.90
-111.15
-79.54
-34.34
18.87
76.02
134.33
190.81
240.92
278.66
298.86
300.22
287.17
269.13
256.64
256.39
268.15
284.71
295.84
293.43
275.86
248.58
220.78
200.08
188.16
180.17
167.95
145.41
112.24
74.50
40.92
17.71
4.83
-3.79
-16.28
-37.74
-66.70
-95.49
-114.16
-115.20
-96.97
-64.02
-24.60
12.46
40.12
53.92
51.68
33.34
1.41
-38.42
-77.34
-105.76
-116.77
-109.86
-91.84
-74.45
-69.28
-82.72
-113.33
-152.94
-190.75
-217.92
-230.39
-229.12
-218.56
-204.16
-190.41
-179.53
-171.27
-163.34
-153.23
-139.59
-123.16
-106.35
-91.41
-78.58
-66.15
-52.24
-37.37
-25.96
-24.80
-39.56
-71.60
-116.86
-167.67
-216.14
-256.60
-285.86
-301.87
-302.38
-285.15
-249.70
-198.93
-139.50
-80.02
-28.10
12.08
40.49
60.46
77.19
95.93
120.66
152.84
190.25
226.71
253.54
262.09
246.87
207.46
149.04
81.16
15.76
-35.49
-64.32
-66.70
-43.30
1.42
60.55
126.32
191.27
248.80
293.37
319.60
324.26
307.47
273.32
228.35
178.94
128.91
78.85
27.44
-27.82
-87.29
-148.84
-208.10
-260.74
-304.07
-337.72
-363.16
-372.61
-359.91
-322.77
-266.31
-200.01
-132.73
-69.13
-9.99
45.49
97.47
143.68
181.04
206.19
219.41
222.45
217.90
208.21
194.74
177.05
153.19
121.61
80.62
30.52
-26.84
-88.09
-149.22
-202.60
-241.48
-261.08
-252.59
-215.84
-160.22
-102.10
-56.70
-31.45
-25.36
-34.01
-52.17
-75.31
-103.06
-132.43
-157.46
-170.25
-163.81
-136.32
-94.63
-49.95
-13.07
7.89
10.89
-0.59
-18.35
-31.78
-32.02
-16.50
13.59
55.06
101.63
146.24
182.31
199.13
189.83
165.65
134.77
98.29
59.60
22.47
-8.90
-30.67
-40.40
-37.27
-23.21
-4.55
12.71
25.43
32.76
36.30
39.27
45.63
59.61
83.37
114.17
146.21
172.76
187.45
186.98
172.58
149.77
126.53
109.59
101.22
100.01
102.47
103.89
99.98
87.82
66.55
38.24
7.53
-19.65
-37.19
-40.49
-27.70
0.59
41.09
87.95
133.11
166.99
180.17
166.05
123.50
59.57
-11.44
-72.81
-111.51
-123.10
-112.77
-92.50
-76.46
-76.24
-95.83
-130.70
-171.07
-205.62
-224.89
-223.12
-199.16
-156.40
-102.39
-45.04
9.98
59.39
102.85
142.25
175.05
196.80
210.20
213.31
199.40
166.53
118.02
61.89
6.18
-37.60
-59.72
-57.81
-38.78
-12.71
13.40
37.49
61.20
87.09
116.24
148.17
178.99
203.07
216.28
217.16
206.13
185.42
159.48
135.18
119.68
117.35
127.92
145.29
157.42
149.32
109.38
35.75
-60.52
-159.12
-238.06
-282.61
-290.81
-273.14
-247.34
-230.37
-232.11
-252.81
-285.21
-318.00
-339.16
-338.30
-308.66
-249.04
-165.35
-70.85
16.43
78.02
101.77
87.14
45.79
-2.75
-39.02
-51.32
-39.78
-15.05
6.08
8.83
-12.98
-55.03
-104.98
-148.80
-176.16
-182.89
-170.29
-145.05
-115.76
-90.49
-75.15
-72.34
-81.46
-98.87
-118.21
-131.94
-136.92
-134.57
-130.17
-130.89
-143.52
-172.97
-220.83
-283.96
-338.90
-361.03
-333.50
-256.84
-147.76
-27.91
85.61
182.95
260.45
318.39
356.98
373.68
366.54
337.44
292.84
242.00
194.41
155.53
131.36
121.28
117.94
111.47
95.05
68.14
35.41
3.33
-22.44
-39.86
-51.54
-62.20
-75.53
-92.49
-111.68
-130.82
-149.49
-164.44
-172.70
-171.80
-160.30
-138.00
-106.08
-66.97
-24.21
18.38
59.13
96.93
132.23
166.15
199.84
233.93
268.10
301.23
325.54
336.58
323.37
282.17
218.91
147.98
85.91
43.76
22.91
16.42
15.35
14.40
11.34
7.70
6.75
11.32
22.37
38.37
51.31
55.41
45.78
21.74
-13.00
-52.48
-91.16
-126.32
-158.63
-189.95
-220.22
-247.99
-270.51
-285.48
-292.80
-295.63
-296.22
-296.09
-294.45
-287.58
-271.28
-242.63
-201.72
-152.40
-100.40
-52.12
-12.43
16.97
38.30
55.93
74.65
98.18
122.46
144.31
160.81
170.39
173.18
171.07
166.48
161.77
158.96
159.27
163.24
168.59
169.96
160.36
134.79
93.75
44.89
1.16
-24.19
-22.58
5.57
51.29
101.14
142.95
169.98
181.90
182.90
178.11
171.53
164.81
158.48
153.46
151.68
155.08
163.41
172.81
175.96
165.19
135.80
88.58
29.67
-32.30
-89.75
-138.64
-178.01
-208.26
-228.92
-237.78
-231.96
-209.78
-172.46
-124.78
-73.84
-26.67
12.42
43.46
69.83
95.68
122.68
147.98
164.89
165.99
146.68
107.17
52.43
-9.88
-71.67
-125.40
-164.03
-181.23
-172.70
-138.71
-86.42
-29.20
17.01
39.00
31.17
-2.78
-52.18
-103.78
-146.86
-176.41
-193.57
-203.69
-212.88
-224.86
-238.94
-250.39
-252.89
-241.57
-215.67
-178.92
-138.18
-100.20
-69.10
-45.17
-25.83
-7.69
11.62
32.89
56.07
81.06
107.95
136.37
164.92
191.29
213.45
231.18
246.89
265.15
290.46
324.45
363.83
400.57
424.33
426.24
402.57
356.22
295.60
231.46
173.24
126.50
92.44
69.04
53.06
41.76
33.22
25.87
17.88
6.98
-9.00
-31.30
-59.80
-93.43
-130.88
-171.50
-215.24
-261.65
-308.67
-352.22
-386.87
-407.76
-412.28
-400.85
-376.25
-341.87
-300.48
-253.89
-203.99
-153.46
-105.75
-63.91
-28.93
1.05
30.16
62.42
99.57
139.90
179.11
212.04
234.72
245.19
243.26
229.80
206.01
173.43
134.10
90.55
44.99
-1.36
-48.16
-94.80
-138.39
-172.86
-189.52
-180.31
-142.40
-81.85
-13.55
43.19
71.88
65.91
31.52
-14.75
-52.80
-66.49
-48.93
-3.19
60.29
127.79
185.47
221.33
226.79
198.42
140.04
63.78
-11.79
-66.92
-87.31
-69.51
-22.52
36.16
87.13
115.84
116.13
90.03
45.29
-7.35
-56.30
-91.01
-103.43
-90.15
-54.09
-4.98
43.47
78.61
93.41
88.31
68.74
41.78
13.55
-10.94
-27.44
-31.81
-20.44
7.80
48.84
92.10
123.06
128.08
99.91
39.97
-42.71
-134.42
-219.21
-279.37
-302.36
-286.80
-242.77
-184.80
-124.50
-68.09
-17.70
25.83
61.50
87.56
103.04
109.20
109.98
110.67
114.93
124.24
137.56
152.15
164.32
171.93
173.29
168.69
159.87
147.94
133.62
117.19
98.62
77.71
54.63
30.08
5.10
-19.07
-42.21
-64.00
-83.89
-101.35
-116.16
-128.62
-139.96
-153.47
-167.04
-181.12
-195.70
-209.52
-220.44
-226.23
-225.19
-216.69
-202.72
-186.08
-170.48
-159.24
-155.26
-161.29
-179.44
-209.68
-238.85
-252.96
-241.00
-201.84
-144.92
-85.23
-36.72
-7.98
-0.23
-8.64
-26.95
-50.86
-75.58
-96.44
-108.81
-109.09
-96.71
-74.82
-49.56
-29.11
-19.22
-21.90
-35.47
-55.10
-74.23
-86.16
-85.56
-69.57
-39.51
1.16
46.88
91.19
128.69
156.37
173.80
182.27
183.44
178.29
169.99
162.70
160.42
166.15
180.87
203.04
229.11
254.48
274.94
290.77
304.73
319.99
338.50
360.50
384.67
408.81
430.23
429.07
392.07
316.45
211.28
92.49
-24.70
-130.42
-220.18
-293.38
-350.19
-392.55
-420.82
-435.07
-436.32
-426.78
-409.38
-387.27
-363.67
-341.53
-321.39
-302.00
-281.31
-257.33
-228.49
-194.21
-155.34
-114.52
-75.43
-40.34
-9.59
18.24
45.77
76.15
112.08
155.01
203.88
254.35
299.23
329.58
337.25
318.58
277.46
225.58
179.18
153.04
154.64
181.01
219.60
252.78
264.30
245.33
197.62
132.80
68.07
19.90
-1.75
3.25
25.65
50.79
64.88
60.15
37.38
4.51
-27.27
-48.09
-52.85
-42.20
-21.68
0.53
15.90
17.74
2.77
-27.75
-67.91
-107.96
-136.67
-144.87
-128.71
-91.88
-45.24
-3.62
19.41
16.61
-10.06
-49.72
-86.55
-105.73
-98.80
-66.62
-19.14
28.19
59.89
65.83
44.84
5.01
-38.96
-70.85
-78.40
-57.35
-12.63
43.37
95.01
128.58
136.39
118.70
82.96
41.09
5.46
-14.64
-15.70
-0.85
21.35
39.96
45.78
34.89
10.20
-19.61
-43.40
-52.02
-41.93
-16.39
15.83
44.00
59.60
59.33
45.98
26.93
11.16
5.79
13.95
34.03
60.62
86.56
105.31
113.10
110.15
100.60
91.02
88.28
97.04
118.09
148.13
180.94
209.39
227.35
230.82
218.09
189.48
147.03
94.50
37.10
-19.03
-68.15
-106.42
-132.94
-149.51
-159.73
-167.55
-176.25
-188.26
-205.38
-228.45
-256.66
-286.72
-312.84
-328.16
-327.09
-307.59
-271.99
-225.88
-175.68
-126.24
-79.70
-35.58
8.01
53.01
100.35
149.05
195.89
235.49
261.46
267.92
251.53
212.54
155.45
87.86
19.51
-39.13
-78.48
-92.17
-79.61
-47.15
-7.76
23.92
35.93
23.68
-9.11
-52.75
-96.45
-132.54
-157.21
-170.54
-172.78
-164.57
-148.10
-129.47
-118.19
-124.78
-156.39
-212.18
-284.53
-351.18
-387.41
-375.84
-316.04
-223.89
-121.60
-33.24
37.02
90.36
128.62
151.80
159.48
151.52
131.73
107.27
87.06
77.64
77.68
80.74
78.87
66.89
43.95
13.54
-18.82
-48.51
-71.41
-85.22
-88.24
-80.31
-63.40
-41.33
-17.95
4.29
25.22
47.12
72.73
105.13
146.38
196.19
251.18
305.02
348.89
373.39
371.92
343.28
293.75
235.58
182.71
145.38
126.24
119.14
112.17
93.37
55.84
0.18
-67.00
-136.88
-202.14
-256.01
-292.10
-306.32
-298.30
-271.26
-230.38
-181.43
-130.31
-82.61
-43.00
-14.27
3.08
11.03
13.21
13.75
15.75
20.52
27.61
35.43
42.31
46.95
49.12
49.35
48.73
48.14
47.45
46.40
42.76
34.49
20.39
0.79
-22.37
-45.45
-64.03
-74.48
-73.64
-61.78
-41.42
-17.04
7.62
28.55
42.15
45.94
39.25
24.05
4.99
-11.73
-20.68
-19.02
-9.50
1.39
7.02
3.66
-8.12
-24.51
-41.15
-55.50
-67.61
-79.56
-93.03
-107.96
-122.49
-134.81
-142.42
-143.70
-138.06
-125.85
-107.88
-84.84
-57.17
-25.31
9.74
45.85
80.78
112.29
138.33
157.20
168.10
171.56
168.91
162.37
154.38
146.83
140.78
136.72
134.87
135.19
136.76
136.75
131.00
115.41
88.14
51.28
10.73
-25.90
-52.46
-66.72
-70.64
-68.55
-64.49
-60.39
-56.06
-50.53
-43.70
-36.96
-32.34
-31.21
-33.20
-36.30
-37.80
-35.41
-28.38
-17.75
-5.80
5.17
13.78
20.09
25.32
31.02
37.54
44.00
48.23
47.63
40.43
26.27
6.15
-18.19
-44.52
-70.16
-91.60
-104.66
-105.70
-93.20
-69.03
-38.66
-8.66
15.03
29.36
34.87
34.58
31.71
28.17
24.31
19.48
13.35
6.63
0.89
-2.57
-4.17
-6.74
-14.79
-31.98
-58.69
-91.05
-121.39
-140.96
-143.22
-126.67
-94.36
-54.55
-15.73
17.20
41.80
57.55
64.67
63.23
53.50
36.97
17.22
-0.32
-10.21
-9.62
0.15
14.36
27.05
33.67
32.68
25.60
15.39
4.69
-5.42
-14.87
-23.71
-31.00
-35.25
-34.96
-29.44
-19.18
-5.98
7.24
17.04
20.67
16.97
7.32
-4.01
-11.73
-11.83
-3.60
9.69
22.58
30.02
30.02
24.68
19.18
18.75
25.69
37.73
49.43
54.55
49.31
34.17
13.30
-7.66
-24.42
-35.51
-41.88
-45.39
-46.85
-45.76
-41.05
-32.39
-20.95
-8.97
0.99
7.08
9.11
8.46
7.53
9.17
15.59
27.29
42.24
55.99
63.37
61.07
49.64
33.60
19.01
10.00
6.18
2.90
-5.83
-23.51
-48.93
-76.84
-100.71
-115.25
-117.80
-107.75
-85.51
-52.32
-11.30
31.68
68.52
91.64
97.21
86.60
65.71
42.13
21.97
8.18
0.85
-1.17
1.19
8.04
19.66
36.07
56.80
80.97
107.23
133.46
156.36
168.66
163.82
137.98
93.10
38.28
-12.42
-44.77
-50.19
-29.53
7.20
45.62
72.34
79.30
64.83
31.85
-14.08
-66.12
-115.82
-152.96
-166.30
-147.31
-94.57
-16.73
68.08
137.75
173.28
165.23
116.58
41.43
-39.63
-105.22
-139.45
-136.60
-101.28
-46.97
8.66
49.33
64.88
53.09
19.35
-27.37
-78.61
-127.32
-168.69
-199.98
-220.60
-232.30
-239.19
-245.99
-247.82
-239.44
-215.98
-176.78
-126.03
-69.75
-13.00
37.60
83.09
122.95
152.95
168.12
164.34
140.66
99.67
50.16
5.18
-21.84
-23.81
-3.75
27.57
55.99
70.79
69.38
57.96
47.10
45.97
56.20
70.86
82.10
85.09
79.63
68.53
53.86
34.59
7.07
-32.23
-82.65
-135.14
-175.93
-193.35
-183.88
-153.89
-115.23
-78.36
-47.39
-19.87
12.05
54.77
107.77
160.76
197.29
204.65
182.22
146.71
110.41
80.33
58.88
44.62
36.88
35.67
41.51
53.32
66.85
74.30
68.03
45.83
13.39
-17.92
-37.42
-39.81
-26.52
-3.10
23.35
48.71
71.83
92.71
110.94
125.21
134.74
139.56
141.64
141.89
141.62
141.76
142.19
141.85
139.16
133.22
123.74
111.61
97.99
84.44
72.11
61.18
50.45
37.32
23.25
8.69
-5.44
-17.93
-27.27
-32.25
-32.43
-28.40
-21.71
-14.31
-8.63
-6.29
-7.85
-12.82
-20.08
-28.49
-37.39
-47.04
-58.26
-72.74
-91.53
-114.68
-141.19
-169.43
-197.72
-224.94
-250.84
-275.89
-301.51
-329.11
-360.15
-395.75
-435.87
-477.96
-516.50
-543.68
-551.81
-536.43
-497.43
-439.65
-371.25
-300.95
-235.38
-177.78
-128.66
-87.45
-53.88
-27.16
-6.29
10.09
23.59
36.16
49.77
66.16
86.21
109.69
136.90
168.01
202.59
239.49
277.18
314.17
348.97
379.97
397.39
392.37
362.06
312.10
252.28
191.04
133.14
80.23
32.40
-10.55
-47.06
-75.23
-93.63
-101.79
-100.22
-90.67
-75.67
-58.14
-40.80
-24.49
-8.89
6.92
20.36
28.76
29.62
21.39
3.97
-20.98
-49.38
-76.03
-95.64
-103.99
-97.72
-74.99
-36.06
15.88
74.48
131.59
179.17
212.08
229.67
235.92
236.95
237.62
239.24
239.17
232.98
216.96
190.16
154.57
114.04
72.63
33.51
-1.15
-30.08
-52.93
-70.69
-85.80
-101.49
-120.52
-143.12
-166.07
-182.89
-185.87
-168.98
-130.47
-73.93
-7.15
60.14
119.44
165.41
196.61
214.80
223.95
229.08
235.14
245.79
261.82
280.41
295.30
298.95
285.36
252.81
204.70
147.99
90.29
37.11
-9.21
-48.76
-82.23
-109.61
-129.93
-142.15
-146.20
-143.51
-136.56
-127.96
-119.64
-112.41
-105.94
-99.15
-90.63
-79.18
-64.47
-47.32
-29.72
-14.02
-2.19
4.86
7.63
7.76
7.24
7.12
7.05
5.22
-0.12
-9.89
-24.03
-41.72
-61.89
-83.61
-106.35
-129.19
-150.73
-168.36
-179.78
-185.00
-187.06
-190.74
-200.24
-217.18
-238.93
-259.57
-270.63
-264.22
-236.06
-186.64
-120.51
-44.72
32.26
102.93
155.02
179.02
174.44
149.20
114.05
77.76
47.29
23.35
5.97
-5.21
-9.93
-8.27
-1.52
8.14
18.98
31.28
46.97
68.63
96.50
127.42
154.55
169.08
164.11
137.83
94.41
41.64
-11.87
-59.78
-97.82
-122.82
-131.81
-121.78
-91.65
-44.08
13.59
71.48
120.37
155.52
177.84
191.83
203.23
214.74
224.76
228.43
220.87
200.02
167.75
128.53
86.40
45.53
8.64
-21.49
-41.30
-46.65
-34.64
-6.29
31.90
67.88
90.58
91.44
67.59
21.92
-38.26
-103.65
-165.71
-212.99
-248.86
-272.09
-281.52
-275.17
-251.59
-211.50
-159.87
-106.51
-64.33
-45.89
-54.38
-83.08
-117.15
-139.89
-139.44
-113.11
-68.19
-13.98
33.83
62.05
66.37
55.32
42.17
35.50
37.66
46.68
54.79
52.54
34.92
2.96
-37.49
-75.38
-97.93
-95.49
-66.74
-20.34
27.52
61.30
72.73
61.15
33.62
-0.15
-31.31
-53.47
-62.07
-54.04
-27.09
19.54
80.25
145.85
204.47
245.76
264.26
261.37
243.29
212.45
183.93
159.16
136.46
111.42
80.01
39.36
-5.08
-41.99
-60.84
-57.48
-37.96
-11.07
15.41
37.35
53.83
66.49
75.59
80.06
79.51
73.51
64.17
54.20
45.67
39.76
36.14
32.73
26.74
16.43
0.66
-19.51
-42.24
-65.81
-89.47
-113.62
-139.88
-170.27
-205.50
-244.34
-282.38
-313.31
-330.92
-331.53
-315.40
-286.81
-252.34
-217.98
-187.27
-160.41
-135.34
-109.49
-81.37
-51.01
-19.65
10.90
39.03
63.50
83.65
99.53
112.17
123.48
136.04
152.13
172.61
195.98
218.35
234.57
240.20
233.83
218.18
199.62
185.93
183.25
193.60
213.93
237.37
255.53
260.95
248.70
217.35
169.39
111.38
53.14
5.53
-22.98
-29.78
-19.72
-3.80
4.68
-4.88
-36.91
-88.69
-152.33
-217.94
-276.80
-322.80
-353.14
-368.11
-370.33
-363.58
-351.00
-333.50
-309.08
-274.01
-225.03
-161.69
-88.24
-13.36
51.40
94.25
105.77
81.06
21.22
-66.16
-167.52
-265.74
-343.76
-389.14
-397.25
-372.10
-324.25
-266.87
-211.78
-166.29
-132.56
-107.99
-87.53
-66.21
-41.30
-13.24
14.64
38.03
53.91
62.08
65.67
69.58
78.23
93.91
116.54
144.27
174.43
203.78
227.97
241.52
238.99
217.39
178.59
129.95
82.36
46.14
27.52
26.68
38.97
57.76
77.54
95.54
111.32
125.39
137.50
146.16
149.02
143.98
130.38
109.80
85.98
64.13
49.82
47.41
59.04
84.01
119.09
159.63
201.15
240.62
276.92
309.75
338.01
358.34
365.07
351.95
315.03
255.03
178.09
94.20
14.03
-54.20
-106.17
-141.26
-161.15
-168.07
-164.52
-153.85
-141.03
-132.67
-134.98
-150.58
-176.07
-202.13
-216.61
-210.21
-181.51
-138.56
-96.15
-69.51
-67.94
-91.29
-130.66
-172.47
-203.62
-215.15
-203.63
-170.38
-120.32
-60.74
-0.30
52.34
90.17
109.55
111.27
100.33
83.99
68.67
57.22
48.03
36.25
16.57
-14.01
-54.04
-97.30
-134.15
-154.94
-152.71
-125.01
-74.18
-7.06
66.10
133.23
182.86
207.69
205.58
179.81
137.72
88.55
41.57
4.69
-16.05
-16.60
5.97
50.45
110.75
176.59
237.11
284.51
315.66
331.06
332.60
323.21
304.16
276.48
242.22
205.18
169.74
138.25
109.84
71.87
19.76
-41.18
-97.12
-135.49
-152.41
-152.20
-141.90
-127.77
-112.67
-95.86
-78.39
-63.19
-54.74
-58.41
-76.55
-107.53
-146.19
-185.65
-218.88
-243.76
-261.84
-276.36
-289.07
-297.79
-297.02
-280.78
-245.78
-186.98
-112.01
-38.15
16.52
43.24
45.19
32.24
14.12
-3.45
-18.75
-33.46
-48.53
-63.14
-74.99
-82.43
-83.51
-77.29
-64.06
-44.72
-21.11
5.33
33.39
61.88
89.75
116.01
139.55
159.60
176.45
188.13
195.35
199.63
201.78
200.54
192.50
173.26
139.99
89.49
27.59
-32.43
-76.91
-99.00
-100.82
-89.95
-74.36
-59.17
-46.27
-35.39
-26.42
-20.14
-17.42
-18.10
-20.49
-22.22
-21.14
-16.30
-8.21
0.46
5.57
2.96
-9.46
-29.91
-52.57
-69.49
-71.32
-52.78
-17.29
23.63
55.54
67.71
57.56
30.45
-4.36
-38.09
-65.14
-84.38
-96.22
-100.68
-97.85
-88.61
-75.62
-63.57
-57.30
-58.48
-65.96
-73.99
-75.33
-65.94
-48.20
-27.12
-9.25
0.93
3.15
1.32
2.10
11.58
32.32
60.91
89.59
107.47
106.24
84.79
49.02
8.62
-25.65
-51.40
-69.09
-79.54
-83.10
-79.23
-66.87
-46.07
-18.76
11.96
42.49
71.37
99.40
128.06
157.71
185.77
206.24
211.88
197.54
162.51
111.77
53.59
-4.06
-55.57
-98.20
-130.70
-151.51
-157.95
-147.61
-119.41
-75.20
-19.82
40.27
98.43
148.58
185.51
205.46
206.27
188.74
156.77
116.66
75.50
39.07
10.33
-10.58
-25.24
-35.37
-41.38
-42.64
-38.46
-29.42
-17.89
-7.56
-1.93
-2.76
-9.39
-19.15
-28.71
-35.61
-39.13
-40.07
-39.99
-40.24
