1679573801.00
64.000000
-0.00
-0.00
-0.00
-0.00
-0.00
-0.00
-0.00
-0.00
-0.00
-0.00
0.00
0.01
0.01
-0.00
-0.03
-0.05
-0.05
0.00
0.13
0.36
0.66
1.01
1.37
1.72
2.06
2.40
2.79
3.24
3.80
4.42
5.06
5.66
6.20
6.68
7.15
7.68
8.31
9.14
10.09
11.04
11.88
12.56
13.14
13.76
14.65
15.96
17.91
20.32
22.90
25.38
27.58
29.57
31.68
34.32
37.81
42.54
48.15
54.10
59.83
64.97
69.58
74.14
79.34
85.71
93.76
103.00
112.62
121.73
129.77
136.75
143.30
150.75
157.77
166.64
177.95
191.79
206.97
220.57
228.25
225.36
208.53
176.87
132.76
80.05
23.07
-34.94
-92.44
-149.16
-205.23
-260.37
-313.74
-363.88
-409.83
-450.90
-486.49
-515.72
-537.19
-549.17
-549.88
-538.26
-514.06
-478.49
-433.64
-382.16
-326.67
-269.44
-212.16
-156.12
-102.35
-51.70
-5.16
36.40
72.32
102.33
126.57
145.54
159.96
170.53
177.88
182.40
184.38
184.05
181.68
177.63
172.30
166.10
159.37
152.36
145.23
138.03
130.81
123.62
116.52
109.57
102.86
96.44
90.32
84.54
79.10
74.02
69.30
64.95
60.99
57.41
54.20
51.37
48.90
46.82
45.10
43.76
42.76
42.10
41.71
41.51
41.39
41.19
40.76
39.91
38.47
36.30
33.31
29.47
24.84
19.48
13.57
7.34
1.04
-5.04
-10.65
-15.59
-19.67
-22.80
-24.94
-26.10
-26.36
-25.84
-24.68
-23.02
-21.00
-18.74
-16.32
-13.82
-11.28
-8.74
-6.22
-3.74
-1.29
1.12
3.54
5.95
8.41
10.95
13.54
16.18
18.87
21.64
24.50
27.50
30.67
34.08
37.78
41.69
45.78
50.00
54.35
58.82
63.44
68.22
73.22
78.54
84.03
89.61
95.23
100.88
106.55
112.24
117.96
123.75
129.67
135.42
140.80
145.59
149.54
152.37
153.70
153.04
149.65
144.86
139.14
132.79
126.01
118.94
111.70
104.42
97.20
90.21
83.61
77.29
71.18
65.28
59.62
54.22
49.12
44.37
40.03
36.19
32.69
29.44
26.40
23.56
20.92
18.55
16.48
14.79
13.56
12.70
12.16
11.85
11.71
11.66
11.61
11.48
11.22
10.82
10.19
9.32
8.23
6.93
5.51
4.01
2.52
1.10
-0.19
-1.33
-2.31
-3.13
-3.80
-4.33
-4.74
-5.07
-5.32
-5.53
-5.72
-5.89
-6.04
-6.16
-6.23
-6.27
-6.30
-6.33
-6.41
-6.53
-6.71
-6.89
-7.06
-7.18
-7.24
-7.26
-7.25
-7.27
-7.32
-7.36
-7.37
-7.29
-7.06
-6.71
-6.31
-5.96
-5.79
-5.87
-6.16
-6.59
-6.99
-7.29
-7.50
-7.76
-8.31
-9.40
-11.12
-13.42
-16.01
-18.58
-20.86
-22.89
-24.99
-27.69
-31.52
-36.75
-43.29
-50.66
-58.23
-65.53
-72.56
-79.82
-88.17
-98.50
-111.24
-126.27
-142.93
-160.29
-177.62
-194.63
-211.61
-229.25
-248.52
-270.55
-296.37
-326.35
-359.62
-393.35
-423.05
-443.54
-450.63
-442.79
-421.65
-391.47
-357.36
-323.56
-292.43
-264.48
-239.22
-216.16
-195.18
-176.37
-159.59
-144.21
-129.33
-114.19
-98.58
-82.93
-68.16
-55.20
-44.55
-36.17
-29.44
-23.49
-17.53
-11.15
-4.42
2.18
8.05
12.77
16.22
18.66
20.53
22.19
23.78
25.16
26.02
26.13
25.46
24.19
22.62
20.96
19.21
17.20
14.69
11.59
8.11
4.73
2.11
0.87
1.38
3.62
7.23
11.58
16.01
20.08
23.58
26.66
29.62
32.83
36.49
40.61
44.87
48.88
52.24
54.68
56.21
57.04
57.47
57.70
57.77
57.54
56.76
55.18
52.72
49.44
45.55
41.38
37.29
33.70
30.98
29.40
29.02
29.58
30.55
31.17
30.83
29.22
26.58
23.52
20.77
18.85
17.76
17.16
16.37
14.89
12.54
9.53
6.34
3.50
1.27
-0.43
-1.95
-3.74
-6.19
-9.43
-13.32
-17.44
-21.17
-23.87
-24.99
-24.11
-21.13
-16.38
-10.46
-4.29
1.24
5.54
8.48
10.38
11.78
13.19
14.77
16.36
17.65
18.32
18.26
17.62
16.64
15.64
14.85
14.42
14.48
15.10
16.20
17.61
18.98
19.95
20.24
19.78
18.79
17.63
16.73
16.35
16.43
16.54
16.03
14.29
11.00
6.36
1.08
-3.88
-7.69
-9.85
-10.49
-10.28
-10.17
-11.12
-13.67
-17.72
-22.51
-26.82
-29.32
-29.14
-26.06
-20.56
-13.64
-6.31
0.66
6.86
12.22
16.76
20.49
23.34
25.27
26.37
26.86
27.10
27.38
27.85
28.54
29.29
29.97
30.47
30.82
31.11
31.49
32.00
32.57
32.95
32.82
31.97
30.41
28.31
26.00
23.80
21.89
20.35
19.06
17.84
16.51
14.92
12.96
10.64
8.05
5.37
2.82
0.62
-1.15
-2.51
-3.57
-4.56
-5.75
-7.36
-9.67
-12.75
-16.40
-20.10
-23.06
-24.52
-24.02
-21.63
-17.89
-13.66
-9.64
-6.27
-3.46
-0.90
1.85
5.06
8.78
12.83
16.88
20.57
23.60
25.75
26.98
27.42
27.30
26.88
26.42
26.09
26.00
26.14
26.37
26.52
26.36
25.72
24.52
22.77
20.57
18.12
15.69
13.53
11.87
10.73
10.05
9.63
9.24
8.69
7.88
6.80
5.53
4.17
2.81
1.52
0.30
-0.90
-2.22
-3.83
-5.86
-8.47
-11.74
-15.69
-20.15
-24.80
-29.05
-32.09
-33.15
-31.77
-28.01
-22.50
-16.25
-10.20
-4.95
-0.59
3.20
6.80
10.44
14.10
17.53
20.46
22.72
24.32
25.40
26.14
26.71
27.13
27.41
27.53
27.49
27.33
27.11
26.88
26.65
26.34
25.86
25.08
24.00
22.71
21.41
20.23
19.18
18.12
16.86
15.30
13.54
11.79
10.24
8.89
7.54
5.89
3.72
1.05
-1.79
-4.40
-6.43
-7.84
-8.87
-9.92
-11.39
-13.54
-16.38
-19.73
-23.20
-26.30
-28.46
-29.21
-28.27
-25.68
-21.79
-17.18
-12.45
-8.01
-4.01
-0.41
2.93
6.06
8.93
11.50
13.69
15.54
17.08
18.38
19.44
20.28
20.95
21.54
22.10
22.72
23.38
24.01
24.50
24.81
24.86
24.66
24.17
23.38
22.40
21.34
20.33
19.39
18.52
17.61
16.60
15.48
14.29
13.06
11.78
10.40
8.82
6.97
4.94
2.88
0.99
-0.58
-1.79
-2.79
-3.82
-5.13
-6.94
-9.36
-12.35
-15.77
-19.32
-22.52
-24.86
-25.86
-25.20
-22.97
-19.53
-15.51
-11.49
-7.86
-4.71
-1.92
0.64
3.04
5.24
7.14
8.73
10.11
11.47
12.94
14.55
16.17
17.61
18.63
19.05
18.79
17.95
16.75
15.49
14.42
13.79
13.64
13.89
14.37
14.88
15.23
15.34
15.16
14.65
13.86
12.86
11.74
10.59
9.43
8.19
6.74
4.92
2.68
0.07
-2.70
-5.39
-7.82
-9.94
-11.87
-13.82
-16.00
-18.52
-21.34
-24.35
-27.24
-29.63
-31.04
-30.98
-29.10
-25.35
-20.09
-14.02
-7.99
-2.70
1.49
4.61
6.93
8.79
10.43
11.90
13.12
13.99
14.49
14.69
14.78
14.90
15.12
15.41
15.70
15.95
16.17
16.46
16.84
17.27
17.58
17.62
17.24
16.40
15.19
13.72
12.15
10.63
9.28
8.26
7.66
7.46
7.53
7.66
7.54
6.98
5.90
4.37
2.49
0.45
-1.59
-3.57
-5.47
-7.37
-9.46
-11.93
-14.88
-18.18
-21.39
-23.83
-24.88
-24.08
-21.40
-17.22
-12.17
-6.95
-2.12
1.97
5.21
7.54
9.09
9.98
10.44
10.71
10.97
11.32
11.74
12.15
12.42
12.54
12.55
12.50
12.47
12.45
12.42
12.38
12.33
12.27
12.21
12.10
11.81
11.27
10.43
9.36
8.21
7.15
6.29
5.55
4.72
3.45
1.45
-1.41
-5.00
-8.98
-12.85
-16.13
-18.56
-20.16
-21.22
-22.18
-23.50
-25.43
-28.03
-31.08
-34.19
-36.89
-38.66
-39.11
-38.01
-35.45
-31.78
-27.61
-23.61
-20.28
-17.68
-15.44
-12.83
-9.12
-3.83
2.96
10.70
18.54
25.58
31.18
35.12
37.62
39.26
40.85
43.14
46.57
51.15
56.38
61.39
65.24
67.18
66.91
64.71
61.30
57.80
55.35
54.82
56.50
59.97
64.14
67.53
68.85
67.34
63.05
56.87
50.15
44.19
39.62
36.23
33.07
29.02
23.42
16.51
9.38
3.43
-0.33
-1.79
-1.70
-1.17
-0.97
-1.02
-0.44
1.94
6.84
14.07
22.48
30.33
35.81
37.57
34.88
27.85
17.19
4.10
-9.89
-23.16
-34.31
-42.46
-47.42
-49.69
-50.21
-50.01
-49.95
-50.57
-52.07
-54.42
-57.33
-60.35
-62.90
-64.42
-64.62
-63.49
-61.43
-59.02
-56.84
-55.26
-54.40
-54.24
-54.67
-55.67
-57.24
-59.40
-62.01
-64.80
-67.22
-68.63
-68.37
-66.01
-61.44
-54.97
-47.27
-39.13
-31.36
-24.45
-18.61
-13.78
-9.73
-6.25
-3.25
-0.67
1.47
3.25
4.79
6.22
7.58
8.87
10.02
11.02
11.94
12.85
13.79
14.64
15.23
15.36
14.95
14.02
12.73
11.18
9.43
7.47
5.33
3.04
0.70
-1.57
-3.75
-5.86
-7.97
-10.20
-12.70
-15.58
-18.99
-23.07
-27.81
-32.98
-38.02
-42.09
-44.30
-44.00
-40.95
-35.51
-28.50
-20.88
-13.58
-7.19
-1.89
2.50
6.41
10.33
14.64
19.41
24.43
29.14
32.92
35.20
35.62
34.04
30.64
25.89
20.62
15.85
12.52
11.10
11.34
12.23
12.54
11.38
8.60
4.56
-0.30
-6.10
-13.43
-23.06
-35.23
-49.32
-63.90
-77.29
-88.10
-95.44
-98.96
-98.58
-94.38
-86.79
-76.76
-65.80
-55.66
-47.73
-42.45
-39.19
-36.41
-32.27
-25.38
-15.26
-2.44
11.90
26.44
40.16
52.39
62.76
70.95
76.70
80.01
81.27
81.28
81.00
81.19
82.12
83.55
85.07
86.34
87.30
88.12
88.90
89.65
90.14
90.05
89.12
87.16
84.14
80.13
75.26
69.73
63.79
57.65
51.44
45.15
38.72
32.08
25.20
18.17
11.14
4.31
-2.07
-7.84
-12.94
-17.54
-22.02
-26.95
-32.82
-39.90
-48.03
-56.51
-64.27
-70.09
-72.91
-72.06
-67.42
-59.48
-49.16
-37.64
-26.00
-15.02
-5.00
4.22
12.95
21.48
29.80
37.68
44.67
50.32
54.28
56.33
56.38
54.50
50.96
46.22
40.90
35.61
30.76
26.45
22.45
18.48
14.41
10.30
6.46
3.30
1.07
-0.16
-0.54
-0.39
-0.06
0.16
0.14
-0.18
-0.75
-1.44
-2.14
-2.71
-3.11
-3.32
-3.41
-3.63
-4.29
-5.78
-8.35
-12.01
-16.38
-20.77
-24.31
-26.14
-25.63
-22.57
-17.16
-9.99
-1.92
6.23
13.75
20.24
25.65
30.23
34.38
38.41
42.42
46.17
49.10
50.59
50.15
47.65
43.44
38.19
32.65
27.42
22.89
19.28
16.78
15.51
15.58
16.84
18.86
21.04
22.79
23.81
24.18
24.29
24.59
25.34
26.50
27.70
28.46
28.37
27.23
25.00
21.86
18.02
13.71
9.16
4.56
0.10
-4.06
-7.85
-11.32
-14.74
-18.50
-22.99
-28.34
-34.29
-40.13
-44.90
-47.76
-48.32
-46.77
-43.83
-40.46
-37.43
-35.14
-33.50
-32.04
-30.24
-27.68
-24.23
-20.01
-15.32
-10.51
-5.82
-1.34
2.99
7.23
11.39
15.37
18.98
22.02
24.37
26.11
27.42
28.51
29.50
30.39
30.98
31.07
30.46
29.10
27.08
24.62
21.99
19.42
17.05
14.86
12.73
10.49
8.04
5.44
2.98
1.09
0.18
0.40
1.55
3.14
4.57
5.40
5.48
4.94
4.00
2.85
1.62
0.55
0.04
0.71
3.10
7.34
13.09
19.57
26.07
32.17
37.97
43.83
49.88
55.71
60.33
62.57
61.68
57.74
51.67
44.85
38.50
33.21
28.83
24.61
19.75
13.70
6.39
-1.84
-10.51
-19.32
-28.18
-37.21
-46.48
-55.76
-64.44
-71.63
-76.43
-78.33
-77.45
-74.46
-70.35
-66.11
-62.36
-59.26
-56.61
-54.04
-51.25
-48.10
-44.63
-40.96
-37.30
-33.86
-30.86
-28.49
-26.80
-25.58
-24.35
-22.41
-19.13
-14.16
-7.63
-0.14
7.49
14.48
20.36
25.06
28.81
31.96
34.80
37.50
40.02
42.15
43.61
44.15
43.70
42.37
40.45
38.32
36.23
34.23
32.15
29.73
26.78
23.28
19.35
15.17
10.97
6.82
2.77
-1.13
-4.83
-8.22
-11.21
-13.79
-16.02
-18.05
-20.04
-22.10
-24.23
-26.36
-28.32
-30.03
-31.42
-32.53
-33.51
-34.61
-36.12
-38.42
-41.78
-46.15
-51.13
-55.91
-59.48
-60.98
-59.96
-56.52
-51.28
-45.15
-38.95
-33.29
-28.43
-24.37
-20.92
-17.85
-14.88
-11.89
-8.80
-5.67
-2.59
0.36
3.14
5.85
8.56
11.38
14.41
17.69
21.23
24.88
28.38
31.23
32.88
32.87
31.09
27.77
23.46
18.76
14.20
10.03
6.34
3.07
0.20
-2.37
-4.65
-6.82
-9.07
-11.50
-14.13
-16.84
-19.52
-22.27
-25.45
-29.49
-34.70
-40.84
-47.11
-52.28
-55.15
-55.05
-52.05
-46.93
-40.79
-34.74
-29.47
-25.28
-22.08
-19.57
-17.39
-15.28
-13.14
-11.02
-9.11
-7.60
-6.61
-6.15
-6.16
-6.52
-7.17
-7.99
-8.88
-9.65
-10.13
-10.26
-10.23
-10.41
-11.30
-13.30
-16.52
-20.81
-25.77
-30.94
-35.92
-40.38
-43.97
-46.36
-47.34
-47.05
-46.17
-45.83
-47.14
-50.70
-56.30
-63.02
-69.65
-75.27
-79.49
-82.33
-83.87
-84.05
-82.68
-79.69
-75.47
-70.96
-67.22
-65.06
-64.65
-65.42
-66.45
-66.82
-65.88
-63.34
-59.14
-53.28
-45.86
-37.23
-28.05
-19.30
-11.91
-6.26
-1.87
2.49
8.31
16.61
27.52
40.24
53.41
65.62
75.76
83.04
86.93
87.20
84.11
78.57
72.21
66.81
63.71
63.27
64.72
66.58
67.50
66.75
64.34
60.61
55.65
49.08
40.28
28.95
15.65
1.91
-10.29
-19.31
-24.41
-26.04
-25.31
-23.41
-20.99
-18.02
-14.01
-8.61
-1.98
5.08
11.35
15.70
17.52
16.93
14.68
11.93
9.79
9.10
10.27
13.17
17.21
21.50
25.14
27.39
27.96
26.91
24.50
21.01
16.58
11.29
5.34
-0.82
-6.54
-11.13
-14.20
-15.88
-16.72
-17.60
-19.34
-22.45
-27.00
-32.60
-38.50
-43.67
-47.04
-47.57
-44.61
-38.01
-28.32
-16.71
-4.73
6.04
14.50
20.29
23.97
26.68
29.76
34.10
39.78
46.03
51.47
54.70
54.82
51.78
46.32
39.76
33.62
29.28
27.82
29.73
34.84
42.13
49.88
56.05
58.87
57.46
52.02
43.81
34.43
25.27
17.05
9.73
2.84
-4.08
-11.23
-18.43
-25.42
-32.03
-38.30
-44.43
-50.50
-56.24
-60.93
-63.59
-63.28
-59.55
-52.74
-43.90
-34.52
-26.05
-19.39
-14.64
-11.22
-8.12
-4.46
0.20
5.69
11.36
16.45
20.42
23.16
24.98
26.35
27.66
28.98
30.14
30.75
30.55
29.54
27.95
26.07
24.02
21.64
18.58
14.61
9.78
4.60
-0.21
-3.98
-6.40
-7.60
-8.04
-8.29
-8.79
-9.69
-11.00
-12.58
-14.35
-16.29
-18.50
-21.16
-24.43
-28.43
-33.06
-37.96
-42.38
-45.39
-46.04
-43.70
-38.35
-30.52
-21.19
-11.43
-2.11
6.35
13.91
20.79
27.23
33.25
38.68
43.21
46.53
48.54
49.40
49.50
49.36
49.38
49.78
50.54
51.51
52.54
53.55
54.47
55.20
55.47
54.89
53.15
50.15
46.12
41.52
36.92
32.66
28.78
25.04
21.12
16.77
11.98
6.99
2.14
-2.18
-5.79
-8.72
-11.38
-14.40
-18.47
-24.12
-31.38
-39.60
-47.51
-53.53
-56.19
-54.61
-48.81
-39.66
-28.68
-17.52
-7.54
0.40
6.09
9.82
12.19
13.89
15.51
17.39
19.59
21.86
23.86
25.29
26.10
26.52
27.03
28.15
30.28
33.60
38.09
43.55
49.59
55.63
60.91
64.70
66.42
65.85
63.19
58.86
53.37
47.14
40.53
33.86
27.54
21.98
17.55
14.33
12.14
10.48
8.76
6.33
2.73
-2.32
-8.85
-16.65
-25.33
-34.29
-42.69
-49.54
-53.84
-54.80
-52.11
-46.10
-37.69
-28.14
-18.81
-10.84
-5.02
-1.82
-1.44
-3.78
-8.37
-14.36
-20.43
-25.09
-26.90
-24.94
-19.28
-11.16
-2.90
2.68
3.07
-3.21
-16.39
-35.45
-58.63
-83.84
-108.98
-132.17
-151.77
-166.60
-176.12
-180.46
-180.22
-176.08
-168.41
-157.05
-141.48
-121.10
-95.57
-65.05
-30.39
6.82
44.36
79.51
109.55
132.29
146.38
151.56
148.52
138.63
123.75
105.91
87.19
69.50
54.24
42.07
32.89
26.01
20.63
16.23
12.78
10.76
10.67
12.72
16.50
21.09
25.43
28.71
30.72
31.84
32.86
34.55
37.37
41.35
46.07
50.92
55.21
58.34
59.93
59.80
58.04
54.87
50.69
45.90
40.88
35.90
31.13
26.63
22.27
17.78
12.83
7.17
0.80
-6.02
-12.81
-19.07
-24.52
-29.15
-33.19
-37.00
-40.83
-44.85
-49.05
-53.28
-57.27
-60.56
-62.62
-62.90
-61.11
-57.36
-52.25
-46.63
-41.36
-36.96
-33.44
-30.40
-27.18
-23.16
-17.95
-11.50
-4.04
4.07
12.59
21.54
31.20
41.80
53.24
64.88
75.74
84.81
91.65
96.61
100.70
105.10
110.50
116.79
123.19
128.63
132.32
134.02
133.94
132.35
129.32
124.58
117.83
109.06
98.72
87.47
75.59
62.59
47.17
27.84
3.92
-23.83
-53.06
-80.53
-103.08
-118.59
-126.33
-126.87
-121.41
-111.15
-96.79
-78.56
-56.70
-31.98
-6.22
17.85
37.13
49.16
52.95
49.27
40.30
28.89
17.67
8.46
2.18
-1.10
-1.95
-1.27
-0.02
1.09
1.89
2.83
4.73
8.59
15.29
25.41
38.90
54.70
70.56
83.19
89.37
87.36
78.18
65.67
55.20
51.25
55.11
64.18
72.98
75.63
68.32
50.54
24.58
-6.00
-37.99
-69.40
-99.15
-126.46
-150.32
-169.50
-183.23
-191.76
-196.57
-199.83
-203.53
-208.50
-214.26
-219.27
-221.82
-220.83
-216.37
-209.51
-201.70
-193.88
-185.99
-176.91
-165.04
-149.06
-128.77
-105.45
-81.68
-60.73
-45.58
-37.96
-37.73
-42.76
-49.57
-54.41
-54.40
-48.45
-37.49
-24.03
-11.22
-1.80
2.72
2.24
-2.34
-9.61
-18.28
-27.49
-36.74
-45.66
-53.64
-59.80
-63.16
-63.01
-59.25
-52.39
-43.33
-32.99
-21.89
-10.02
3.07
18.10
35.78
56.52
80.31
106.51
133.81
160.41
184.22
203.30
216.23
222.35
221.92
215.85
205.54
192.51
178.23
163.91
150.52
138.67
128.59
120.14
112.90
106.24
99.55
92.35
84.55
76.52
69.20
63.83
61.57
63.06
68.03
75.25
82.86
88.90
91.96
91.49
87.74
81.41
73.29
63.84
53.25
41.59
29.12
16.51
4.82
-4.72
-11.12
-13.88
-13.19
-9.87
-5.04
0.09
4.50
7.52
8.81
8.24
5.92
2.11
-2.80
-8.30
-13.86
-19.05
-23.52
-27.12
-29.88
-31.95
-33.47
-34.53
-35.01
-34.70
-33.33
-30.82
-27.30
-23.16
-18.79
-14.42
-10.08
-5.73
-1.61
1.63
2.91
1.06
-4.63
-14.11
-26.37
-39.81
-52.60
-63.16
-70.47
-74.15
-74.43
-72.00
-67.79
-62.73
-57.49
-52.35
-47.19
-41.63
-35.27
-27.83
-19.35
-10.12
-0.71
8.19
15.95
22.19
26.93
30.52
33.56
36.54
39.67
42.71
45.20
46.56
46.36
44.41
40.86
36.00
30.18
23.73
16.92
10.00
3.29
-2.83
-7.96
-11.82
-14.33
-15.79
-16.81
-18.12
-20.41
-24.03
-28.99
-34.97
-41.50
-48.01
-53.89
-58.59
-61.63
-62.71
-61.81
-59.08
-54.86
-49.48
-43.21
-36.23
-28.81
-21.38
-14.53
-8.86
-4.78
-2.25
-0.87
0.02
0.98
2.28
3.85
5.47
6.99
8.63
10.98
14.79
20.63
28.59
38.08
47.92
56.67
63.09
66.41
66.58
64.19
60.25
55.86
51.95
49.03
47.26
46.40
45.84
44.66
41.69
35.90
26.74
14.64
1.00
-12.24
-23.24
-30.93
-35.16
-36.55
-35.86
-33.70
-30.28
-25.75
-20.38
-14.77
-9.59
-5.34
-2.16
0.19
2.12
4.04
6.21
8.84
12.09
16.14
21.15
27.03
33.41
39.52
44.41
47.25
47.70
46.16
43.76
41.91
41.70
43.38
46.16
48.44
48.56
45.42
38.90
29.72
18.98
7.65
-3.76
-15.16
-26.55
-37.72
-48.21
-57.43
-64.92
-70.54
-74.38
-76.64
-77.43
-76.81
-74.79
-71.48
-67.12
-62.04
-56.53
-50.81
-45.03
-39.31
-33.80
-28.71
-24.20
-20.36
-17.14
-14.42
-11.99
-9.72
-7.51
-5.25
-2.78
0.15
3.83
8.47
14.04
20.05
25.56
29.41
30.56
28.53
23.64
17.01
10.22
4.75
1.57
0.85
2.10
4.43
7.07
9.68
12.41
15.73
20.11
25.61
31.77
37.72
42.45
45.15
45.42
43.26
39.00
33.37
27.54
23.08
21.64
24.31
30.92
39.73
47.77
51.84
49.65
40.65
25.97
7.79
-11.47
-29.85
-45.96
-58.76
-67.44
-71.65
-71.67
-68.61
-64.20
-60.11
-57.29
-55.51
-53.56
-49.92
-43.57
-34.66
-24.41
-14.81
-7.87
-4.99
-6.63
-12.22
-20.35
-29.18
-36.92
-42.27
-44.73
-44.68
-43.09
-41.13
-39.62
-38.96
-39.02
-39.47
-40.13
-41.05
-42.39
-44.14
-45.92
-46.94
-46.24
-43.03
-37.09
-28.86
-19.30
-9.50
-0.27
7.97
15.19
21.52
27.04
31.61
35.00
37.06
37.91
38.01
37.96
38.29
39.20
40.50
41.73
42.39
42.28
41.52
40.57
39.87
39.56
39.40
38.80
37.13
33.94
29.21
23.34
16.95
10.72
5.08
0.16
-4.18
-8.27
-12.39
-16.68
-21.00
-25.07
-28.60
-31.42
-33.50
-34.99
-36.01
-36.62
-36.71
-36.12
-34.63
-32.07
-28.32
-23.40
-17.51
-10.97
-4.15
2.59
9.09
15.34
21.43
27.38
33.00
37.88
41.58
43.80
44.48
43.81
42.20
40.03
37.67
35.41
33.48
32.00
31.00
30.26
29.44
28.20
26.26
23.57
20.25
16.58
12.81
9.20
5.90
2.97
0.50
-1.52
-3.10
-4.29
-5.14
-5.73
-6.16
-6.55
-7.03
-7.76
-8.92
-10.63
-12.91
-15.56
-18.13
-19.92
-20.16
-18.24
-13.93
-7.52
0.25
8.38
15.92
22.15
26.80
29.89
31.70
32.51
32.54
31.86
30.55
28.70
26.56
24.43
22.54
20.98
19.60
18.13
16.30
13.95
11.13
7.94
4.50
0.87
-2.94
-6.89
-10.95
-15.00
-18.98
-22.82
-26.52
-30.08
-33.48
-36.69
-39.68
-42.39
-44.80
-46.97
-49.07
-51.39
-54.21
-57.75
-61.91
-66.19
-69.78
-71.72
-71.25
-68.02
-62.20
-54.45
-45.57
-36.34
-27.33
-18.87
-11.09
-4.03
2.30
7.92
12.80
16.87
20.12
22.54
24.21
25.28
25.94
26.31
26.40
26.15
25.51
24.46
23.07
21.37
19.39
17.10
14.46
11.47
8.17
4.59
0.76
-3.27
-7.38
-11.30
-14.67
-17.22
-18.85
-19.72
-20.16
-20.53
-21.08
-21.93
-23.01
-24.08
-24.76
-24.50
-22.72
-19.08
-13.59
-6.75
0.69
7.85
14.10
18.98
22.36
24.21
24.61
23.75
21.93
19.55
17.00
14.57
12.40
10.53
9.02
7.94
7.39
7.45
8.12
9.33
10.98
13.00
15.36
18.07
21.13
24.45
27.88
31.18
34.11
36.51
38.32
39.62
40.59
41.43
42.32
43.22
43.94
44.10
43.20
40.76
36.36
29.79
21.18
11.03
0.14
-10.56
-20.28
-28.63
-35.64
-41.56
-46.51
-50.24
-52.11
-51.35
-47.56
-40.97
-32.47
-23.35
-14.80
-7.57
-1.81
2.74
6.55
9.97
13.28
16.63
20.14
23.99
28.31
33.10
38.14
43.00
47.07
49.80
50.81
49.95
47.36
43.31
38.00
31.49
23.74
14.72
4.65
-5.94
-16.34
-25.94
-34.49
-42.21
-49.68
-57.40
-65.48
-73.38
-80.05
-84.24
-84.90
-81.59
-74.57
-64.67
-53.03
-40.84
-29.06
-18.41
-9.31
-1.88
3.95
8.44
11.97
14.95
17.78
20.77
24.08
27.73
31.63
35.62
39.65
43.79
48.15
52.80
57.54
61.86
65.00
66.19
65.01
61.55
56.51
50.90
45.71
41.59
38.70
36.75
35.23
33.63
31.54
28.65
24.72
19.60
13.20
5.61
-2.91
-12.04
-21.45
-30.89
-40.04
-48.50
-55.59
-60.56
-62.77
-61.96
-58.42
-52.88
-46.31
-39.71
-33.90
-29.50
-26.81
-25.82
-26.18
-27.22
-28.11
-28.10
-26.72
-23.83
-19.58
-14.26
-8.23
-1.79
4.74
11.11
17.05
22.35
26.86
30.54
33.43
35.64
37.34
38.75
40.07
41.35
42.48
43.19
43.15
42.06
39.77
36.30
31.82
26.60
20.93
15.06
9.22
3.54
-1.93
-7.21
-12.32
-17.22
-21.73
-25.41
-27.72
-28.14
-26.38
-22.53
-17.10
-10.89
-4.79
0.43
4.36
6.89
8.18
8.52
8.17
7.27
5.84
3.90
1.57
-0.88
-3.10
-4.75
-5.69
-5.96
-5.79
-5.44
-5.10
-4.85
-4.67
-4.55
-4.48
-4.49
-4.56
-4.56
-4.27
-3.41
-1.79
0.62
3.55
6.58
9.14
10.74
11.03
9.97
7.71
4.56
0.90
-2.97
-6.88
-10.85
-15.00
-19.48
-24.24
-28.93
-32.86
-35.17
-35.14
-32.44
-27.32
-20.51
-12.98
-5.58
1.16
7.02
11.99
16.11
19.31
21.40
22.17
21.52
19.59
16.76
13.56
10.62
8.36
6.98
6.41
6.44
6.85
7.47
8.17
8.67
8.55
7.27
4.38
-0.24
-6.25
-12.98
-19.69
-25.75
-30.90
-35.08
-38.41
-40.95
-42.62
-43.28
-42.86
-41.38
-39.00
-36.00
-32.78
-29.79
-27.49
-26.22
-26.06
-26.72
-27.60
-27.92
-27.05
-24.64
-20.87
-16.28
-11.60
-7.50
-4.42
-2.43
-1.30
-0.61
0.06
1.07
2.54
4.48
6.77
9.31
12.13
15.23
18.64
22.31
26.05
29.61
32.75
35.32
37.29
38.71
39.53
39.71
39.12
37.73
35.66
33.18
30.70
28.42
26.35
24.19
21.52
18.07
13.81
9.02
4.09
-0.60
-4.85
-8.66
-12.16
-15.57
-19.10
-22.92
-27.08
-31.36
-35.28
-38.21
-39.60
-39.28
-37.58
-35.15
-32.70
-30.63
-29.01
-27.71
-26.66
-25.88
-25.45
-25.25
-24.78
-23.30
-20.14
-15.08
-8.47
-1.07
6.31
13.11
19.16
24.59
29.55
34.08
38.04
41.23
43.56
45.04
45.78
45.85
45.14
43.42
40.44
36.14
30.73
24.66
18.44
12.48
6.89
1.43
-4.32
-10.84
-18.48
-27.35
-37.25
-47.71
-57.95
-67.02
-73.93
-77.93
-78.68
-76.40
-71.81
-65.91
-59.66
-53.74
-48.51
-44.02
-40.22
-37.04
-34.52
-32.65
-31.33
-30.32
-29.24
-27.73
-25.59
-22.84
-19.80
-16.97
-14.86
-13.80
-13.83
-14.69
-15.99
-17.38
-18.68
-19.96
-21.40
-23.14
-25.09
-26.99
-28.48
-29.28
-29.32
-28.73
-27.80
-26.87
-26.27
-26.30
-27.25
-29.28
-32.22
-35.37
-37.44
-36.75
-31.74
-21.56
-6.50
12.03
31.87
50.99
68.05
82.83
96.11
109.17
123.19
138.79
155.89
173.66
190.82
205.78
216.88
222.68
222.22
215.31
202.55
185.34
165.44
144.67
124.51
105.95
89.39
74.81
61.88
50.10
38.88
27.71
16.23
4.24
-8.15
-20.73
-33.19
-45.23
-56.64
-67.30
-77.13
-86.10
-94.21
-101.48
-107.86
-113.25
-117.32
-119.66
-119.79
-117.49
-112.92
-106.65
-99.56
-92.45
-85.88
-79.91
-74.21
-68.30
-61.83
-54.83
-47.71
-41.07
-35.38
-30.82
-27.15
-23.88
-20.42
-16.36
-11.58
-6.19
-0.43
5.49
11.40
17.16
22.64
27.65
32.12
36.10
39.82
43.54
47.53
51.79
56.06
59.77
62.21
62.78
61.21
57.69
52.76
47.03
40.79
33.98
26.14
16.74
5.58
-7.05
-20.40
-33.47
-45.32
-55.27
-62.84
-67.68
-69.55
-68.33
-64.22
-57.88
-50.30
-42.61
-35.73
-30.08
-25.57
-21.74
-18.08
-14.33
-10.58
-7.21
-4.68
-3.37
-3.39
-4.64
-6.87
-9.75
-12.97
-16.22
-19.23
-21.80
-23.73
-24.83
-24.93
-23.86
-21.55
-18.06
-13.63
-8.52
-2.97
2.89
8.95
15.03
20.83
25.97
30.14
33.27
35.64
37.68
39.77
42.10
44.49
46.65
48.26
49.10
49.18
48.60
47.54
46.13
44.44
42.49
40.15
37.34
34.07
30.57
27.32
24.88
23.69
23.80
24.81
26.00
26.55
25.82
23.55
19.76
14.69
8.69
2.11
-4.72
-11.38
-17.44
-22.59
-26.61
-29.50
-31.37
-32.41
-32.76
-32.58
-31.95
-30.97
-29.75
-28.39
-26.98
-25.54
-24.10
-22.71
-21.50
-20.61
-20.20
-20.29
-20.75
-21.40
-22.06
-22.70
-23.41
-24.38
-25.76
-27.59
-29.74
-31.98
-34.13
-36.05
-37.74
-39.23
-40.60
-41.87
-43.09
-44.24
-45.29
-46.21
-46.93
-47.28
-46.96
-45.53
-42.44
-37.24
-29.66
-19.77
-7.96
5.20
18.96
32.69
45.86
58.10
69.21
79.03
87.40
94.12
98.91
101.57
102.05
100.61
97.69
93.79
89.21
83.90
77.51
69.58
59.83
48.33
35.57
22.37
9.54
-2.12
-12.09
-20.10
-26.17
-30.52
-33.57
-35.73
-37.40
-38.83
-40.19
-41.50
-42.74
-43.88
-44.93
-45.89
-46.72
-47.25
-47.22
-46.32
-44.44
-41.83
-39.22
-37.77
-38.82
-43.45
-52.18
-64.72
-79.95
-96.24
-111.87
-125.43
-136.22
-144.22
-150.07
-154.75
-159.27
-164.24
-169.70
-175.13
-179.51
-181.69
-180.59
-175.39
-165.44
-150.27
-129.57
-103.33
-72.03
-36.86
0.37
37.48
72.33
103.12
128.54
147.79
160.55
166.96
167.47
162.85
153.95
141.40
125.63
106.77
84.99
60.81
35.17
9.41
-15.07
-37.29
-56.83
-73.90
-89.10
-102.92
-115.39
-125.92
-133.42
-136.80
-135.44
-129.57
-120.13
-108.33
-95.20
-81.16
-65.98
-49.20
-30.40
-9.66
12.56
35.57
58.71
81.64
104.30
126.68
148.56
169.33
187.93
203.15
213.94
219.78
220.94
218.35
213.37
207.33
201.19
195.34
189.74
184.06
178.02
171.43
164.28
156.51
147.97
138.42
127.64
115.65
102.85
89.98
77.96
67.53
58.97
51.98
45.73
39.29
31.94
23.53
14.44
5.33
-3.15
-10.78
-17.67
-24.25
-30.81
-37.40
-43.66
-49.19
-53.62
-56.93
-59.32
-61.10
-62.49
-63.46
-63.77
-63.04
-60.83
-56.85
-51.02
-43.53
-34.89
-25.87
-17.30
-9.91
-4.05
0.35
3.73
6.68
9.84
13.80
19.08
26.09
35.11
46.08
58.59
71.81
84.63
95.88
104.49
109.74
111.22
108.90
103.06
94.29
83.27
70.74
57.22
43.02
28.12
12.33
-4.56
-22.54
-41.26
-60.02
-77.98
-94.43
-109.00
-121.66
-132.70
-142.39
-150.93
-158.38
-164.73
-170.13
-174.99
-179.85
-185.13
-190.77
-195.98
-199.37
-199.28
-194.37
-184.09
-169.03
-150.63
-130.81
-111.26
-92.94
-75.96
-59.72
-43.26
-25.58
-5.97
15.68
38.78
61.96
83.33
101.10
114.16
122.52
127.19
129.62
131.04
131.94
132.19
131.34
129.31
126.53
123.79
121.79
120.82
120.67
120.88
121.10
121.27
121.54
122.06
122.76
123.18
122.68
120.62
116.73
111.16
104.39
97.04
89.46
81.58
72.91
62.75
50.49
35.85
19.12
0.99
-17.60
-35.83
-53.14
-69.32
-84.34
-98.08
-110.14
-119.81
-126.28
-129.03
-128.12
-124.26
-118.59
-112.24
-105.96
-99.87
-93.68
-87.00
-79.61
-71.69
-63.66
-55.97
-48.94
-42.64
-36.93
-31.64
-26.67
-21.94
-17.47
-13.30
-9.46
-6.05
-3.16
-0.81
1.07
2.65
4.15
5.70
7.24
8.57
9.40
9.57
9.06
8.05
6.74
5.26
3.60
1.63
-0.78
-3.60
-6.66
-9.78
-12.84
-15.83
-18.82
-21.79
-24.63
-27.21
-29.43
-31.38
-33.38
-35.76
-38.72
-42.09
-45.35
-47.76
-48.66
-47.62
-44.69
-40.26
-34.91
-29.25
-23.75
-18.76
-14.42
-10.80
-7.78
-5.18
-2.77
-0.40
1.89
3.83
4.97
5.03
3.96
2.02
-0.41
-3.04
-5.90
-9.21
-13.26
-18.19
-23.84
-30.00
-36.44
-43.18
-50.41
-58.48
-67.63
-78.01
-89.56
-102.08
-115.26
-128.62
-141.42
-152.83
-162.02
-168.56
-172.55
-174.63
-175.58
-176.05
-176.06
-175.16
-172.68
-168.14
-161.55
-153.32
-143.97
-133.78
-122.65
-110.20
-95.98
-79.70
-61.11
-40.02
-16.30
9.79
37.45
65.32
91.83
115.81
136.81
155.23
171.80
187.02
200.71
212.05
219.97
223.74
223.37
219.58
213.59
206.51
199.15
191.78
184.32
176.55
168.34
159.86
151.44
143.37
135.72
128.25
120.59
112.40
103.63
94.56
85.67
77.42
70.06
63.56
57.62
51.84
45.87
39.51
32.71
25.64
18.50
11.50
4.82
-1.44
-7.16
-12.26
-16.64
-20.26
-23.19
-25.65
-27.98
-30.50
-33.51
-37.03
-40.84
-44.44
-47.11
-48.17
-47.12
-43.94
-39.07
-33.37
-27.72
-22.85
-19.04
-16.12
-13.69
-11.31
-8.75
-5.99
-3.27
-0.85
0.98
2.11
2.60
2.62
2.43
2.25
2.25
2.54
3.22
4.34
5.84
7.62
9.42
11.00
12.15
12.85
13.16
13.20
13.10
12.89
12.59
12.17
11.76
11.51
11.57
11.95
12.50
12.99
13.17
12.94
12.25
11.16
9.67
7.76
5.40
2.60
-0.58
-4.10
-7.93
-12.21
-17.03
-22.33
-27.74
-32.58
-36.02
-37.39
-36.38
-33.09
-28.04
-22.01
-15.82
-10.12
-5.33
-1.56
1.35
3.72
5.87
8.00
10.04
11.72
12.70
12.61
11.29
8.81
5.45
1.72
-1.75
-4.40
-5.84
-6.01
-5.17
-3.83
-2.57
-1.75
-1.52
-1.71
-2.07
-2.32
-2.34
-2.14
-1.80
-1.39
-1.01
-0.70
-0.48
-0.38
-0.47
-0.78
-1.33
-2.12
-3.14
-4.42
-6.01
-7.93
-10.18
-12.62
-15.04
-17.27
-19.22
-21.00
-22.78
-24.85
-27.40
-30.58
-34.36
-38.61
-43.06
-47.27
-50.80
-53.22
-54.37
-54.38
-53.65
-52.54
-51.12
-49.04
-45.58
-39.99
-31.86
-21.41
-9.38
3.18
15.27
26.25
35.86
44.10
51.04
56.65
60.89
63.61
64.77
64.42
62.75
60.08
56.83
53.43
50.27
47.63
45.55
43.94
42.62
41.35
39.96
38.38
36.58
34.60
32.51
30.37
28.29
26.36
24.59
22.92
21.12
18.88
15.89
11.88
6.76
0.69
-5.95
-12.70
-19.08
-24.72
-29.44
-33.14
-35.90
-37.88
-39.32
-40.56
-42.02
-44.13
-47.18
-51.28
-56.12
-61.04
-65.11
-67.35
-67.00
-63.80
-58.03
-50.50
-42.30
-34.43
-27.52
-21.66
-16.54
-11.70
-6.77
-1.68
3.31
7.88
11.78
15.02
17.82
20.51
23.31
26.30
29.37
32.33
35.03
37.38
39.41
41.18
42.80
44.31
45.68
46.88
47.81
48.43
48.75
48.91
49.13
49.72
51.03
53.23
56.29
59.76
62.84
64.53
63.88
60.33
53.78
44.68
33.74
21.79
9.50
-2.65
-14.39
-25.66
-36.54
-47.12
-57.34
-66.80
-74.74
-80.22
-82.38
-80.84
-75.91
-68.48
-59.78
-50.99
-42.99
-36.35
-31.32
-27.92
-25.87
-24.67
-23.62
-22.05
-19.55
-16.15
-12.25
-8.40
-5.02
-2.23
0.14
2.37
4.70
7.19
9.76
12.26
14.47
16.18
17.22
17.50
17.09
16.17
14.98
13.73
12.55
11.44
10.38
9.30
8.10
6.63
4.73
2.28
-0.68
-3.92
-7.11
-9.96
-12.27
-14.14
-15.87
-17.88
-20.61
-24.38
-29.33
-35.29
-41.73
-47.79
-52.42
-54.65
-53.89
-50.20
-44.24
-37.06
-29.78
-23.21
-17.66
-13.00
-8.86
-4.87
-0.87
3.07
6.74
9.91
12.52
14.61
16.34
17.90
19.45
21.04
22.70
24.45
26.30
28.27
30.31
32.32
34.18
35.82
37.28
38.67
39.99
41.17
41.96
42.10
41.49
40.19
38.51
36.77
35.17
33.69
32.06
29.95
27.12
23.54
19.40
14.98
10.59
6.40
2.38
-1.65
-5.95
-10.84
-16.41
-22.54
-28.79
-34.49
-38.87
-41.30
-41.50
-39.62
-36.26
-32.20
-28.14
-24.53
-21.44
-18.74
-16.17
-13.57
-10.86
-8.03
-5.21
-2.51
-0.16
1.66
2.86
3.55
3.94
4.31
4.80
5.43
6.27
7.60
9.94
13.69
18.81
24.39
29.01
31.25
30.33
26.61
21.30
15.97
11.72
8.92
7.18
5.89
4.65
3.37
2.26
1.42
0.70
-0.22
-1.68
-3.86
-6.68
-9.92
-13.45
-17.27
-21.68
-27.01
-33.38
-40.41
-47.16
-52.33
-54.59
-53.16
-47.95
-39.78
-29.97
-19.96
-10.82
-3.07
3.39
9.05
14.41
19.82
25.30
30.60
35.35
39.22
42.10
44.12
45.64
47.03
48.61
50.48
52.58
54.72
56.68
58.29
59.39
59.89
59.61
58.43
56.26
53.09
49.11
44.72
40.43
36.79
34.19
32.60
31.65
30.54
28.41
24.60
18.93
11.74
3.71
-4.37
-11.97
-18.93
-25.36
-31.65
-38.12
-45.04
-52.47
-60.23
-67.93
-74.88
-80.19
-82.93
-82.39
-78.37
-71.37
-62.43
-52.81
-43.61
-35.41
-28.15
-21.35
-14.43
-7.06
0.69
8.39
15.49
21.53
26.35
30.12
33.16
35.87
38.52
41.22
43.92
46.53
48.96
51.13
52.99
54.35
54.99
54.66
53.22
50.72
47.42
43.68
39.89
36.32
33.05
30.03
27.13
24.16
20.94
17.35
13.28
8.74
3.78
-1.44
-6.72
-11.87
-16.69
-21.14
-25.33
-29.57
-34.28
-39.86
-46.44
-53.81
-61.43
-68.45
-74.05
-77.48
-78.35
-76.64
-72.61
-66.77
-59.64
-51.60
-42.77
-33.10
-22.57
-11.42
-0.31
9.91
18.45
24.99
29.76
33.43
36.74
40.19
43.86
47.55
51.01
54.01
56.51
58.48
59.74
60.06
59.19
57.09
53.91
50.15
46.35
43.05
40.52
38.70
37.27
35.70
33.52
30.39
26.26
21.39
16.18
11.08
6.37
2.09
-1.97
-6.06
-10.34
-14.73
-18.96
-22.74
-25.90
-28.57
-31.12
-34.05
-37.77
-42.44
-47.88
-53.59
-58.77
-62.50
-63.90
-62.37
-57.81
-50.74
-42.12
-33.08
-24.58
-17.14
-10.79
-5.24
-0.06
5.08
10.26
15.31
19.92
23.73
26.52
28.30
29.36
30.10
30.92
32.04
33.47
35.02
36.54
37.89
39.04
40.01
40.71
40.94
40.41
38.97
36.60
33.57
30.35
27.37
24.89
22.90
21.14
19.27
17.03
14.28
11.09
7.63
4.12
0.72
-2.54
-5.68
-8.83
-12.19
-15.99
-20.42
-25.55
-31.16
-36.69
-41.33
-44.12
-44.37
-41.83
-36.82
-30.17
-22.92
-15.99
-9.88
-4.66
-0.09
4.16
8.26
12.19
15.73
18.65
20.81
22.25
23.09
23.56
23.77
23.84
23.86
23.91
24.07
24.36
24.74
25.05
25.07
24.62
23.65
22.20
20.42
18.53
16.67
14.94
13.37
11.95
10.65
9.40
8.12
6.65
4.91
2.82
0.40
-2.29
-5.22
-8.37
-11.74
-15.28
-18.91
-22.49
-25.90
-29.15
-32.39
-35.89
-39.91
-44.52
-49.44
-54.03
-57.37
-58.64
-57.25
-53.17
-46.87
-39.24
-31.29
-23.85
-17.42
-12.04
-7.47
-3.32
0.74
4.89
9.05
12.98
16.38
19.01
20.85
22.07
22.97
23.86
24.92
26.17
27.49
28.75
29.81
30.70
31.38
31.81
31.86
31.36
30.20
28.42
26.20
23.80
21.46
19.33
17.46
15.83
14.41
13.13
11.94
10.68
9.25
7.57
5.64
3.57
1.46
-0.66
-2.92
-5.46
-8.43
-11.79
-15.34
-18.76
-21.79
-24.29
-26.29
-27.93
-29.49
-31.25
-33.58
-36.75
-40.88
-45.67
-50.41
-54.05
-55.52
-54.17
-49.92
-43.38
-35.60
-27.68
-20.49
-14.48
-9.62
-5.63
-2.14
1.16
4.44
7.72
10.88
13.79
16.29
18.25
19.60
20.36
20.65
20.66
20.67
20.91
21.53
22.47
23.50
24.28
24.49
23.89
22.47
20.37
17.87
15.24
12.71
10.41
8.41
6.68
5.13
3.58
1.87
-0.17
-2.67
-5.66
-8.97
-12.40
-15.64
-18.47
-20.83
-22.88
-24.93
-27.32
-30.17
-33.26
-36.04
-37.84
-38.12
-36.78
-34.25
-31.47
-29.51
-29.32
-31.39
-35.61
-41.34
-47.48
-52.66
-55.42
-54.52
-49.32
-40.16
-28.42
-16.27
-6.00
0.75
3.55
3.33
1.90
1.13
2.29
5.69
10.76
16.50
21.91
26.30
29.35
30.92
31.02
29.75
27.35
24.32
21.35
19.23
18.58
19.61
22.09
25.30
28.29
30.23
30.65
29.55
27.38
24.74
22.09
19.61
17.23
14.73
11.99
9.00
5.90
2.86
-0.02
-2.74
-5.27
-7.56
-9.54
-11.19
-12.60
-14.04
-15.87
-18.41
-21.86
-26.11
-30.74
-35.01
-38.03
-38.97
-37.40
-33.36
-27.46
-20.65
-13.95
-8.08
-3.38
0.23
3.07
5.56
8.02
10.61
13.34
16.07
18.59
20.70
22.34
23.54
24.47
25.32
26.14
26.90
27.46
27.68
27.45
26.75
25.59
24.01
22.05
19.83
17.47
15.20
13.16
11.50
10.27
9.44
8.91
8.51
8.08
7.43
6.34
4.64
2.22
-0.96
-4.84
-9.34
-14.33
-19.74
-25.40
-31.14
-36.68
-41.73
-46.07
-49.67
-52.63
-55.10
-57.12
-58.49
-58.80
-57.55
-54.48
-49.68
-43.75
-37.57
-32.10
-28.05
-25.70
-24.95
-25.54
-27.21
-29.55
-31.95
-33.29
-32.21
-27.69
-19.77
-9.97
-0.98
4.47
4.81
0.28
-7.31
-15.66
-23.12
-29.13
-33.95
-37.86
-40.49
-40.91
-38.21
-32.31
-24.09
-15.07
-6.60
0.71
6.98
12.70
18.05
22.55
25.21
24.97
21.34
14.79
6.76
-0.84
-6.20
-8.39
-7.59
-4.97
-2.04
-0.02
0.58
-0.06
-1.43
-2.93
-4.07
-4.34
-3.07
0.44
6.46
14.36
22.51
28.72
31.21
29.41
24.27
17.88
12.67
10.49
12.24
17.93
27.01
38.84
52.74
67.78
82.55
95.19
103.86
107.44
106.12
101.38
95.51
90.78
88.70
89.54
92.56
96.47
99.90
101.73
101.19
97.77
91.31
82.00
70.44
57.51
44.19
31.32
19.46
8.92
-0.26
-8.15
-14.94
-20.80
-25.94
-30.46
-34.29
-37.27
-39.17
-39.97
-39.94
-39.65
-39.71
-40.49
-41.83
-43.08
-43.34
-41.88
-38.57
-33.92
-28.88
-24.32
-20.75
-18.06
-15.74
-13.22
-10.25
-7.02
-4.09
-2.16
-1.69
-2.83
-5.32
-8.65
-12.19
-15.37
-17.73
-18.92
-18.79
-17.28
-14.52
-10.88
-6.92
-3.36
-0.83
0.21
-0.31
-2.12
-4.80
-7.89
-11.12
-14.39
-17.79
-21.39
-25.29
-29.46
-33.79
-38.11
-42.16
-45.73
-48.70
-51.16
-53.32
-55.52
-57.97
-60.57
-62.88
-64.18
-63.65
-60.70
-55.20
-47.60
-38.79
-29.80
-21.54
-14.59
-9.07
-4.78
-1.29
1.84
4.99
8.35
11.90
15.43
18.63
21.26
23.25
24.82
26.30
27.91
29.54
30.76
31.02
29.97
27.63
24.39
20.77
17.14
13.58
9.93
6.00
1.81
-2.50
-6.65
-10.44
-13.81
-16.77
-19.31
-21.30
-22.60
-23.07
-22.72
-21.77
-20.57
-19.58
-19.27
-20.08
-22.27
-25.82
-30.24
-34.59
-37.65
-38.24
-35.68
-30.02
-22.04
-12.95
-3.99
3.97
10.62
16.03
20.55
24.48
28.02
31.16
33.82
35.80
36.88
36.83
35.53
33.06
29.78
26.30
23.27
21.18
20.24
20.28
20.85
21.42
21.52
20.86
19.37
17.15
14.43
11.53
8.71
6.13
3.78
1.53
-0.81
-3.32
-5.92
-8.35
-10.37
-11.92
-13.25
-14.86
-17.36
-21.25
-26.69
-33.40
-40.67
-47.45
-52.61
-55.20
-54.66
-50.99
-44.75
-36.90
-28.54
-20.60
-13.62
-7.74
-2.77
1.60
5.57
9.21
12.36
14.89
16.75
18.16
19.45
20.96
22.76
24.59
25.99
26.50
25.92
24.50
22.76
21.31
20.56
20.58
21.17
21.88
22.19
21.52
19.27
15.02
8.64
0.46
-8.65
-17.56
-25.16
-30.81
-34.57
-37.11
-39.43
-42.41
-46.53
-51.76
-57.74
-64.07
-70.51
-77.07
-83.85
-90.78
-97.35
-102.54
-105.02
-103.46
-96.97
-85.37
-69.31
-50.18
-29.88
-10.39
6.53
19.79
29.10
34.97
38.55
41.16
43.97
47.71
52.63
58.64
65.44
72.67
79.90
86.53
91.96
95.75
97.91
98.94
99.65
100.74
102.31
103.60
103.22
99.55
91.45
78.55
61.38
41.30
20.09
-0.23
-17.78
-31.05
-39.29
-42.84
-43.07
-42.00
-41.48
-42.56
-45.06
-47.79
-49.22
-48.16
-44.31
-38.15
-30.59
-22.28
-13.31
-3.19
8.75
22.80
38.47
54.38
68.66
79.48
85.76
87.39
85.20
80.46
74.35
67.63
60.53
53.05
45.21
37.26
29.63
22.72
16.78
11.70
7.18
2.88
-1.38
-5.59
-9.48
-12.76
-15.18
-16.73
-17.68
-18.46
-19.50
-20.97
-22.75
-24.40
-25.53
-25.96
-25.86
-25.77
-26.23
-27.64
-30.02
-32.98
-36.00
-38.61
-40.67
-42.37
-44.19
-46.69
-50.32
-55.21
-61.03
-66.91
-71.67
-74.11
-73.33
-69.09
-61.96
-53.00
-43.58
-34.85
-27.41
-21.34
-16.26
-11.67
-7.22
-2.77
1.62
5.79
9.60
13.03
16.10
18.90
21.43
23.61
25.31
26.40
26.86
26.81
26.50
26.19
26.05
26.04
25.91
25.30
23.96
21.83
19.11
16.15
13.25
10.57
8.09
5.67
3.18
0.58
-2.11
-4.90
-7.85
-11.08
-14.72
-18.79
-23.26
-28.06
-33.17
-38.59
-44.24
-49.78
-54.56
-57.70
-58.36
-56.06
-50.93
-43.71
-35.46
-27.23
-19.73
-13.16
-7.35
-1.96
3.34
8.60
13.69
18.35
22.34
25.53
27.96
29.74
31.09
32.18
33.09
33.86
34.42
34.73
34.78
34.60
34.22
33.64
32.79
31.59
29.91
27.79
25.30
22.63
20.00
17.52
15.13
12.61
9.60
5.81
1.14
-4.24
-9.89
-15.28
-20.00
-23.90
-27.18
-30.27
-33.67
-37.79
-42.86
-48.81
-55.33
-61.78
-67.29
-70.90
-71.77
-69.45
-64.00
-56.08
-46.75
-37.13
-28.13
-20.24
-13.58
-7.98
-3.25
0.77
4.21
7.29
10.44
14.26
19.39
26.19
34.54
43.80
52.93
60.95
67.27
71.81
75.07
77.82
80.80
84.49
88.91
93.79
98.74
103.47
107.95
112.36
116.85
121.33
125.15
127.21
126.33
121.68
113.19
101.70
88.49
74.91
61.81
49.59
38.23
27.64
17.73
8.47
-0.25
-8.68
-17.05
-25.50
-33.83
-41.53
-47.91
-52.32
-54.41
-54.08
-51.61
-47.53
-42.57
-37.49
-32.89
-29.12
-26.15
-23.73
-21.48
-19.17
-16.76
-14.39
-12.33
-10.86
-10.20
-10.45
-11.66
-13.73
-16.44
-19.45
-22.35
-24.78
-26.50
-27.52
-27.98
-28.19
-28.43
-28.82
-29.31
-29.61
-29.35
-28.23
-26.35
-24.21
-22.73
-22.95
-25.60
-30.86
-38.25
-46.85
-55.57
-63.48
-69.99
-74.78
-77.93
-79.84
-81.16
-82.63
-84.78
-87.57
-90.15
-91.04
-88.54
-81.44
-69.55
-53.89
-36.27
-18.68
-2.53
11.61
24.02
35.37
46.18
56.63
66.43
75.15
82.51
88.50
93.32
97.17
100.14
102.11
102.95
102.63
101.36
99.56
97.69
96.05
94.58
92.99
90.75
87.41
82.76
76.89
70.18
63.11
56.06
49.07
42.01
34.52
26.38
17.54
8.14
-1.55
-11.36
-21.27
-31.40
-41.92
-52.92
-64.40
-76.26
-88.41
-100.77
-113.24
-125.72
-138.06
-150.07
-161.55
-172.26
-181.81
-189.58
-194.60
-195.74
-191.93
-182.53
-167.57
-147.75
-124.27
-98.56
-71.95
-45.50
-19.91
4.49
27.50
49.00
68.71
86.19
100.90
112.45
120.77
126.28
129.78
132.22
134.33
136.48
138.55
140.14
140.76
140.06
137.91
134.42
129.81
124.28
118.04
111.23
103.94
96.20
87.95
79.10
69.55
59.41
49.00
38.91
29.72
21.85
15.43
10.25
5.99
2.41
-0.48
-2.60
-3.95
-4.79
-5.76
-7.55
-10.79
-15.68
-22.07
-29.41
-37.00
-44.00
-49.54
-52.80
-53.13
-50.41
-45.06
-38.08
-30.76
-24.25
-19.18
-15.58
-13.02
-10.90
-8.78
-6.49
-4.14
-1.96
-0.16
1.17
2.10
2.73
3.22
3.68
4.13
4.53
4.85
5.07
5.24
5.44
5.75
6.23
6.85
7.50
8.04
8.31
8.23
7.79
7.08
6.23
5.42
4.66
3.88
2.97
1.77
0.24
-1.63
-3.79
-6.26
-9.03
-12.13
-15.48
-18.87
-22.11
-25.06
-27.76
-30.47
-33.63
-37.61
-42.60
-48.32
-54.10
-58.89
-61.63
-61.44
-58.02
-51.78
-43.58
-34.59
-25.84
-18.01
-11.35
-5.78
-1.02
3.18
6.99
10.51
13.74
16.63
19.07
20.92
22.11
22.68
22.80
22.75
22.77
22.98
23.35
23.72
23.98
24.03
23.90
23.56
22.96
21.99
20.56
18.71
16.66
14.72
13.13
11.96
11.07
10.17
8.97
7.32
5.28
3.06
0.90
-1.02
-2.65
-4.07
-5.52
-7.17
-9.15
-11.41
-13.82
-16.13
-18.20
-19.98
-21.59
-23.33
-25.61
-28.79
-33.06
-38.27
-43.80
-48.71
-51.89
-52.44
-49.94
-44.65
-37.39
-29.32
-21.51
-14.69
-9.15
-4.71
-0.97
2.49
5.97
9.55
13.11
16.43
19.26
21.49
23.14
24.38
25.35
26.15
26.77
27.15
27.31
27.35
27.45
27.68
27.99
28.09
27.72
26.73
25.24
23.63
22.36
21.82
22.14
23.15
24.49
25.71
26.41
26.40
25.72
24.61
23.42
22.54
22.24
22.61
23.56
24.84
26.05
26.69
26.41
25.08
23.09
21.20
20.22
20.56
21.87
23.17
23.29
21.45
17.72
13.03
8.82
6.55
7.30
11.58
19.43
30.45
43.71
57.68
70.35
79.61
83.78
82.29
75.75
65.80
54.49
43.46
33.53
24.56
15.79
6.36
-4.15
-15.61
-27.40
-38.70
-48.84
-57.39
-64.18
-69.12
-72.21
-73.46
-73.05
-71.39
-69.05
-66.70
-64.82
-63.63
-63.01
-62.60
-61.91
-60.67
-58.83
-56.64
-54.51
-52.79
-51.67
-51.06
-50.73
-50.45
-50.22
-50.22
-50.74
-51.94
-53.69
-55.54
-56.90
-57.28
-56.48
-54.68
-52.33
-50.03
-48.25
-47.21
-46.71
-46.11
-44.41
-40.55
-33.73
-23.74
-11.15
2.86
16.88
29.68
40.54
49.24
55.89
60.68
63.74
65.10
64.91
63.38
60.89
57.86
54.69
51.68
49.06
46.98
45.49
44.57
44.05
43.73
43.42
43.02
42.49
41.78
40.78
39.31
37.23
34.56
31.52
28.44
25.69
23.48
21.86
20.71
19.85
19.15
18.50
17.87
17.17
16.24
14.87
12.84
10.03
6.45
2.29
-2.30
-7.18
-12.40
-18.18
-24.82
-32.57
-41.49
-51.39
-61.79
-72.09
-81.55
-89.45
-95.18
-98.42
-99.24
-98.19
-96.22
-94.35
-93.38
-93.59
-94.60
-95.65
-95.81
-94.37
-91.01
-85.74
-78.82
-70.43
-60.63
-49.37
-36.66
-22.68
-7.99
6.63
20.25
32.02
41.30
47.65
50.94
51.28
49.18
45.63
41.97
39.70
40.03
43.51
49.90
58.32
67.45
75.92
82.52
86.32
86.77
83.75
77.57
68.93
58.70
47.80
37.02
26.87
17.67
9.53
2.35
-4.17
-10.42
-16.79
-23.58
-30.81
-38.33
-45.81
-52.76
-58.64
-62.84
-64.79
-64.22
-61.27
-56.65
-51.56
-47.31
-45.08
-45.64
-49.14
-55.17
-62.89
-71.15
-78.70
-84.39
-87.27
-86.75
-82.60
-74.97
-64.33
-51.38
-36.87
-21.49
-5.75
10.07
25.78
41.18
55.94
69.54
81.46
91.40
99.42
105.99
111.73
117.09
122.08
126.19
128.52
128.20
124.76
118.28
109.37
99.03
88.38
78.49
70.15
63.66
58.54
53.52
46.74
36.36
21.29
1.75
-20.71
-43.72
-64.97
-82.82
-96.65
-106.62
-113.16
-116.48
-116.45
-112.74
-105.30
-94.73
-82.36
-69.97
-59.33
-51.60
-46.92
-44.55
-43.32
-42.19
-40.76
-39.29
-38.37
-38.57
-40.01
-42.31
-44.79
-46.70
-47.60
-47.41
-46.43
-45.08
-43.67
-42.22
-40.48
-38.07
-34.67
-30.15
-24.50
-17.62
-9.35
0.57
12.15
24.93
37.94
49.96
60.07
67.88
73.76
78.56
83.14
87.99
93.01
97.59
100.85
102.02
100.63
96.62
90.23
81.88
71.90
60.48
47.75
34.03
19.97
6.64
-4.62
-12.59
-16.43
-15.87
-11.33
-3.56
6.43
17.69
29.32
40.53
50.63
59.11
65.80
70.87
74.86
78.36
81.76
85.04
87.63
88.68
87.31
83.01
75.65
65.49
53.03
38.90
23.89
8.95
-4.86
-16.63
-25.93
-33.06
-38.99
-45.07
-52.57
-62.21
-74.00
-87.30
-101.11
-114.32
-125.92
-135.20
-141.92
-146.44
-149.73
-153.15
-157.91
-164.65
-173.17
-182.59
-191.99
-200.91
-209.43
-217.84
-225.99
-232.91
-236.94
-236.33
-230.01
-218.07
-201.63
-182.29
-161.46
-139.96
-117.91
-95.01
-70.87
-45.15
-17.86
10.69
39.74
68.17
94.71
118.15
137.62
152.66
163.27
169.79
172.79
173.03
171.42
168.90
166.29
164.05
162.15
160.11
157.25
153.03
147.36
140.52
133.12
125.66
118.37
111.05
103.32
94.74
85.12
74.58
63.44
52.18
41.20
30.83
21.21
12.41
4.36
-3.09
-10.10
-16.85
-23.34
-29.33
-34.32
-37.63
-38.66
-37.13
-33.28
-27.76
-21.47
-15.17
-9.30
-3.95
0.99
5.63
9.99
13.98
17.51
20.55
23.23
25.67
27.99
30.21
32.29
34.16
35.77
37.04
37.91
38.36
38.44
38.24
37.87
37.33
36.54
35.34
33.62
31.36
28.73
25.98
23.31
20.72
18.05
15.06
11.56
7.62
3.45
-0.69
-4.61
-8.28
-11.77
-15.22
-18.81
-22.69
-27.01
-31.83
-37.02
-42.15
-46.47
-49.10
-49.30
-46.81
-41.95
-35.51
-28.46
-21.65
-15.56
-10.34
-5.85
-1.86
1.79
5.21
8.39
11.27
13.75
15.79
17.36
18.51
19.36
20.00
20.52
20.95
21.31
21.58
21.81
22.07
22.43
22.86
23.18
23.21
22.77
21.76
20.29
18.59
16.87
15.29
13.85
12.48
11.07
9.58
7.96
6.17
4.20
2.00
-0.44
-3.06
-5.73
-8.38
-10.96
-13.53
-16.26
-19.31
-22.78
-26.59
-30.40
-33.57
-35.36
-35.12
-32.50
-27.67
-21.25
-14.18
-7.31
-1.28
3.73
7.81
11.17
14.01
16.41
18.41
20.00
21.25
22.27
23.13
23.91
24.65
25.41
26.28
27.30
28.39
29.41
30.15
30.45
30.28
29.70
28.86
27.78
26.48
24.89
22.98
20.85
18.64
16.45
14.20
11.69
8.62
4.81
0.31
-4.63
-9.60
-14.21
-18.23
-21.67
-24.67
-27.47
-30.29
-33.29
-36.47
-39.60
-42.23
-43.73
-43.44
-41.00
-36.48
-30.40
-23.66
-17.20
-11.68
-7.39
-4.18
-1.67
0.56
2.78
5.08
7.35
9.45
11.23
12.61
13.61
14.28
14.65
14.75
14.63
14.45
14.41
14.75
15.66
17.13
18.99
20.90
22.47
23.36
23.35
22.31
20.26
17.38
14.00
10.50
7.24
4.38
1.90
-0.37
-2.64
-5.01
-7.46
-9.90
-12.27
-14.58
-16.89
-19.34
-22.00
-24.98
-28.33
-32.05
-36.00
-39.78
-42.77
-44.23
-43.62
-40.76
-35.99
-30.12
-24.09
-18.68
-14.21
-10.58
-7.44
-4.34
-1.10
2.30
5.64
8.68
11.23
13.26
14.78
15.88
16.64
17.11
17.38
17.51
17.62
17.78
18.00
18.24
18.45
18.65
18.90
19.33
20.01
20.85
21.56
21.70
20.92
19.03
16.16
12.70
9.16
5.95
3.29
1.17
-0.61
-2.30
-4.09
-6.11
-8.37
-10.80
-13.32
-15.81
-18.22
-20.57
-22.95
-25.53
-28.52
-31.96
-35.67
-39.21
-41.93
-43.12
-42.28
-39.35
-34.71
-29.09
-23.30
-18.00
-13.45
-9.64
-6.34
-3.23
-0.12
3.07
6.30
9.45
12.34
14.76
16.56
17.64
18.08
18.10
18.01
18.12
18.63
19.59
20.85
22.17
23.19
23.59
23.20
21.99
20.16
17.97
15.71
13.56
11.62
9.85
8.21
6.62
5.01
3.33
1.47
-0.59
-2.86
-5.25
-7.66
-9.99
-12.23
-14.43
-16.64
-18.88
-21.06
-23.13
-25.10
-27.13
-29.43
-32.06
-34.81
-37.12
-38.22
-37.42
-34.37
-29.28
-22.81
-15.81
-9.08
-3.11
1.95
6.19
9.74
12.72
15.12
16.93
18.12
18.76
18.93
18.83
18.67
18.63
18.85
19.35
20.08
20.85
21.53
21.99
22.20
22.16
21.91
21.49
20.93
20.24
19.37
18.26
16.84
15.12
13.10
10.86
8.43
5.76
2.74
-0.75
-4.79
-9.26
-13.89
-18.32
-22.23
-25.41
-27.90
-29.84
-31.50
-33.19
-35.16
-37.58
-40.47
-43.64
-46.66
-48.91
-49.69
-48.39
-44.78
-39.09
-32.02
-24.50
-17.48
-11.59
-7.03
-3.57
-0.80
1.63
3.81
5.62
6.90
7.61
8.02
8.64
9.99
12.33
15.55
19.12
22.42
24.98
26.69
27.73
28.48
29.17
29.75
29.95
29.45
28.06
25.92
23.39
20.92
18.82
17.13
15.64
14.00
11.88
9.13
5.79
2.09
-1.69
-5.28
-8.51
-11.33
-13.75
-15.90
-18.00
-20.34
-23.18
-26.62
-30.45
-34.09
-36.70
-37.45
-35.89
-32.12
-26.83
-20.96
-15.39
-10.52
-6.21
-2.02
2.52
7.41
12.26
16.35
19.14
20.57
21.19
21.89
23.48
26.30
29.99
33.76
36.76
38.49
39.06
39.03
39.19
40.22
42.69
47.03
53.56
62.17
72.04
81.56
88.59
91.39
89.46
84.06
77.79
73.47
72.91
76.26
82.42
89.91
97.88
106.27
115.28
124.50
132.37
136.41
133.94
123.13
103.51
76.12
43.06
7.03
-29.29
-63.56
-93.92
-119.04
-138.03
-150.37
-155.72
-154.11
-146.14
-133.13
-117.06
-100.08
-83.95
-69.57
-57.04
-46.11
-36.81
-29.83
-26.36
-27.56
-33.86
-44.54
-57.81
-71.44
-83.39
-92.36
-98.02
-100.69
-101.13
-100.04
-98.03
-95.53
-92.96
-90.71
-89.12
-88.29
-87.95
-87.58
-86.51
-84.39
-81.28
-77.67
-74.05
-70.56
-66.72
-61.53
-53.90
-43.08
-28.95
-12.11
6.37
25.21
43.03
58.57
70.87
79.38
84.16
85.85
85.51
84.20
82.71
81.36
80.08
78.73
77.26
75.79
74.55
73.75
73.49
73.72
74.42
75.61
77.35
79.58
82.09
84.46
86.25
87.22
87.48
87.48
87.79
88.76
90.25
91.53
91.44
88.72
82.39
72.11
58.31
42.13
25.05
8.49
-6.71
-20.39
-33.11
-45.68
-58.74
-72.43
-86.22
-99.05
-109.61
-116.79
-119.89
-118.85
-114.21
-106.93
-98.08
-88.57
-78.87
-68.84
-57.92
-45.41
-30.91
-14.76
1.83
17.03
28.96
36.44
39.44
39.01
36.72
33.92
31.15
28.09
23.88
17.84
9.88
0.75
-8.29
-15.83
-20.97
-23.53
-24.18
-24.22
-25.14
-28.19
-33.88
-41.81
-50.71
-58.77
-64.34
-66.32
-64.54
-59.74
-53.10
-45.80
-38.52
-31.39
-24.14
-16.49
-8.40
-0.04
8.43
17.12
26.33
36.38
47.22
58.30
68.74
77.81
85.25
91.57
97.67
104.41
112.09
120.25
127.82
133.57
136.52
136.26
133.10
127.82
121.34
114.32
106.84
98.36
87.94
74.69
58.16
38.56
16.71
-6.23
-29.13
-51.17
-71.93
-91.42
-110.03
-128.33
-146.81
-165.69
-184.63
-202.77
-218.94
-232.12
-241.76
-247.92
-251.21
-252.44
-252.23
-250.70
-247.50
-242.10
-234.05
-223.25
-209.99
-194.58
-177.16
-157.59
-135.71
-111.73
-86.53
-61.55
-38.25
-17.56
0.48
16.58
31.64
46.28
60.48
73.76
85.53
95.40
103.35
109.51
114.13
117.32
119.16
119.72
119.10
117.50
115.13
112.33
109.42
106.61
103.92
101.15
97.94
94.00
89.22
83.84
78.22
72.71
67.50
62.51
57.56
52.53
47.49
42.72
38.57
35.37
33.26
32.07
31.44
30.84
29.83
28.13
25.79
23.12
20.56
18.48
17.06
16.17
15.55
14.89
14.00
12.84
11.47
10.04
8.70
7.59
6.77
6.28
6.04
5.87
5.52
4.78
3.54
1.90
0.09
-1.62
-3.00
-4.00
-4.69
-5.19
-5.58
-5.84
-5.82
-5.35
-4.30
-2.70
-0.73
1.35
3.23
4.68
5.52
5.72
5.31
4.41
3.23
2.02
1.02
0.38
0.13
0.24
0.75
1.74
3.38
5.77
8.85
12.45
16.33
20.41
24.79
29.74
35.42
41.79
48.42
54.62
59.73
63.22
65.02
65.39
64.92
64.30
64.20
65.10
67.16
70.21
73.70
76.85
78.84
79.06
77.36
74.19
70.48
67.47
66.24
67.36
70.65
75.22
79.77
83.02
84.07
82.57
78.63
72.53
64.44
54.22
41.51
25.94
7.51
-13.24
-35.30
-57.40
-78.47
-97.84
-115.32
-130.82
-144.02
-154.11
-160.01
-160.82
-156.46
-147.85
-136.74
-124.96
-113.84
-103.83
-94.60
-85.62
-76.62
-67.81
-59.61
-52.44
-46.35
-41.07
-36.20
-31.49
-26.90
-22.56
-18.64
-15.25
-12.35
-9.88
-7.77
-5.96
-4.42
-3.04
-1.74
-0.43
0.90
2.17
3.25
4.06
4.49
4.51
4.13
3.43
2.55
1.63
0.79
0.01
-0.87
-2.17
-4.13
-6.80
-10.05
-13.52
-16.79
-19.38
-20.89
-20.92
-19.34
-16.43
-13.00
-10.31
-9.53
-11.29
-15.32
-20.67
-26.32
-31.83
-37.54
-44.20
-52.17
-60.83
-68.59
-73.48
-74.14
-70.32
-62.84
-52.98
-41.72
-29.50
-16.35
-2.43
11.65
24.86
36.25
45.51
53.22
60.63
69.01
79.07
90.49
102.10
112.38
120.01
124.19
124.64
121.43
114.74
105.01
93.01
79.94
67.23
56.06
47.01
39.82
33.76
27.94
21.79
15.23
8.45
1.74
-4.66
-10.55
-15.63
-19.53
-21.87
-22.47
-21.47
-19.38
-16.80
-14.32
-12.30
-10.85
-9.89
-9.22
-8.61
-7.82
-6.76
-5.46
-4.06
-2.78
-1.80
-1.15
-0.74
-0.37
0.14
0.85
1.76
2.75
3.71
4.54
5.13
5.44
5.35
4.83
3.85
2.46
0.76
-1.06
-2.83
-4.41
-5.72
-6.81
-7.81
-8.82
-9.92
-11.14
-12.43
-13.73
-15.03
-16.36
-17.82
-19.43
-21.23
-23.14
-24.97
-26.47
-27.31
-27.17
-25.88
-23.47
-20.25
-16.70
-13.30
-10.42
-8.18
-6.41
-4.81
-3.08
-1.11
0.97
2.88
4.27
4.96
4.98
4.51
3.87
3.31
2.99
2.95
3.13
3.46
3.88
4.36
4.80
5.09
5.08
4.66
3.88
2.87
1.88
1.15
0.73
0.50
0.19
-0.43
-1.43
-2.72
-4.07
-5.32
-6.45
-7.64
-9.11
-10.94
-13.05
-15.30
-17.45
-19.36
-20.92
-22.01
-22.45
-22.02
-20.56
-18.08
-14.84
-11.28
-7.89
-5.02
-2.78
-1.15
0.06
1.00
1.84
2.67
3.52
4.35
5.05
5.55
5.75
5.68
5.42
5.11
4.83
4.65
4.52
4.40
4.27
4.10
3.93
3.72
3.48
3.22
2.94
2.71
2.52
2.37
2.21
1.94
1.46
0.74
-0.25
-1.48
-2.88
-4.34
-5.80
-7.28
-8.86
-10.66
-12.75
-15.16
-17.82
-20.53
-22.98
-24.82
-25.70
-25.36
-23.77
-21.14
-17.88
-14.49
-11.35
-8.69
-6.44
-4.45
-2.56
-0.74
0.94
2.30
3.30
3.98
4.49
5.02
5.67
6.37
6.97
7.30
7.34
7.25
7.32
7.72
8.49
9.43
10.17
10.40
9.95
8.92
7.54
6.10
4.79
3.68
2.75
1.86
0.95
-0.07
-1.18
-2.38
-3.60
-4.73
-5.63
-6.15
-6.31
-6.27
-6.39
-7.06
-8.55
-10.87
-13.73
-16.62
-19.02
-20.51
-20.79
-19.78
-17.60
-14.53
-10.93
-7.30
-4.06
-1.49
0.33
1.51
2.27
2.79
3.11
3.24
3.20
3.07
2.97
2.99
3.20
3.52
3.86
4.17
4.46
4.79
5.19
5.63
6.00
6.18
6.08
5.73
5.20
4.62
4.00
3.43
2.99
2.72
2.70
2.91
3.20
3.36
3.19
2.61
1.70
0.68
-0.25
-1.04
-1.77
-2.63
-3.76
-5.23
-7.04
-9.09
-11.31
-13.49
-15.39
-16.66
-16.92
-15.95
-13.75
-10.65
-7.16
-3.81
-1.01
1.07
2.44
3.20
3.53
3.53
3.36
3.08
2.76
2.48
2.33
2.37
2.67
3.28
4.21
5.43
6.80
8.23
9.62
10.93
12.08
12.98
13.50
13.48
12.83
11.58
9.85
7.85
5.80
3.84
2.01
0.34
-1.18
-2.56
-3.79
-4.88
-5.79
-6.53
-7.10
-7.57
-8.05
-8.71
-9.76
-11.28
-13.26
-15.51
-17.76
-19.66
-20.88
-21.16
-20.43
-18.72
-16.22
-13.21
-10.01
-6.88
-4.00
-1.51
0.52
2.04
2.95
3.29
3.07
2.40
1.40
0.24
-0.91
-1.91
-2.63
-3.02
-3.06
-2.88
-2.60
-2.32
-2.18
-2.19
-2.43
-2.90
-3.69
-4.75
-6.07
-7.57
-9.18
-10.81
-12.39
-13.80
-14.93
-15.72
-16.12
-16.21
-16.13
-15.99
-15.88
-15.75
-15.38
-14.39
-12.33
-8.80
-3.61
3.04
10.57
18.11
24.77
29.84
33.11
34.83
35.59
36.14
37.10
38.81
41.29
44.24
47.18
49.66
51.30
51.95
51.72
50.88
49.69
48.29
46.57
44.29
41.17
37.16
32.49
27.57
22.77
18.27
13.99
9.72
5.40
1.19
-2.49
-5.16
-6.61
-6.97
-6.79
-6.72
-7.34
-8.96
-11.56
-14.90
-18.62
-22.47
-26.35
-30.28
-34.34
-38.56
-42.87
-47.15
-51.24
-55.05
-58.53
-61.50
-63.70
-64.73
-64.14
-61.70
-57.48
-51.92
-45.75
-39.68
-34.27
-29.71
-25.95
-22.73
-19.85
-17.18
-14.73
-12.53
-10.56
-8.69
-6.76
-4.67
-2.40
-0.07
2.12
3.98
5.45
6.49
7.23
7.72
8.00
8.04
7.76
7.17
6.32
5.29
4.10
2.78
1.28
-0.47
-2.46
-4.59
-6.67
-8.47
-9.82
-10.70
-11.24
-11.75
-12.70
-14.50
-17.47
-21.64
-26.69
-31.99
-36.70
-39.95
-41.17
-40.13
-37.16
-32.90
-28.14
-23.56
-19.50
-16.05
-13.05
-10.30
-7.65
-5.06
-2.54
-0.15
1.99
3.77
5.07
5.91
6.42
6.88
7.61
8.79
10.40
12.16
13.71
14.69
14.96
14.59
13.77
12.67
11.42
9.99
8.28
6.23
3.80
1.02
-2.07
-5.37
-8.83
-12.35
-15.78
-19.00
-21.93
-24.70
-27.53
-30.75
-34.56
-38.88
-43.31
-47.11
-49.50
-49.87
-48.07
-44.37
-39.44
-33.99
-28.58
-23.52
-18.83
-14.35
-9.90
-5.41
-0.95
3.28
7.05
10.18
12.60
14.42
15.82
17.07
18.40
19.95
21.80
23.90
26.12
28.18
29.82
30.76
30.91
30.28
28.99
27.25
25.29
23.31
21.38
19.54
17.69
15.64
13.18
10.21
6.75
3.01
-0.74
-4.23
-7.36
-10.26
-13.26
-16.84
-21.41
-27.13
-33.77
-40.67
-46.83
-51.18
-52.87
-51.55
-47.43
-41.21
-33.82
-26.14
-18.76
-11.90
-5.45
0.78
6.89
12.78
18.18
22.77
26.41
29.19
31.40
33.40
35.47
37.74
40.13
42.48
44.60
46.37
47.74
48.71
49.28
49.39
48.96
47.91
46.24
44.04
41.53
38.90
36.34
33.92
31.60
29.29
26.89
24.36
21.64
18.69
15.43
11.79
7.85
3.74
-0.29
-4.07
-7.60
-11.14
-15.13
-19.97
-25.79
-32.29
-38.77
-44.19
-47.56
-48.16
-45.79
-40.82
-34.01
-26.27
-18.42
-10.99
-4.16
2.14
8.02
13.63
19.01
24.16
28.98
33.33
36.96
39.70
41.48
42.45
43.01
43.62
44.62
46.14
47.95
49.71
51.06
51.77
51.82
51.29
50.25
48.75
46.68
44.01
40.81
37.34
33.98
31.07
28.73
26.78
24.79
22.33
19.09
15.08
10.59
6.06
1.86
-1.75
-4.71
-7.08
-9.08
-10.99
-13.18
-16.02
-19.77
-24.42
-29.61
-34.61
-38.49
-40.40
-39.82
-36.72
-31.64
-25.38
-18.84
-12.63
-7.00
-1.85
3.05
7.89
12.69
17.31
21.55
25.22
28.22
30.54
32.22
33.42
34.36
35.30
36.40
37.74
39.21
40.63
41.83
42.73
43.32
43.56
43.39
42.71
41.47
39.74
37.73
35.72
33.91
32.38
30.94
29.34
27.33
24.80
21.77
18.43
14.95
11.46
8.02
4.56
1.04
-2.60
-6.40
-10.42
-14.79
-19.66
-25.13
-31.10
-37.21
-42.82
-47.16
-49.50
-49.32
-46.54
-41.54
-35.08
-28.01
-21.16
-14.94
-9.47
-4.55
0.13
4.75
9.34
13.75
17.74
21.10
23.71
25.61
26.93
27.88
28.62
29.30
29.94
30.57
31.14
31.64
32.02
32.20
32.12
31.78
31.22
30.56
29.92
29.33
28.72
27.96
26.88
25.43
23.69
21.79
19.87
18.00
16.06
13.93
11.46
8.61
5.37
1.80
-2.02
-5.96
-9.89
-13.71
-17.33
-20.75
-24.11
-27.61
-31.45
-35.71
-40.16
-44.29
-47.34
-48.56
-47.50
-44.19
-39.08
-32.93
-26.56
-20.56
-15.20
-10.52
-6.30
-2.34
1.58
5.55
9.57
13.44
16.85
19.52
21.30
22.32
22.93
23.57
24.63
26.24
28.31
30.56
32.60
34.08
34.84
34.81
34.07
32.81
31.21
29.49
27.80
26.25
24.79
23.35
21.76
19.86
17.57
14.90
12.00
9.06
6.21
3.49
0.83
-1.91
-4.83
-7.95
-11.14
-14.19
-16.91
-19.14
-20.94
-22.50
-24.17
-26.31
-29.14
-32.64
-36.48
-40.08
-42.73
-43.82
-42.96
-40.18
-35.85
-30.57
-25.06
-19.89
-15.38
-11.53
-8.17
-5.07
-2.07
0.91
3.85
6.71
9.45
11.98
14.27
16.25
17.93
19.38
20.72
22.03
23.33
24.53
25.51
26.13
26.26
25.86
24.91
23.48
21.65
19.56
17.41
15.34
13.49
11.88
10.47
9.22
8.05
6.94
5.91
4.97
4.10
3.25
2.23
0.92
-0.82
-3.00
-5.49
-8.13
-10.68
-12.99
-14.94
-16.57
-18.03
-19.61
-21.62
-24.38
-27.99
-32.19
-36.33
-39.51
-40.95
-40.23
-37.50
-33.36
-28.62
-23.93
-19.66
-15.85
-12.37
-9.07
-5.82
-2.58
0.75
4.22
7.78
11.26
14.37
16.82
18.42
19.19
19.33
19.10
18.78
18.54
18.48
18.60
18.85
19.12
19.27
19.19
18.85
18.29
17.64
16.98
16.29
15.49
14.40
12.91
11.04
8.89
6.68
4.60
2.76
1.23
-0.03
-1.10
-2.19
-3.47
-5.11
-7.13
-9.35
-11.52
-13.34
-14.69
-15.71
-16.72
-18.08
-20.09
-22.86
-26.32
-30.27
-34.33
-37.97
-40.57
-41.54
-40.47
-37.37
-32.71
-27.27
-21.89
-17.19
-13.39
-10.36
-7.73
-5.19
-2.53
0.21
2.93
5.40
7.51
9.19
10.48
11.54
12.44
13.24
13.92
14.46
14.82
15.05
15.25
15.49
15.80
16.08
16.21
16.03
15.47
14.60
13.64
12.83
12.33
12.16
12.11
11.91
11.34
10.34
9.07
7.77
6.59
5.50
4.27
2.64
0.48
-2.07
-4.73
-7.14
-9.09
-10.56
-11.73
-12.93
-14.56
-16.97
-20.41
-24.87
-29.98
-35.13
-39.41
-41.97
-42.23
-40.03
-35.81
-30.36
-24.62
-19.36
-14.99
-11.56
-8.77
-6.30
-3.83
-1.26
1.35
3.85
6.07
7.86
9.19
10.11
10.74
11.26
11.83
12.53
13.40
14.39
15.46
16.46
17.26
17.69
17.56
16.79
15.39
13.53
11.47
9.48
7.73
6.25
4.93
3.60
2.09
0.32
-1.70
-3.92
-6.22
-8.51
-10.66
-12.60
-14.30
-15.81
-17.32
-19.15
-21.62
-24.91
-28.93
-33.24
-37.11
-39.74
-40.49
-39.07
-35.63
-30.71
-25.01
-19.27
-14.05
-9.65
-6.11
-3.26
-0.87
1.34
3.52
5.71
7.78
9.57
10.93
11.81
12.32
12.67
13.10
13.70
14.50
15.32
15.97
16.29
16.24
15.91
15.45
14.94
14.37
13.65
12.64
11.31
9.73
8.08
6.61
5.40
4.40
3.34
1.88
-0.16
-2.81
-5.81
-8.78
-11.42
-13.65
-15.56
-17.45
-19.60
-22.21
-25.40
-29.20
-33.60
-38.38
-43.08
-47.02
-49.40
-49.64
-47.52
-43.37
-37.85
-31.76
-25.80
-20.39
-15.64
-11.43
-7.58
-3.88
-0.25
3.27
6.54
9.43
11.84
13.81
15.42
16.74
17.82
18.63
19.20
19.58
19.90
20.27
20.66
20.99
21.08
20.80
20.08
18.97
17.64
16.22
14.83
13.53
12.30
11.04
9.68
8.16
6.47
4.61
2.60
0.36
-2.21
-5.22
-8.69
-12.48
-16.38
-20.18
-23.82
-27.39
-31.15
-35.35
-40.16
-45.64
-51.57
-57.60
-63.16
-67.58
-70.26
-70.78
-69.07
-65.57
-61.05
-56.52
-52.87
-50.55
-49.43
-48.84
-47.81
-45.45
-41.24
-35.11
-27.37
-18.57
-9.28
0.04
9.12
18.04
27.20
37.17
48.45
61.33
75.64
90.71
105.49
118.56
128.54
134.29
135.29
131.89
125.23
116.88
108.21
99.86
91.50
82.34
71.69
59.61
46.98
35.08
24.91
16.74
10.06
3.99
-2.27
-9.03
-16.11
-23.10
-29.69
-35.90
-42.11
-48.78
-56.22
-64.31
-72.43
-79.61
-84.76
-87.11
-86.37
-82.85
-77.18
-70.17
-62.48
-54.59
-46.83
-39.37
-32.39
-25.98
-20.18
-14.94
-10.16
-5.81
-1.91
1.44
4.20
6.42
8.25
9.92
11.60
13.35
15.17
16.95
18.51
19.67
20.26
20.18
19.42
18.12
16.47
14.67
12.84
10.99
9.08
7.00
4.70
2.18
-0.55
-3.43
-6.41
-9.43
-12.51
-15.73
-19.31
-23.55
-28.60
-34.37
-40.35
-45.71
-49.46
-50.81
-49.42
-45.52
-39.79
-33.13
-26.40
-20.17
-14.65
-9.74
-5.16
-0.68
3.79
8.12
12.02
15.19
17.48
18.95
19.85
20.51
21.18
21.96
22.86
23.89
25.05
26.37
27.83
29.28
30.49
31.20
31.24
30.60
29.36
27.68
25.68
23.47
21.06
18.42
15.44
11.98
7.93
3.31
-1.66
-6.61
-11.12
-14.95
-18.14
-21.05
-24.22
-28.23
-33.44
-39.78
-46.72
-53.30
-58.39
-60.95
-60.39
-56.71
-50.49
-42.73
-34.44
-26.42
-19.02
-12.20
-5.67
0.91
7.70
14.70
21.68
28.34
34.29
39.29
43.14
45.79
47.35
48.06
48.25
48.33
48.56
49.06
49.78
50.51
51.03
51.13
50.73
49.83
48.47
46.75
44.70
42.43
39.98
37.40
34.73
32.01
29.26
26.51
23.76
20.99
18.14
15.06
11.65
7.85
3.74
-0.52
-4.75
-8.82
-12.67
-16.36
-20.05
-23.98
-28.43
-33.65
-39.79
-46.74
-53.98
-60.58
-65.32
-67.08
-65.25
-59.92
-51.93
-42.53
-32.93
-23.98
-16.04
-9.04
-2.69
3.36
9.34
15.36
21.32
27.03
32.17
36.43
39.64
41.81
43.12
43.84
44.27
44.60
44.99
45.55
46.33
47.33
48.40
49.29
49.70
49.38
48.26
46.42
44.05
41.43
38.78
36.25
33.88
31.65
29.45
27.12
24.58
21.76
18.78
15.78
12.91
10.19
7.55
4.82
1.79
-1.59
-5.29
-9.17
-12.99
-16.60
-19.91
-23.02
-26.13
-29.55
-33.63
-38.58
-44.45
-50.94
-57.41
-62.85
-66.18
-66.48
-63.37
-57.14
-48.70
-39.31
-30.13
-21.90
-14.77
-8.45
-2.47
3.50
9.50
15.34
20.72
25.40
29.21
32.16
34.31
35.77
36.70
37.31
37.80
38.34
39.00
39.72
40.33
40.68
40.60
40.04
39.02
37.67
36.20
34.84
33.75
32.98
32.39
31.70
30.61
28.94
26.62
23.79
20.69
17.53
14.46
11.51
8.67
5.80
2.79
-0.46
-4.03
-7.91
-12.05
-16.28
-20.40
-24.23
-27.70
-30.92
-34.23
-38.09
-42.94
-48.96
-55.78
-62.51
-67.88
-70.64
-69.91
-65.58
-58.27
-49.17
-39.61
-30.68
-22.94
-16.48
-11.01
-6.11
-1.42
3.26
8.00
12.75
17.33
21.52
25.07
27.82
29.71
30.89
31.61
32.23
33.01
34.06
35.33
36.65
37.78
38.51
38.66
38.15
36.97
35.18
32.88
30.24
27.45
24.65
21.95
19.35
16.79
14.17
11.45
8.67
5.99
3.56
1.47
-0.32
-2.01
-3.89
-6.23
-9.14
-12.60
-16.39
-20.24
-23.86
-27.12
-30.05
-32.93
-36.16
-40.17
-45.18
-51.05
-57.16
-62.54
-66.09
-66.86
-64.47
-59.13
-51.61
-42.96
-34.22
-26.11
-19.00
-12.95
-7.76
-3.17
1.08
5.26
9.44
13.60
17.50
20.86
23.44
25.18
26.22
26.80
27.18
27.50
27.78
27.97
28.04
28.04
27.98
27.82
27.43
26.64
25.29
23.39
21.11
18.73
16.46
14.44
12.64
10.92
9.15
7.26
5.23
3.14
1.06
-0.95
-2.88
-4.75
-6.57
-8.43
-10.42
-12.74
-15.65
-19.37
-23.97
-29.24
-34.61
-39.23
-42.14
-42.60
-40.24
-35.30
-28.52
-20.92
-13.48
-6.93
-1.54
2.83
6.50
9.77
12.76
15.41
17.50
18.93
19.73
20.13
20.39
20.72
21.23
21.88
22.64
23.49
24.44
25.52
26.66
27.67
28.31
28.28
27.41
25.65
23.15
20.16
17.04
14.11
11.54
9.26
7.02
4.45
1.27
-2.60
-6.94
-11.39
-15.57
-19.25
-22.36
-25.09
-27.77
-30.73
-34.27
-38.62
-43.78
-49.43
-54.91
-59.26
-61.44
-60.78
-57.18
-51.21
-43.95
-36.52
-29.70
-23.80
-18.63
-13.79
-8.95
-3.98
1.06
5.97
10.53
14.51
17.66
19.81
20.96
21.30
21.28
21.41
22.06
23.33
25.02
26.79
28.30
29.33
29.79
29.57
28.57
26.68
23.91
20.44
16.66
13.07
10.04
7.74
6.05
4.62
3.02
0.92
-1.87
-5.28
-9.05
-12.82
-16.25
-19.19
-21.81
-24.52
-27.93
-32.53
-38.52
-45.63
-53.05
-59.64
-64.20
-65.79
-64.02
-59.09
-51.80
-43.25
-34.63
-26.81
-20.24
-14.86
-10.29
-6.00
-1.60
3.03
7.78
12.35
16.47
19.90
22.56
24.45
25.63
26.27
26.54
26.61
26.64
26.73
26.92
27.20
27.47
27.59
27.39
26.67
25.34
23.42
21.12
18.73
16.50
14.58
12.86
11.06
8.84
5.96
2.35
-1.83
-6.29
-10.71
-14.82
-18.55
-21.97
-25.26
-28.72
-32.62
-37.26
-42.75
-48.92
-55.21
-60.65
-64.19
-64.90
-62.41
-57.04
-49.71
-41.53
-33.46
-25.99
-19.12
-12.55
-5.88
1.09
8.36
15.75
22.97
29.72
35.75
40.85
44.96
48.11
50.41
51.98
52.91
53.17
52.66
51.22
48.79
45.36
41.04
36.07
30.73
25.44
20.54
16.30
12.77
9.83
7.17
4.50
1.70
-1.20
-3.99
-6.49
-8.73
-10.97
-13.65
-17.15
-21.67
-26.93
-32.34
-37.03
-40.09
-40.87
-39.07
-34.85
-28.81
-21.79
-14.66
-8.13
-2.48
2.29
6.49
10.44
14.34
18.14
21.63
24.58
26.79
28.30
29.24
29.85
30.35
30.86
31.38
31.82
32.08
32.05
31.68
30.92
29.75
28.26
26.52
24.66
22.78
20.86
18.81
16.43
13.57
10.12
6.18
1.92
-2.36
-6.43
-10.16
-13.61
-16.99
-20.67
-25.05
-30.35
-36.47
-42.88
-48.65
-52.74
-54.24
-52.65
-48.12
-41.35
-33.41
-25.41
-18.10
-11.73
-6.13
-0.80
4.70
10.56
16.64
22.57
27.90
32.29
35.56
37.75
39.02
39.54
39.50
39.07
38.45
37.81
37.30
36.97
36.72
36.29
35.35
33.63
31.11
28.06
24.85
21.90
19.38
17.22
15.09
12.62
9.55
5.88
1.77
-2.40
-6.36
-9.92
-13.11
-16.20
-19.54
-23.52
-28.39
-34.11
-40.24
-45.99
-50.34
-52.32
-51.29
-47.20
-40.59
-32.50
-24.06
-16.21
-9.42
-3.70
1.23
5.79
10.30
14.86
19.44
23.86
27.87
31.32
34.09
36.13
37.43
38.03
37.96
37.36
36.40
35.35
34.48
33.97
33.85
33.92
33.87
33.31
31.99
29.86
27.04
23.80
20.45
17.22
14.28
11.58
8.99
6.30
3.35
0.10
-3.37
-6.90
-10.33
-13.62
-16.88
-20.27
-23.98
-28.16
-32.84
-37.93
-43.14
-47.99
-51.80
-53.77
-53.24
-49.90
-44.01
-36.36
-28.08
-20.26
-13.60
-8.27
-3.89
0.11
4.24
8.70
13.34
17.68
21.27
23.81
25.30
26.04
26.42
26.76
27.19
27.62
27.85
27.69
27.11
26.24
25.29
24.44
23.75
23.13
22.41
21.45
20.18
18.64
16.96
15.24
13.54
11.87
10.19
8.41
6.48
4.33
1.96
-0.55
-3.04
-5.31
-7.21
-8.74
-10.10
-11.63
-13.75
-16.82
-21.00
-26.23
-32.12
-38.01
-43.08
-46.48
-47.51
-45.86
-41.71
-35.68
-28.71
-21.71
-15.40
-10.13
-5.86
-2.33
0.76
3.60
6.24
8.54
10.33
11.58
12.37
12.88
13.29
13.71
14.19
14.71
15.29
15.98
16.84
17.79
18.63
19.05
18.79
17.73
15.97
13.77
11.45
9.26
7.30
5.59
4.08
2.79
1.74
0.91
0.20
-0.58
-1.65
-3.20
-5.20
-7.50
-9.79
-11.82
-13.48
-14.80
-15.99
-17.23
-18.70
-20.47
-22.57
-24.96
-27.45
-29.69
-31.15
-31.27
-29.66
-26.24
-21.41
-15.81
-10.15
-5.00
-0.67
2.89
5.80
8.24
10.25
11.80
12.76
13.11
12.92
12.40
11.84
11.46
11.40
11.67
12.18
12.84
13.55
14.21
14.68
14.79
14.32
13.21
11.55
9.56
7.56
5.78
4.27
2.88
1.36
-0.55
-2.95
-5.73
-8.62
-11.23
-13.21
-14.37
-14.72
-14.51
-14.20
-14.34
-15.43
-17.74
-21.14
-25.11
-28.84
-31.39
-32.04
-30.49
-26.92
-21.96
-16.43
-11.13
-6.61
-3.08
-0.44
1.62
3.39
5.05
6.58
7.83
8.63
8.94
8.85
8.58
8.34
8.25
8.32
8.52
8.84
9.33
10.01
10.80
11.48
11.78
11.50
10.57
9.12
7.39
5.60
3.87
2.22
0.60
-0.98
-2.54
-4.10
-5.73
-7.56
-9.67
-12.05
-14.56
-17.00
-19.22
-21.20
-23.02
-24.95
-27.27
-30.14
-33.54
-37.08
-40.13
-41.87
-41.67
-39.27
-34.94
-29.38
-23.44
-17.79
-12.78
-8.43
-4.56
-1.05
2.15
5.00
7.44
9.49
11.24
12.74
13.94
14.76
15.12
15.08
14.81
14.59
14.59
14.89
15.39
15.89
16.23
16.27
15.99
15.36
14.34
12.88
10.93
8.58
6.02
3.49
1.21
-0.78
-2.55
-4.29
-6.18
-8.26
-10.48
-12.64
-14.51
-15.99
-17.10
-18.04
-19.15
-20.81
-23.29
-26.64
-30.61
-34.55
-37.68
-39.24
-38.71
-36.06
-31.68
-26.32
-20.73
-15.58
-11.19
-7.61
-4.72
-2.30
-0.13
1.94
4.03
6.17
8.31
10.31
12.01
13.32
14.20
14.75
15.09
15.31
15.41
15.33
15.04
14.53
13.86
13.15
12.48
11.78
10.97
9.93
8.61
7.12
5.68
4.46
3.54
2.71
1.68
0.19
-1.82
-4.17
-6.51
-8.53
-10.15
-11.49
-12.83
-14.46
-16.62
-19.43
-22.91
-26.92
-31.08
-34.81
-37.34
-38.02
-36.49
-32.90
-27.86
-22.21
-16.76
-12.03
-8.25
-5.27
-2.84
-0.66
1.53
3.77
5.99
8.01
9.63
10.73
11.37
11.72
12.00
12.39
12.94
13.66
14.48
15.36
16.17
16.82
17.12
16.96
16.28
15.08
13.52
11.76
9.96
8.20
6.46
4.63
2.56
0.15
-2.64
-5.71
-8.84
-11.76
-14.31
-16.45
-18.35
-20.32
-22.70
-25.73
-29.36
-33.23
-36.70
-38.99
-39.51
-38.00
-34.63
-29.93
-24.63
-19.38
-14.66
-10.62
-7.16
-4.08
-1.16
1.72
4.58
7.31
9.78
11.83
13.37
14.36
14.87
15.00
14.91
14.80
14.82
15.06
15.52
16.07
16.55
16.82
16.77
16.35
15.56
14.43
12.99
11.32
9.57
7.87
6.27
4.73
3.10
1.21
-1.03
-3.58
-6.28
-8.97
-11.54
-14.01
-16.45
-19.02
-21.81
-24.92
-28.36
-32.13
-36.07
-39.85
-42.92
-44.62
-44.39
-41.98
-37.58
-31.83
-25.55
-19.51
-14.13
-9.46
-5.29
-1.41
2.28
5.74
8.77
11.23
13.11
14.52
15.65
16.68
17.70
18.76
19.80
20.84
21.85
22.87
23.92
24.93
25.79
26.26
26.11
25.20
23.56
21.40
19.08
16.90
15.09
13.64
12.39
11.01
9.21
6.81
3.86
0.59
-2.63
-5.55
-8.07
-10.35
-12.73
-15.60
-19.16
-23.35
-27.74
-31.64
-34.28
-34.99
-33.38
-29.56
-24.01
-17.62
-11.30
-5.80
-1.46
1.78
4.25
6.38
8.46
10.56
12.60
14.42
15.91
17.04
17.92
18.66
19.39
20.17
21.04
21.99
23.01
24.09
25.14
26.11
26.88
27.27
27.08
26.18
24.60
22.50
20.22
18.02
16.07
14.36
12.68
10.76
8.37
5.42
1.97
-1.72
-5.32
-8.55
-11.31
-13.69
-15.96
-18.53
-21.74
-25.81
-30.72
-36.20
-41.69
-46.44
-49.65
-50.63
-49.12
-45.31
-39.83
-33.53
-27.15
-21.18
-15.76
-10.78
-6.08
-1.55
2.90
7.28
11.54
15.63
19.39
22.66
25.30
27.23
28.54
29.40
30.10
30.90
32.00
33.40
34.90
36.10
36.59
36.15
34.85
33.02
31.16
29.62
28.45
27.50
26.42
24.93
22.97
20.66
18.23
15.90
13.82
11.99
10.32
8.67
6.88
4.77
2.25
-0.72
-4.07
-7.66
-11.29
-14.84
-18.29
-21.74
-25.46
-29.72
-34.74
-40.46
-46.47
-52.00
-56.05
-57.74
-56.59
-52.68
-46.68
-39.53
-32.18
-25.24
-18.96
-13.22
-7.78
-2.42
2.93
8.19
13.18
17.69
21.64
25.06
28.03
30.67
33.00
34.97
36.51
37.63
38.43
39.04
39.57
40.00
40.20
40.00
39.29
38.13
36.66
35.09
33.56
32.12
30.74
29.33
27.76
25.94
23.81
21.38
18.78
16.19
13.80
11.71
9.84
7.95
5.73
2.97
-0.34
-4.01
-7.74
-11.28
-14.51
-17.50
-20.46
-23.59
-27.10
-31.16
-35.90
-41.29
-46.99
-52.30
-56.21
-57.68
-56.07
-51.40
-44.42
-36.25
-28.05
-20.52
-13.91
-8.09
-2.81
2.08
6.61
10.74
14.51
17.99
21.28
24.37
27.14
29.42
31.13
32.29
33.08
33.69
34.29
34.96
35.68
36.41
37.11
37.69
38.03
37.95
37.31
36.09
34.41
32.54
30.69
28.96
27.21
25.18
22.64
19.51
15.91
12.15
8.54
5.30
2.52
0.12
-2.02
-4.13
-6.41
-8.94
-11.70
-14.50
-17.04
-19.13
-20.79
-22.27
-24.07
-26.66
-30.38
-35.18
-40.67
-46.11
-50.59
-53.27
-53.53
-51.21
-46.57
-40.22
-32.96
-25.52
-18.48
-12.10
-6.45
-1.40
3.23
7.59
11.80
15.89
19.77
23.28
26.20
28.30
29.46
29.70
29.24
28.45
27.73
27.47
27.83
28.72
29.85
30.82
31.24
30.91
29.87
28.34
26.65
25.08
23.76
22.62
21.49
20.18
18.63
16.85
14.95
13.05
11.14
9.21
7.15
4.91
2.46
-0.15
-2.92
-5.82
-8.89
-12.13
-15.51
-18.94
-22.30
-25.59
-28.92
-32.51
-36.57
-41.10
-45.80
-49.98
-52.78
-53.44
-51.57
-47.29
-41.24
-34.29
-27.32
-20.96
-15.45
-10.75
-6.62
-2.76
1.03
4.79
8.47
11.87
14.78
17.11
18.79
19.95
20.74
21.37
22.06
22.94
24.09
25.51
27.09
28.66
30.00
30.90
31.13
30.57
29.15
26.95
24.17
21.19
18.38
16.01
14.18
12.76
11.52
10.28
9.05
7.97
7.20
6.73
6.32
5.55
4.02
1.49
-1.97
-6.07
-10.47
-14.84
-18.98
-22.80
-26.33
-29.59
-32.68
-35.75
-38.94
-42.35
-45.93
-49.28
-51.81
-52.81
-51.73
-48.38
-43.06
-36.46
-29.51
-22.95
-17.17
-12.22
-7.81
-3.60
0.61
4.87
9.06
12.97
16.44
19.36
21.64
23.19
23.97
23.99
23.44
22.63
21.94
21.72
22.08
22.85
23.67
24.13
24.01
23.38
22.50
21.67
21.06
20.59
20.06
19.32
18.32
17.11
15.77
14.27
12.48
10.28
7.60
4.54
1.36
-1.70
-4.55
-7.14
-9.57
-11.97
-14.51
-17.41
-20.92
-25.20
-30.15
-35.31
-39.88
-42.92
-43.66
-41.78
-37.56
-31.72
-25.20
-18.81
-13.11
-8.27
-4.21
-0.73
2.37
5.22
7.88
10.31
12.52
14.53
16.34
17.98
19.40
20.61
21.55
22.26
22.76
23.15
23.51
23.90
24.31
24.63
24.65
24.15
23.00
21.22
18.98
16.61
14.36
12.38
10.56
8.67
6.42
3.61
0.26
-3.49
-7.36
-11.11
-14.54
-17.60
-20.36
-22.98
-25.76
-29.01
-33.01
-37.84
-43.29
-48.75
-53.34
-56.07
-56.20
-53.44
-48.10
-41.01
-33.20
-25.62
-18.78
-12.82
-7.50
-2.51
2.37
7.11
11.57
15.48
18.70
21.18
22.92
24.01
24.55
24.71
24.74
24.91
25.44
26.42
27.76
29.22
30.50
31.36
31.63
31.26
30.25
28.67
26.64
24.36
21.99
19.67
17.40
15.12
12.70
10.09
7.31
4.49
1.76
-0.81
-3.26
-5.68
-8.19
-10.81
-13.47
-16.06
-18.43
-20.59
-22.65
-24.87
-27.55
-30.95
-35.20
-40.16
-45.51
-50.62
-54.70
-56.92
-56.63
-53.62
-48.19
-41.04
-33.14
-25.36
-18.26
-12.06
-6.64
-1.74
2.90
7.48
12.05
16.56
20.85
24.68
27.82
30.12
31.58
32.37
32.81
33.20
33.78
34.64
35.69
36.72
37.49
37.77
37.40
36.37
34.75
32.68
30.36
28.02
25.90
24.14
22.81
21.83
20.98
20.01
18.67
16.79
14.33
11.35
8.04
4.64
1.38
-1.57
-4.22
-6.69
-9.20
-11.92
-14.90
-18.02
-21.10
-23.93
-26.43
-28.76
-31.26
-34.33
-38.33
-43.33
-48.99
-54.57
-59.01
-61.30
-60.71
-57.09
-50.88
-42.95
-34.35
-25.93
-18.24
-11.42
-5.31
0.40
5.93
11.40
16.69
21.59
25.83
29.19
31.64
33.33
34.52
35.53
36.59
37.80
39.08
40.29
41.17
41.46
41.00
39.77
37.85
35.49
32.97
30.58
28.57
27.04
25.94
25.10
24.16
22.78
20.72
17.92
14.63
11.23
8.13
5.56
3.43
1.45
-0.73
-3.28
-6.17
-9.16
-11.94
-14.36
-16.44
-18.43
-20.69
-23.52
-27.11
-31.50
-36.46
-41.52
-45.96
-48.88
-49.49
-47.34
-42.59
-35.95
-28.47
-21.19
-14.81
-9.49
-4.99
-0.80
3.48
7.97
12.61
17.10
21.12
24.46
27.01
28.80
29.91
30.50
30.77
30.94
31.17
31.56
32.09
32.58
32.81
32.59
31.87
30.76
29.49
28.30
27.32
26.57
25.93
25.25
24.42
23.42
22.28
21.04
19.71
18.17
16.36
14.20
11.79
9.27
6.82
4.54
2.37
0.17
-2.31
-5.20
-8.54
-12.15
-15.79
-19.23
-22.31
-25.10
-27.81
-30.77
-34.35
-38.79
-44.07
-49.87
-55.51
-60.04
-62.56
-62.35
-59.17
-53.32
-45.63
-37.17
-28.93
-21.60
-15.41
-10.24
-5.75
-1.59
2.50
6.59
10.57
14.25
17.44
20.00
21.91
23.31
24.42
25.54
26.94
28.69
30.74
32.86
34.79
36.31
37.32
37.77
37.64
36.92
35.61
33.79
31.63
29.31
27.01
24.77
22.54
20.27
18.01
15.90
14.12
12.75
11.65
10.56
9.24
7.57
5.62
3.62
1.70
-0.12
-2.04
-4.31
-7.09
-10.40
-14.06
-17.82
-21.36
-24.57
-27.40
-30.01
-32.66
-35.67
-39.26
-43.45
-47.96
-52.17
-55.32
-56.59
-55.41
-51.68
-45.79
-38.56
-31.01
-23.98
-17.95
-12.99
-8.84
-5.13
-1.57
1.99
5.53
8.97
12.21
15.15
17.70
19.78
21.40
22.63
23.64
24.63
25.74
27.01
28.33
29.53
30.46
31.00
31.09
30.74
30.00
28.94
27.63
26.15
24.56
22.96
21.37
19.83
18.33
16.88
15.43
13.94
12.36
10.69
8.95
7.19
5.46
3.77
2.11
0.40
-1.43
-3.46
-5.76
-8.38
-11.30
-14.42
-17.54
-20.50
-23.14
-25.43
-27.52
-29.64
-32.12
-35.20
-39.00
-43.35
-47.78
-51.56
-53.78
-53.64
-50.72
-45.15
-37.69
-29.43
-21.53
-14.76
-9.43
-5.37
-2.12
0.76
3.56
6.38
9.24
12.02
14.62
16.87
18.65
19.91
20.70
21.15
21.49
21.93
22.58
23.47
24.49
25.46
26.19
26.51
26.32
25.57
24.35
22.78
21.09
19.50
18.20
17.34
16.87
16.67
16.52
16.21
15.57
14.56
13.13
11.31
9.11
6.56
3.77
0.85
-2.09
-4.97
-7.76
-10.52
-13.29
-16.01
-18.57
-20.80
-22.60
-24.01
-25.30
-26.90
-29.27
-32.76
-37.39
-42.78
-48.14
-52.49
-54.89
-54.71
-51.86
-46.73
-40.12
-32.94
-25.97
-19.71
-14.36
-9.89
-6.10
-2.79
0.27
3.22
6.14
8.93
11.44
13.49
15.01
16.09
17.02
18.08
19.47
21.20
23.09
24.88
26.35
27.36
27.86
27.78
27.12
25.92
24.29
22.49
20.79
19.46
18.60
18.14
17.86
17.45
16.71
15.48
13.79
11.72
9.45
7.18
5.06
3.18
1.46
-0.30
-2.38
-5.00
-8.25
-11.99
-15.92
-19.71
-23.04
-25.76
-27.90
-29.68
-31.38
-33.38
-35.98
-39.34
-43.43
-47.89
-52.12
-55.30
-56.65
-55.62
-52.10
-46.48
-39.51
-32.13
-25.18
-19.16
-14.19
-10.05
-6.35
-2.77
0.86
4.47
7.83
10.64
12.70
13.93
14.46
14.57
14.56
14.74
15.35
16.47
18.06
19.91
21.77
23.37
24.56
25.29
25.64
25.71
25.54
25.16
24.51
23.59
22.42
21.06
19.54
17.90
16.18
14.49
12.92
11.56
10.33
9.04
7.39
5.17
2.38
-0.75
-3.88
-6.73
-9.25
-11.75
-14.62
-18.28
-22.85
-28.12
-33.54
-38.38
-41.90
-43.44
-42.66
-39.52
-34.37
-27.88
-20.91
-14.29
-8.57
-3.97
-0.29
2.77
5.49
7.92
9.97
11.50
12.51
13.16
13.75
14.55
15.62
16.84
18.06
19.11
19.98
20.75
21.54
22.34
23.03
23.33
23.01
21.91
20.07
17.69
15.06
12.41
9.88
7.51
5.23
2.95
0.56
-2.01
-4.84
-7.88
-11.02
-14.09
-16.91
-19.45
-21.84
-24.42
-27.52
-31.43
-36.20
-41.61
-47.21
-52.31
-56.10
-57.83
-56.99
-53.49
-47.76
-40.66
-33.22
-26.32
-20.45
-15.67
-11.67
-7.99
-4.29
-0.41
3.58
7.45
10.98
14.04
16.61
18.77
20.62
22.23
23.65
24.92
26.11
27.30
28.59
29.89
31.04
31.80
31.95
31.42
30.29
28.72
26.88
24.91
22.85
20.69
18.37
15.94
13.46
11.08
8.86
6.80
4.77
2.57
0.02
-2.95
-6.28
-9.85
-13.51
-17.18
-20.89
-24.75
-28.93
-33.62
-38.97
-45.02
-51.53
-57.92
-63.27
-66.54
-66.94
-64.19
-58.66
-51.25
-43.12
-35.20
-28.07
-21.77
-16.05
-10.55
-4.97
0.71
6.33
11.57
16.15
19.85
22.59
24.45
25.60
26.19
26.44
26.54
26.69
27.02
27.61
28.43
29.38
30.27
30.95
31.33
31.44
31.44
31.55
31.89
32.52
33.34
34.19
34.90
35.43
35.76
35.92
35.86
35.48
34.58
32.88
30.11
26.06
20.64
13.92
6.21
-2.04
-10.31
-18.16
-25.36
-31.89
-37.87
-43.39
-48.35
-52.43
-55.11
-55.90
-54.50
-50.92
-45.52
-38.96
-31.96
-25.10
-18.69
-12.74
-7.06
-1.47
4.11
9.60
14.70
19.11
22.62
25.16
26.90
28.10
29.04
29.95
30.91
31.85
32.66
33.25
33.57
33.64
33.52
33.23
32.74
32.00
30.96
29.67
28.21
26.73
25.33
23.96
22.42
20.45
17.84
14.53
10.66
6.51
2.35
-1.64
-5.47
-9.37
-13.57
-18.30
-23.67
-29.67
-36.14
-42.71
-48.77
-53.56
-56.31
-56.44
-53.81
-48.84
-42.37
-35.36
-28.57
-22.30
-16.44
-10.64
-4.53
1.97
8.76
15.49
21.74
27.16
31.52
34.78
37.11
38.72
39.91
40.90
41.82
42.71
43.54
44.26
44.79
45.07
44.99
44.46
43.42
41.84
39.74
37.25
34.52
31.81
29.36
27.32
25.66
24.11
22.27
19.73
16.37
12.30
7.86
3.41
-0.82
-4.83
-8.81
-13.02
-17.72
-23.01
-28.94
-35.35
-41.84
-47.77
-52.30
-54.64
-54.21
-50.91
-45.14
-37.76
-29.77
-22.03
-15.10
-9.18
-4.06
0.59
5.20
10.12
15.46
21.06
26.59
31.49
35.27
37.67
38.73
38.76
38.27
37.76
37.53
37.74
38.28
38.96
39.53
39.75
39.39
38.32
36.56
34.28
31.87
29.75
28.23
27.38
27.01
26.75
26.20
25.12
23.48
21.45
19.28
17.23
15.44
13.83
12.23
10.39
8.06
5.15
1.74
-1.95
-5.60
-8.99
-12.10
-15.06
-18.20
-21.84
-26.31
-31.77
-38.14
-45.04
-51.74
-57.29
-60.72
-61.32
-58.88
-53.79
-46.82
-38.90
-30.86
-23.17
-15.95
-9.08
-2.35
4.33
10.88
17.02
22.45
26.82
30.04
32.17
33.44
34.17
34.57
34.77
34.79
34.60
34.18
33.59
32.93
32.28
31.63
30.88
29.88
28.54
26.92
25.19
23.61
22.31
21.24
20.22
19.02
17.49
15.62
13.49
11.20
8.79
6.22
3.44
0.52
-2.46
-5.37
-8.14
-10.83
-13.61
-16.57
-19.73
-23.01
-26.19
-29.11
-31.69
-34.00
-36.28
-38.83
-41.83
-45.24
-48.67
-51.45
-52.80
-52.11
-49.09
-43.91
-37.21
-29.85
-22.71
-16.41
-11.24
-7.14
-3.77
-0.74
2.22
5.17
7.93
10.28
12.07
13.43
14.64
16.02
17.74
19.67
21.47
22.84
23.67
24.07
24.34
24.71
25.18
25.60
25.71
25.41
24.78
24.03
23.32
22.66
21.90
20.76
19.06
16.78
14.04
11.05
8.02
5.06
2.22
-0.46
-2.98
-5.28
-7.30
-9.00
-10.44
-11.79
-13.33
-15.39
-18.20
-21.81
-25.96
-30.17
-33.80
-36.21
-36.94
-35.73
-32.70
-28.21
-22.83
-17.21
-11.89
-7.21
-3.30
-0.03
2.75
5.20
7.37
9.19
10.59
11.56
12.17
12.55
12.88
13.26
13.70
14.19
14.71
15.27
15.87
16.48
16.98
17.19
16.92
16.07
14.72
12.99
11.09
9.20
7.39
5.72
4.21
2.83
1.47
0.00
-1.80
-4.04
-6.79
-9.90
-13.05
-15.91
-18.18
-19.72
-20.65
-21.27
-22.01
-23.30
-25.48
-28.65
-32.63
-36.90
-40.71
-43.23
-43.79
-42.03
-38.14
-32.75
-26.68
-20.78
-15.62
-11.39
-7.97
-5.06
-2.36
0.35
3.06
5.72
8.16
10.23
11.80
12.81
13.28
13.35
13.22
13.14
13.30
13.78
14.55
15.50
16.46
17.26
17.77
17.87
17.51
16.76
15.73
14.60
13.51
12.51
11.52
10.42
9.07
7.44
5.62
3.70
1.74
-0.25
-2.31
-4.50
-6.86
-9.40
-12.14
-15.09
-18.20
-21.36
-24.38
-27.08
-29.35
-31.32
-33.31
-35.72
-38.74
-42.19
-45.42
-47.50
-47.58
-45.17
-40.47
-34.18
-27.29
-20.68
-14.87
-9.97
-5.89
-2.44
0.54
3.12
5.34
7.30
9.11
10.84
12.53
14.07
15.37
16.36
17.07
17.60
18.10
18.68
19.41
20.25
21.03
21.52
21.41
20.51
18.76
16.32
13.51
10.69
8.15
6.07
4.46
3.20
2.15
1.18
0.17
-0.91
-2.07
-3.28
-4.53
-5.82
-7.28
-9.00
-11.04
-13.30
-15.56
-17.59
-19.24
-20.58
-21.85
-23.38
-25.41
-28.12
-31.51
-35.39
-39.44
-43.09
-45.62
-46.31
-44.71
-40.75
-34.92
-28.03
-20.99
-14.51
-8.96
-4.41
-0.69
2.40
5.08
7.50
9.79
12.00
14.10
16.00
17.54
18.67
19.38
19.78
20.03
20.30
20.69
21.19
21.75
22.24
22.49
22.41
21.94
21.08
19.92
18.53
17.05
15.60
14.25
13.04
11.92
10.78
9.48
7.90
6.01
3.85
1.51
-0.92
-3.38
-5.86
-8.31
-10.69
-12.88
-14.81
-16.43
-17.86
-19.41
-21.43
-24.29
-28.13
-32.78
-37.67
-41.98
-44.82
-45.50
-43.76
-39.79
-34.16
-27.65
-21.09
-15.16
-10.31
-6.59
-3.82
-1.55
0.73
3.36
6.43
9.73
12.86
15.45
17.33
18.57
19.38
19.97
20.47
20.89
21.25
21.59
22.08
22.82
23.77
24.65
25.03
24.59
23.23
21.25
19.19
17.57
16.62
16.24
16.03
15.54
14.50
12.90
10.96
8.93
7.06
5.45
4.08
2.83
1.50
-0.16
-2.35
-5.15
-8.46
-12.04
-15.59
-18.83
-21.63
-24.01
-26.18
-28.47
-31.22
-34.69
-38.83
-43.16
-46.76
-48.48
-47.40
-43.25
-36.72
-29.31
-22.92
-19.16
-18.84
-21.66
-26.44
-31.56
-35.42
-36.96
-35.73
-31.95
-26.23
-19.45
-12.45
-5.92
-0.35
4.08
7.41
9.88
11.84
13.65
15.58
17.70
19.89
21.83
23.18
23.75
23.62
23.13
22.75
22.86
23.60
24.79
26.06
26.97
27.26
26.87
25.95
24.72
23.39
22.07
20.81
19.65
18.63
17.71
16.88
16.00
14.93
13.61
12.02
10.25
8.48
6.86
5.41
4.05
2.57
0.76
-1.56
-4.46
-7.84
-11.48
-15.11
-18.45
-21.32
-23.71
-25.77
-27.89
-30.54
-34.11
-38.71
-43.97
-49.15
-53.25
-55.32
-54.78
-51.56
-46.12
-39.25
-31.82
-24.59
-18.12
-12.68
-8.27
-4.66
-1.48
1.65
4.96
8.44
11.84
14.83
17.07
18.43
18.97
18.93
18.64
18.43
18.53
19.09
20.15
21.69
23.60
25.67
27.66
29.26
30.25
30.50
30.07
29.12
27.99
26.92
26.02
25.18
24.23
22.89
20.99
18.48
15.47
12.18
8.90
5.84
3.09
0.61
-1.78
-4.29
-7.08
-10.17
-13.47
-16.75
-19.80
-22.49
-24.87
-27.12
-29.54
-32.47
-36.15
-40.67
-45.80
-50.93
-55.21
-57.73
-57.73
-54.95
-49.67
-42.71
-35.12
-27.92
-21.74
-16.76
-12.75
-9.26
-5.83
-2.10
2.03
6.49
11.04
15.38
19.23
22.44
24.97
26.91
28.41
29.60
30.59
31.49
32.43
33.49
34.65
35.75
36.51
36.67
36.16
35.07
33.66
32.15
30.60
28.98
27.23
25.39
23.62
22.06
20.69
19.35
17.79
15.85
13.59
11.26
9.12
7.33
5.74
4.04
1.82
-1.19
-5.01
-9.40
-13.94
-18.28
-22.13
-25.53
-28.72
-32.10
-36.09
-40.95
-46.69
-52.93
-58.97
-63.82
-66.49
-66.22
-62.75
-56.44
-48.16
-39.04
-30.17
-22.38
-16.01
-11.03
-7.04
-3.48
0.16
4.24
8.83
13.76
18.63
23.05
26.73
29.57
31.71
33.36
34.77
36.14
37.58
39.12
40.70
42.15
43.26
43.82
43.65
42.73
41.17
39.17
37.02
34.94
33.06
31.40
29.97
28.72
27.61
26.58
25.51
24.26
22.67
20.67
18.27
15.58
12.76
9.94
7.18
4.38
1.41
-1.85
-5.43
-9.28
-13.26
-17.23
-21.04
-24.61
-27.86
-30.84
-33.70
-36.79
-40.58
-45.40
-51.30
-57.81
-63.92
-68.39
-70.00
-68.05
-62.51
-54.16
-44.22
-34.05
-24.77
-17.00
-10.80
-5.83
-1.54
2.52
6.61
10.74
14.74
18.38
21.47
23.89
25.60
26.71
27.43
28.07
28.94
30.26
32.09
34.33
36.67
38.78
40.38
41.29
41.49
41.03
40.02
38.58
36.86
35.03
33.31
31.86
30.76
29.92
29.14
28.18
26.87
25.17
23.19
21.04
18.87
16.70
14.54
12.41
10.33
8.30
6.23
3.92
1.15
-2.24
-6.23
-10.62
-15.15
-19.61
-23.90
-28.08
-32.30
-36.78
-41.76
-47.48
-54.05
-61.26
-68.45
-74.53
-78.17
-78.28
-74.37
-66.82
-56.72
-45.53
-34.58
-24.73
-16.34
-9.23
-2.98
2.93
8.85
14.93
21.00
26.68
31.57
35.35
37.94
39.52
40.46
41.13
41.84
42.69
43.68
44.72
45.66
46.36
46.62
46.27
45.23
43.60
41.58
39.52
37.74
36.37
35.38
34.54
33.60
32.34
30.72
28.81
26.75
24.69
22.69
20.75
18.80
16.70
14.38
11.81
9.08
6.34
3.73
1.28
-1.09
-3.59
-6.44
-9.75
-13.48
-17.44
-21.38
-25.15
-28.73
-32.18
-35.74
-39.67
-44.29
-49.89
-56.56
-63.93
-71.12
-76.79
-79.50
-78.23
-72.79
-63.91
-53.02
-41.73
-31.36
-22.62
-15.57
-9.83
-4.86
-0.16
4.56
9.34
14.08
18.56
22.56
25.96
28.75
31.01
32.86
34.47
35.92
37.28
38.55
39.71
40.77
41.67
42.34
42.67
42.53
41.83
40.54
38.69
36.49
34.12
31.80
29.65
27.68
25.80
23.89
21.84
19.63
17.39
15.25
13.35
11.69
10.12
8.41
6.32
3.76
0.73
-2.57
-5.97
-9.27
-12.36
-15.22
-17.88
-20.43
-23.04
-25.92
-29.38
-33.76
-39.23
-45.64
-52.36
-58.30
-62.16
-62.75
-59.49
-52.59
-43.06
-32.30
-21.76
-12.47
-4.85
1.15
5.93
9.97
13.59
16.91
19.89
22.40
24.39
25.92
27.21
28.51
30.06
32.04
34.48
37.34
40.43
43.50
46.19
48.09
48.85
48.29
46.42
43.46
39.76
35.64
31.40
27.23
23.21
19.41
15.90
12.72
9.96
7.62
5.58
3.68
1.66
-0.75
-3.77
-7.56
-12.18
-17.55
-23.41
-29.45
-35.31
-40.74
-45.67
-50.26
-54.80
-59.57
-64.54
-69.29
-72.99
-74.57
-73.05
-67.87
-59.19
-47.86
-35.26
-22.93
-12.09
-3.43
3.04
7.74
11.38
14.60
17.82
21.17
24.54
27.78
30.75
33.46
35.92
38.21
40.29
42.04
43.36
44.15
44.41
44.18
43.51
42.34
40.61
38.31
35.56
32.62
29.82
27.40
25.40
23.69
22.06
20.36
18.55
16.68
14.76
12.70
10.32
7.39
3.81
-0.33
-4.85
-9.44
-13.95
-18.32
-22.70
-27.33
-32.46
-38.30
-44.94
-52.20
-59.56
-66.10
-70.68
-72.21
-70.00
-64.10
-55.30
-44.96
-34.55
-25.18
-17.42
-11.19
-5.97
-1.08
4.03
9.63
15.57
21.44
26.70
30.84
33.64
35.22
36.03
36.62
37.46
38.73
40.41
42.20
43.81
44.98
45.55
45.44
44.57
42.93
40.57
37.62
34.34
30.99
27.81
24.87
22.12
19.38
16.42
13.01
8.99
4.29
-0.95
-6.53
-12.11
-17.38
-22.22
-26.74
-31.31
-36.42
-42.56
-49.93
-58.40
-67.38
-75.90
-82.79
-86.85
-87.22
-83.65
-76.65
-67.36
-57.26
-47.67
-39.49
-32.97
-27.85
-23.57
-19.57
-15.46
-11.04
-6.30
-1.21
4.18
9.66
14.76
18.73
20.76
20.27
17.29
12.60
7.74
4.60
4.95
10.06
20.37
35.52
54.32
74.87
94.80
111.51
122.72
126.86
123.48
113.21
97.56
78.48
57.84
37.19
17.62
-0.12
-15.45
-27.90
-37.18
-43.24
-46.41
-47.40
-47.23
-46.87
-46.99
-47.75
-48.75
-49.32
-48.78
-46.71
-42.97
-37.63
-30.90
-23.08
-14.66
-6.29
1.30
7.58
12.41
16.13
19.41
22.92
27.01
31.57
36.01
39.44
40.91
39.66
35.57
29.45
23.10
19.02
19.58
25.94
37.30
50.77
62.15
67.36
63.79
51.11
31.15
7.06
-17.87
-41.04
-60.80
-76.28
-87.08
-92.95
-93.93
-90.40
-83.36
-74.29
-64.90
-56.73
-50.84
-47.64
-46.87
-47.83
-49.56
-51.05
-51.46
-50.22
-47.09
-42.06
-35.30
-27.04
-17.58
-7.23
3.63
14.57
25.19
35.10
44.05
51.93
58.65
64.20
68.57
71.84
74.24
76.14
77.98
80.06
82.46
84.95
87.07
88.40
88.71
88.10
86.84
85.26
83.50
81.38
78.61
74.87
70.08
64.49
58.56
52.83
47.63
43.10
39.08
35.37
31.68
27.76
23.33
18.17
12.08
4.92
-3.26
-12.38
-22.23
-32.61
-43.35
-54.29
-65.19
-75.62
-84.89
-92.03
-96.06
-96.19
-92.19
-84.50
-74.07
-62.12
-49.74
-37.58
-25.94
-14.86
-4.32
5.54
14.48
22.18
28.32
32.67
35.15
35.89
35.24
33.77
32.12
30.87
30.34
30.59
31.45
32.64
33.89
34.98
35.71
35.93
35.52
34.42
32.61
30.14
27.08
23.54
19.65
15.63
11.76
8.36
5.66
3.72
2.32
1.02
-0.69
-3.25
-6.87
-11.47
-16.71
-22.14
-27.39
-32.26
-36.83
-41.40
-46.40
-52.21
-58.95
-66.30
-73.44
-79.10
-81.94
-80.91
-75.61
-66.48
-54.59
-41.36
-28.07
-15.65
-4.49
5.44
14.39
22.64
30.41
37.78
44.73
51.07
56.49
60.68
63.40
64.62
64.51
63.43
61.77
59.96
58.28
56.86
55.58
54.15
52.14
49.23
45.45
41.28
37.70
35.80
36.31
39.17
43.47
47.63
50.06
49.69
46.34
40.66
33.71
26.38
19.03
11.50
3.35
-5.65
-15.28
-24.83
-33.31
-39.82
-43.86
-45.49
-45.21
-43.88
-42.47
-41.85
-42.66
-45.15
-49.10
-53.74
-57.94
-60.51
-60.51
-57.62
-52.31
-45.67
-39.05
-33.64
-30.14
-28.55
-28.40
-29.03
-29.81
-30.33
-30.42
-29.98
-29.00
-27.48
-25.45
-23.01
-20.35
-17.66
-15.06
-12.63
-10.28
-7.93
-5.52
-3.04
-0.58
1.71
3.66
5.14
6.15
6.75
7.08
7.23
7.18
6.86
6.14
4.98
3.43
1.72
0.07
-1.36
-2.54
-3.57
-4.66
-6.00
-7.70
-9.82
-12.28
-14.95
-17.61
-20.07
-22.26
-24.38
-26.82
-30.13
-34.74
-40.68
-47.37
-53.66
-58.04
-59.22
-56.51
-50.14
-41.13
-31.01
-21.27
-12.93
-6.42
-1.57
2.10
5.18
8.12
11.10
14.11
16.94
19.35
21.15
22.29
22.89
23.13
23.24
23.35
23.52
23.73
23.90
23.98
23.91
23.57
22.89
21.82
20.38
18.71
16.98
15.31
13.73
12.22
10.65
8.91
6.98
4.89
2.78
0.82
-0.86
-2.24
-3.43
-4.63
-6.03
-7.66
-9.43
-11.14
-12.64
-13.97
-15.38
-17.30
-20.15
-24.22
-29.42
-35.21
-40.62
-44.40
-45.37
-42.84
-36.90
-28.42
-18.84
-9.63
-1.87
4.01
8.15
10.97
12.90
14.15
14.77
14.79
14.24
13.29
12.18
11.18
10.48
10.25
10.47
11.06
11.85
12.67
13.40
13.96
14.31
14.35
13.98
13.06
11.54
9.46
6.93
4.15
1.33
-1.35
-3.69
-5.59
-7.03
-8.17
-9.33
-10.84
-12.99
-15.84
-19.28
-23.02
-26.76
-30.30
-33.64
-36.91
-40.35
-44.25
-48.82
-54.11
-59.93
-65.72
-70.61
-73.51
-73.44
-69.79
-62.70
-53.02
-42.12
-31.43
-22.04
-14.39
-8.28
-3.19
1.50
6.10
10.66
14.98
18.77
21.86
24.23
25.99
27.27
28.17
28.76
29.10
29.29
29.40
29.50
29.60
29.62
29.42
28.84
27.83
26.40
24.66
22.70
20.56
18.23
15.66
12.78
9.67
6.48
3.41
0.59
-2.03
-4.63
-7.47
-10.75
-14.46
-18.40
-22.27
-25.87
-29.17
-32.35
-35.72
-39.61
-44.32
-49.99
-56.56
-63.57
-70.19
-75.19
-77.34
-75.73
-70.21
-61.50
-51.00
-40.27
-30.60
-22.59
-16.17
-10.87
-6.09
-1.42
3.34
8.13
12.74
16.96
20.60
23.57
25.86
27.51
28.67
29.52
30.27
31.10
32.12
33.28
34.46
35.44
35.97
35.93
35.31
34.21
32.77
31.15
29.38
27.48
25.39
23.06
20.49
17.81
15.12
12.50
9.93
7.24
4.18
0.60
-3.58
-8.25
-13.20
-18.22
-23.14
-27.88
-32.52
-37.21
-42.26
-48.00
-54.64
-62.08
-69.65
-76.22
-80.36
-80.87
-77.08
-69.25
-58.44
-46.24
-34.27
-23.79
-15.35
-8.81
-3.58
1.11
5.86
10.87
15.90
20.49
24.18
26.77
28.39
29.42
30.29
31.28
32.50
33.93
35.52
37.20
38.88
40.39
41.51
41.99
41.70
40.71
39.25
37.63
36.09
34.68
33.32
31.84
30.10
27.96
25.38
22.38
19.00
15.30
11.38
7.36
3.38
-0.44
-3.98
-7.29
-10.55
-14.06
-18.22
-23.41
-29.83
-37.41
-45.71
-53.88
-60.84
-65.36
-66.44
-63.60
-57.06
-47.71
-36.85
-25.84
-15.71
-6.99
0.25
6.23
11.26
15.59
19.36
22.60
25.33
27.56
29.31
30.72
31.94
33.16
34.53
36.10
37.83
39.58
41.17
42.41
43.12
43.17
42.49
41.12
39.20
36.96
34.68
32.57
30.71
28.99
27.25
25.29
23.01
20.43
17.63
14.69
11.63
8.36
4.73
0.65
-3.88
-8.71
-13.58
-18.20
-22.44
-26.35
-30.22
-34.46
-39.57
-45.88
-53.47
-61.88
-70.17
-76.98
-80.85
-80.65
-76.04
-67.53
-56.39
-44.24
-32.48
-22.01
-13.03
-5.28
1.73
8.41
14.98
21.39
27.39
32.66
36.89
39.95
41.88
42.96
43.56
44.12
44.95
46.16
47.73
49.46
51.15
52.60
53.65
54.19
54.16
53.60
52.53
51.07
49.30
47.29
45.13
42.86
40.56
38.25
35.88
33.32
30.39
27.00
23.25
19.39
15.77
12.61
9.90
7.39
4.70
1.56
-2.15
-6.29
-10.63
-14.90
-18.94
-22.77
-26.54
-30.47
-34.87
-40.03
-46.24
-53.62
-61.93
-70.46
-77.97
-82.96
-84.07
-80.60
-72.86
-62.11
-50.13
-38.64
-28.73
-20.70
-14.09
-8.16
-2.22
4.10
10.78
17.48
23.77
29.30
33.88
37.59
40.61
43.16
45.36
47.23
48.75
49.92
50.89
51.81
52.83
53.84
54.62
54.92
54.53
53.47
51.96
50.28
48.65
47.18
45.81
44.37
42.64
40.43
37.68
34.46
30.95
27.38
23.87
20.48
17.10
13.56
9.78
5.81
1.89
-1.73
-4.84
-7.47
-9.84
-12.31
-15.19
-18.59
-22.39
-26.30
-30.05
-33.57
-36.99
-40.71
-45.22
-50.90
-57.87
-65.78
-73.75
-80.45
-84.43
-84.57
-80.43
-72.49
-62.00
-50.51
-39.46
-29.72
-21.50
-14.48
-8.09
-1.80
4.66
11.29
17.87
24.02
29.40
33.77
37.09
39.46
41.15
42.47
43.74
45.20
46.97
49.00
51.06
52.79
53.84
53.94
53.04
51.28
48.97
46.47
44.05
41.88
39.89
37.95
35.87
33.54
30.91
28.12
25.38
22.85
20.60
18.53
16.44
14.12
11.44
8.41
5.18
1.91
-1.31
-4.47
-7.69
-11.12
-14.88
-18.97
-23.26
-27.53
-31.58
-35.26
-38.57
-41.70
-45.03
-49.00
-53.97
-60.04
-66.80
-73.34
-78.36
-80.53
-78.93
-73.45
-64.74
-54.12
-43.03
-32.68
-23.75
-16.33
-10.10
-4.55
0.81
6.34
12.16
18.12
23.86
28.95
33.05
36.04
38.03
39.34
40.30
41.20
42.20
43.31
44.48
45.61
46.52
46.96
46.72
45.65
43.80
41.44
38.93
36.64
34.74
33.22
31.88
30.45
28.77
26.81
24.69
22.60
20.72
19.03
17.43
15.65
13.49
10.82
7.70
4.33
0.97
-2.22
-5.28
-8.37
-11.73
-15.48
-19.57
-23.79
-27.89
-31.70
-35.21
-38.61
-42.16
-46.18
-50.93
-56.57
-63.04
-69.87
-76.21
-80.88
-82.66
-80.71
-74.88
-65.87
-54.96
-43.62
-33.01
-23.76
-15.95
-9.23
-3.24
2.33
7.60
12.56
17.11
21.14
24.56
27.28
29.29
30.60
31.35
31.73
31.96
32.31
32.90
33.71
34.60
35.34
35.70
35.64
35.23
34.65
34.08
33.56
33.00
32.22
31.10
29.59
27.74
25.67
23.46
21.19
18.89
16.60
14.37
12.21
10.11
8.03
5.88
3.59
1.16
-1.42
-4.10
-6.88
-9.82
-12.95
-16.23
-19.55
-22.72
-25.55
-28.10
-30.62
-33.57
-37.44
-42.55
-48.74
-55.36
-61.34
-65.36
-66.34
-63.71
-57.58
-48.78
-38.60
-28.40
-19.24
-11.66
-5.58
-0.57
3.90
8.22
12.52
16.64
20.40
23.66
26.38
28.63
30.42
31.72
32.51
32.91
33.16
33.63
34.55
35.92
37.47
38.74
39.26
38.78
37.28
34.98
32.21
29.28
26.43
23.79
21.38
19.12
16.91
14.71
12.51
10.33
8.17
5.96
3.60
0.93
-2.16
-5.66
-9.49
-13.44
-17.24
-20.71
-23.74
-26.50
-29.37
-32.86
-37.39
-43.12
-49.73
-56.43
-62.10
-65.55
-65.90
-62.80
-56.60
-48.21
-38.84
-29.66
-21.46
-14.51
-8.60
-3.29
1.81
6.85
11.72
16.15
19.84
22.64
24.57
25.81
26.62
27.26
27.97
28.88
30.10
31.64
33.47
35.51
37.58
39.39
40.62
40.94
40.13
38.25
35.60
32.61
29.71
27.10
24.74
22.43
19.92
17.13
14.11
11.07
8.20
5.63
3.34
1.23
-0.83
-3.01
-5.44
-8.26
-11.51
-15.22
-19.22
-23.25
-26.99
-30.24
-33.01
-35.66
-38.73
-42.86
-48.51
-55.59
-63.44
-70.80
-76.20
-78.33
-76.48
-70.77
-62.08
-51.77
-41.21
-31.43
-22.95
-15.78
-9.59
-3.96
1.52
7.07
12.71
18.26
23.43
27.89
31.47
34.17
36.16
37.70
39.04
40.29
41.51
42.65
43.67
44.52
45.14
45.47
45.43
44.97
44.01
42.58
40.77
38.74
36.60
34.45
32.26
29.96
27.46
24.71
21.82
18.98
16.42
14.32
12.66
11.27
9.83
8.08
5.94
3.51
1.00
-1.35
-3.44
-5.35
-7.33
-9.64
-12.46
-15.75
-19.33
-22.96
-26.46
-29.72
-32.77
-35.67
-38.60
-41.78
-45.51
-50.12
-55.73
-62.04
-68.20
-72.95
-74.98
-73.38
-68.07
-59.79
-49.89
-39.81
-30.62
-22.82
-16.36
-10.84
-5.82
-0.96
3.92
8.80
13.59
18.13
22.21
25.62
28.28
30.20
31.60
32.76
33.97
35.40
37.07
38.86
40.54
41.83
42.51
42.43
41.56
39.98
37.87
35.52
33.20
31.19
29.58
28.32
27.20
25.99
24.50
22.74
20.86
19.08
17.63
16.53
15.64
14.63
13.21
11.15
8.49
5.39
2.14
-0.99
-3.85
-6.49
-9.07
-11.87
-15.10
-18.81
-22.86
-26.96
-30.77
-34.09
-36.94
-39.60
-42.56
-46.33
-51.24
-57.19
-63.56
-69.31
-73.15
-73.96
-71.11
-64.74
-55.67
-45.22
-34.80
-25.47
-17.77
-11.64
-6.60
-2.00
2.67
7.63
12.79
17.80
22.31
26.06
28.98
31.10
32.50
33.23
33.34
33.00
32.49
32.21
32.48
33.35
34.57
35.68
36.17
35.82
34.64
32.89
30.96
29.09
27.42
25.93
24.57
23.27
21.99
20.70
19.33
17.81
16.06
14.01
11.73
9.30
6.87
4.61
2.55
0.65
-1.21
-3.16
-5.35
-7.83
-10.66
-13.82
-17.23
-20.79
-24.38
-27.89
-31.31
-34.79
-38.59
-43.06
-48.47
-54.75
-61.42
-67.55
-71.89
-73.27
-70.93
-64.86
-55.78
-45.07
-34.18
-24.37
-16.28
-9.94
-4.93
-0.62
3.50
7.67
11.88
15.92
19.53
22.54
24.93
26.78
28.27
29.57
30.73
31.77
32.73
33.68
34.70
35.89
37.19
38.33
38.98
38.78
37.65
35.78
33.59
31.48
29.68
28.13
26.57
24.79
22.76
20.63
18.65
16.97
15.54
14.16
12.58
10.61
8.22
5.52
2.67
-0.14
-2.77
-5.20
-7.53
-9.99
-12.86
-16.30
-20.29
-24.59
-28.82
-32.66
-35.92
-38.69
-41.23
-43.96
-47.26
-51.48
-56.66
-62.51
-68.30
-72.95
-75.29
-74.40
-69.99
-62.53
-53.10
-43.10
-33.75
-25.84
-19.57
-14.61
-10.36
-6.20
-1.74
3.10
8.05
12.71
16.69
19.86
22.27
24.18
25.80
27.23
28.46
29.44
30.20
30.88
31.66
32.60
33.57
34.33
34.61
34.25
33.29
31.93
30.40
28.90
27.55
26.38
25.32
24.24
22.97
21.36
19.30
16.84
14.10
11.33
8.69
6.31
4.12
1.97
-0.34
-2.99
-6.07
-9.64
-13.56
-17.63
-21.51
-24.82
-27.34
-29.06
-30.31
-31.62
-33.59
-36.59
-40.63
-45.18
-49.31
-51.87
-51.90
-48.87
-42.92
-34.81
-25.65
-16.59
-8.53
-1.93
3.15
6.98
9.95
12.45
14.74
16.93
19.01
20.88
22.44
23.63
24.52
25.17
25.75
26.37
27.17
28.22
29.51
30.93
32.21
33.08
33.25
32.61
31.23
29.34
27.14
24.80
22.35
19.76
17.08
14.42
12.00
9.95
8.19
6.41
4.18
1.18
-2.68
-7.18
-11.91
-16.46
-20.61
-24.33
-27.80
-31.27
-34.99
-39.18
-43.99
-49.45
-55.28
-60.85
-65.18
-67.15
-65.94
-61.32
-53.83
-44.61
-35.01
-26.18
-18.68
-12.54
-7.31
-2.46
2.49
7.64
12.84
17.71
21.87
25.06
27.25
28.66
29.59
30.33
31.10
31.98
33.03
34.25
35.64
37.11
38.43
39.26
39.30
38.35
36.50
34.04
31.35
28.79
26.52
24.51
22.60
20.57
18.27
15.57
12.47
9.04
5.48
2.03
-1.09
-3.80
-6.23
-8.64
-11.32
-14.45
-17.97
-21.66
-25.20
-28.43
-31.36
-34.35
-37.86
-42.38
-48.20
-55.25
-62.94
-70.29
-76.02
-78.91
-78.16
-73.62
-65.86
-56.08
-45.73
-36.03
-27.73
-21.00
-15.48
-10.57
-5.74
-0.60
4.94
10.70
16.38
21.57
26.03
29.62
32.40
34.58
36.39
38.05
39.68
41.33
42.98
44.53
45.88
46.84
47.24
46.95
45.97
44.45
42.64
40.80
39.08
37.47
35.85
34.08
32.09
29.87
27.47
24.98
22.46
19.95
17.48
15.06
12.70
10.40
8.14
5.82
3.29
0.37
-3.10
-7.20
-11.83
-16.76
-21.63
-26.14
-30.22
-34.04
-37.93
-42.34
-47.61
-53.88
-61.06
-68.68
-75.92
-81.65
-84.69
-84.14
-79.68
-71.80
-61.66
-50.73
-40.28
-31.09
-23.24
-16.39
-10.01
-3.69
2.74
9.24
15.56
21.36
26.33
30.21
32.96
34.68
35.72
36.51
37.44
38.72
40.36
42.16
43.88
45.27
46.11
46.26
45.66
44.32
42.41
40.15
37.82
35.69
33.92
32.56
31.50
30.56
29.48
28.03
26.04
23.48
20.51
17.35
14.25
11.35
8.67
6.07
3.36
0.33
-3.16
-7.10
-11.33
-15.59
-19.56
-23.06
-26.08
-28.85
-31.75
-35.26
-39.79
-45.65
-52.79
-60.66
-68.21
-73.95
-76.43
-74.66
-68.52
-58.87
-47.23
-35.33
-24.50
-15.50
-8.29
-2.40
2.89
8.18
13.77
19.58
25.24
30.30
34.35
37.23
39.04
40.09
40.76
41.37
42.14
43.21
44.56
46.05
47.44
48.41
48.69
48.18
46.96
45.23
43.23
41.10
38.85
36.44
33.79
30.97
28.06
25.16
22.29
19.39
16.32
12.92
9.17
5.17
1.09
-2.88
-6.59
-10.03
-13.38
-16.90
-21.00
-26.03
-32.34
-39.97
-48.62
-57.49
-65.38
-70.91
-72.88
-70.68
-64.53
-55.40
-44.80
-34.21
-24.70
-16.65
-9.85
-3.71
2.30
8.44
14.56
20.34
25.44
29.68
33.10
35.84
38.09
39.90
41.29
42.29
43.01
43.64
44.37
45.29
46.29
47.06
47.22
46.44
44.66
42.12
39.21
36.38
33.90
31.82
29.97
28.07
25.91
23.38
20.54
17.53
14.46
11.37
8.22
4.90
1.27
-2.78
-7.26
-12.04
-16.91
-21.64
-26.06
-30.22
-34.36
-38.89
-44.17
-50.42
-57.58
-65.22
-72.52
-78.38
-81.64
-81.40
-77.23
-69.44
-59.01
-47.34
-35.85
-25.59
-16.98
-9.90
-3.83
1.82
7.52
13.49
19.70
25.87
31.63
36.54
40.29
42.77
44.12
44.64
44.75
44.84
45.17
45.90
46.94
48.09
48.99
49.24
48.55
46.81
44.29
41.41
38.67
36.38
34.56
33.00
31.39
29.50
27.23
24.61
21.75
18.73
15.66
12.59
9.56
6.60
3.67
0.66
-2.43
-5.57
-8.59
-11.31
-13.59
-15.52
-17.28
-19.13
-21.21
-23.43
-25.61
-27.56
-29.34
-31.23
-33.76
-37.41
-42.40
-48.50
-55.01
-60.83
-64.71
-65.60
-62.94
-56.83
-48.08
-37.91
-27.70
-18.49
-10.80
-4.54
0.79
5.74
10.75
15.96
21.26
26.35
30.92
34.71
37.59
39.57
40.82
41.55
41.98
42.24
42.31
42.11
41.54
40.53
39.06
37.15
34.74
31.77
28.27
24.34
20.25
16.34
12.88
10.06
7.93
6.43
5.40
4.62
3.83
2.73
1.10
-1.20
-4.15
-7.66
-11.61
-15.91
-20.47
-25.20
-30.02
-34.80
-39.29
-43.11
-45.62
-46.13
-44.02
-39.06
-31.63
-22.65
-13.38
-4.95
1.90
7.05
10.83
13.73
16.15
18.26
19.95
21.09
21.57
21.43
20.86
20.16
19.65
19.57
20.04
20.92
21.93
22.72
23.00
22.65
21.78
20.56
19.16
17.60
15.72
13.31
10.25
6.54
2.32
-2.23
-6.98
-11.85
-16.76
-21.62
-26.23
-30.34
-33.75
-36.44
-38.54
-40.36
-42.18
-43.98
-45.44
-45.88
-44.58
-41.11
-35.51
-28.38
-20.64
-13.17
-6.55
-0.96
3.70
7.60
10.78
13.16
14.60
15.09
14.90
14.52
14.52
15.40
17.34
20.22
23.67
27.24
30.59
33.49
35.87
37.66
38.72
38.87
37.89
35.73
32.51
28.55
24.22
19.79
15.45
11.26
7.21
3.30
-0.45
-4.11
-7.75
-11.51
-15.45
-19.53
-23.61
-27.53
-31.25
-34.92
-38.88
-43.52
-49.13
-55.65
-62.55
-68.86
-73.30
-74.71
-72.35
-66.24
-57.18
-46.46
-35.54
-25.48
-16.87
-9.68
-3.59
1.86
7.04
12.15
17.25
22.20
26.82
30.82
33.94
36.01
37.05
37.31
37.16
37.01
37.12
37.60
38.34
39.15
39.71
39.71
38.91
37.16
34.55
31.29
27.77
24.32
21.21
18.44
15.87
13.25
10.43
7.34
4.03
0.57
-2.98
-6.60
-10.22
-13.80
-17.23
-20.48
-23.50
-26.37
-29.25
-32.34
-35.83
-39.96
-44.90
-50.64
-56.92
-63.03
-67.91
-70.32
-69.24
-64.35
-56.17
-45.94
-35.19
-25.19
-16.65
-9.55
-3.42
2.34
8.14
14.14
20.21
26.07
31.38
35.86
39.32
41.66
42.93
43.31
43.03
42.40
41.72
41.23
41.09
41.32
41.79
42.21
42.22
41.46
39.74
37.14
33.96
30.65
27.64
25.23
23.49
22.27
21.28
20.23
18.85
17.02
14.66
11.89
8.91
5.92
3.07
0.32
-2.51
-5.72
-9.52
-13.82
-18.31
-22.52
-26.04
-28.68
-30.59
-32.21
-34.10
-36.84
-40.79
-45.96
-51.85
-57.54
-61.73
-63.26
-61.41
-56.19
-48.33
-39.01
-29.49
-20.71
-13.18
-6.97
-1.84
2.66
6.99
11.50
16.31
21.18
25.67
29.28
31.66
32.79
32.93
32.49
31.86
31.34
31.09
31.19
31.68
32.55
33.71
34.95
35.93
36.34
35.95
34.76
32.97
30.91
28.93
27.26
25.96
24.90
23.85
22.57
20.87
18.71
16.14
13.30
10.33
7.37
4.46
1.61
-1.20
-4.02
-6.84
-9.62
-12.27
-14.74
-16.99
-19.03
-20.88
-22.59
-24.31
-26.23
-28.68
-31.99
-36.31
-41.47
-46.84
-51.45
-54.22
-54.23
-51.11
-45.16
-37.28
-28.69
-20.51
-13.48
-7.82
-3.25
0.71
4.47
8.18
11.77
15.03
17.78
19.99
21.66
22.80
23.39
23.41
22.96
22.35
21.92
21.99
22.67
23.79
24.98
25.87
26.24
26.07
25.50
24.67
23.70
22.60
21.34
19.88
18.19
16.29
14.27
12.20
10.18
8.27
6.49
4.77
2.95
0.87
-1.53
-4.17
-6.78
-9.10
-10.85
-11.98
-12.67
-13.18
-13.80
-14.68
-15.85
-17.21
-18.71
-20.29
-21.96
-23.79
-25.88
-28.32
-31.14
-34.30
-37.50
-40.28
-41.96
-41.95
-39.84
-35.63
-29.69
-22.72
-15.64
-9.25
-4.14
-0.52
1.75
3.04
3.89
4.66
5.57
6.62
7.71
8.71
9.57
10.30
10.92
11.48
11.93
12.31
12.65
13.00
13.45
13.98
14.54
14.98
15.15
14.90
14.22
13.19
11.97
10.75
9.67
8.74
7.90
7.04
6.10
5.07
4.03
3.04
2.12
1.23
0.31
-0.71
-1.76
-2.80
-3.77
-4.64
-5.45
-6.24
-7.11
-8.12
-9.31
-10.71
-12.28
-13.93
-15.55
-17.07
-18.55
-20.18
-22.22
-24.87
-28.12
-31.64
-34.83
-36.92
-37.29
-35.57
-31.79
-26.38
-20.07
-13.60
-7.68
-2.83
0.70
2.89
3.95
4.23
4.19
4.26
4.72
5.66
6.95
8.25
9.24
9.71
9.65
9.31
8.96
8.85
9.05
9.50
10.02
10.49
10.87
11.18
11.41
11.43
11.05
10.10
8.59
6.69
4.75
3.00
1.56
0.37
-0.79
-1.97
-3.14
-4.13
-4.82
-5.19
-5.33
-5.40
-5.50
-5.66
-5.91
-6.37
-7.21
-8.63
-10.62
-12.96
-15.27
-17.16
-18.42
-19.14
-19.56
-20.02
-20.82
-22.15
-24.08
-26.50
-29.09
-31.35
-32.57
-32.10
-29.63
-25.31
-19.81
-14.06
-8.92
-4.94
-2.22
-0.57
0.35
0.90
1.27
1.59
2.01
2.63
3.49
4.58
5.78
6.92
7.92
8.76
9.47
10.08
10.65
11.17
11.68
12.12
12.50
12.72
12.67
12.21
11.25
9.84
8.17
6.46
4.92
3.65
2.70
2.05
1.70
1.57
1.54
1.46
1.17
0.59
-0.25
-1.21
-2.17
-3.01
-3.78
-4.63
-5.82
-7.50
-9.74
-12.37
-15.12
-17.65
-19.76
-21.43
-22.87
-24.37
-26.21
-28.54
-31.27
-34.12
-36.60
-38.06
-37.93
-35.79
-31.56
-25.61
-18.68
-11.71
-5.64
-1.09
1.72
2.98
3.19
2.95
2.75
2.87
3.32
3.96
4.60
5.16
5.61
6.01
6.46
6.99
7.67
8.54
9.60
10.77
11.90
12.79
13.28
13.33
12.96
12.32
11.50
10.56
9.50
8.33
7.02
5.66
4.30
2.95
1.65
0.40
-0.77
-1.84
-2.80
-3.65
-4.47
-5.34
-6.41
-7.84
-9.77
-12.22
-14.98
-17.66
-19.81
-21.08
-21.40
-20.97
-20.25
-19.72
-19.76
-20.58
-22.24
-24.65
-27.58
-30.55
-32.91
-33.89
-32.98
-30.07
-25.52
-20.09
-14.62
-9.75
-5.79
-2.73
-0.39
1.48
3.06
4.46
5.70
6.77
7.64
8.20
8.40
8.22
7.72
7.07
6.47
6.10
6.07
6.39
7.01
7.82
8.72
9.51
10.05
10.20
9.96
9.37
8.65
8.00
7.59
7.44
7.42
7.37
7.10
6.55
5.75
4.74
3.57
2.20
0.64
-1.13
-3.06
-5.13
-7.38
-9.88
-12.64
-15.55
-18.35
-20.73
-22.45
-23.48
-24.14
-24.91
-26.39
-28.95
-32.72
-37.42
-42.38
-46.76
-49.58
-50.14
-48.10
-43.67
-37.53
-30.66
-23.93
-18.04
-13.34
-9.79
-7.20
-5.29
-3.79
-2.52
-1.41
-0.42
0.40
1.04
1.51
1.91
2.32
2.85
3.63
4.75
6.28
8.26
10.60
13.14
15.61
17.70
19.14
19.73
19.45
18.35
16.70
14.76
12.80
10.94
9.18
7.42
5.56
3.59
1.66
-0.08
-1.51
-2.69
-3.82
-5.12
-6.80
-8.91
-11.38
-14.04
-16.77
-19.43
-22.02
-24.56
-27.18
-30.14
-33.66
-37.95
-43.03
-48.62
-54.12
-58.63
-61.17
-60.96
-57.62
-51.40
-43.10
-33.84
-24.66
-16.30
-9.14
-3.18
1.65
5.47
8.41
10.63
12.42
14.08
15.77
17.52
19.17
20.60
21.78
22.89
24.15
25.74
27.61
29.54
31.21
32.36
32.85
32.73
32.14
31.28
30.24
29.07
27.71
26.09
24.15
21.90
19.45
16.96
14.56
12.25
9.90
7.30
4.29
0.81
-3.05
-7.09
-11.08
-14.90
-18.57
-22.28
-26.25
-30.76
-36.05
-42.22
-49.14
-56.33
-62.88
-67.60
-69.34
-67.32
-61.54
-52.78
-42.41
-31.90
-22.33
-14.22
-7.49
-1.82
3.14
7.57
11.52
15.01
18.16
21.08
23.88
26.61
29.24
31.75
34.21
36.73
39.46
42.43
45.53
48.54
51.22
53.26
54.46
54.63
53.72
51.82
49.19
46.28
43.49
41.19
39.47
38.16
36.98
35.66
34.00
31.96
29.60
26.97
24.13
21.14
18.01
14.70
11.12
7.15
2.77
-1.97
-6.84
-11.59
-16.04
-20.26
-24.57
-29.47
-35.49
-42.87
-51.49
-60.68
-69.30
-75.89
-79.11
-78.01
-72.43
-63.08
-51.26
-38.60
-26.55
-16.09
-7.60
-0.91
4.53
9.48
14.57
20.19
26.25
32.39
38.03
42.76
46.41
49.17
51.39
53.41
55.43
57.49
59.56
61.65
63.72
65.72
67.46
68.65
68.94
68.13
66.23
63.49
60.32
57.19
54.41
52.08
50.07
48.10
45.90
43.28
40.20
36.81
33.32
29.96
26.90
24.13
21.48
18.72
15.57
11.87
7.66
3.14
-1.36
-5.58
-9.48
-13.26
-17.33
-22.22
-28.39
-36.14
-45.44
-55.81
-66.24
-75.26
-81.24
-82.78
-79.22
-70.91
-59.17
-45.91
-32.99
-21.69
-12.46
-5.02
1.33
7.29
13.31
19.46
25.47
30.91
35.37
38.62
40.66
41.70
42.02
41.93
41.64
41.38
41.39
41.98
43.40
45.77
48.91
52.36
55.57
58.04
59.57
60.24
60.35
60.16
59.78
59.05
57.60
55.02
51.06
45.81
39.61
32.95
26.28
19.87
13.78
7.97
2.37
-3.05
-8.24
-13.07
-17.39
-21.02
-23.88
-26.07
-27.90
-29.87
-32.67
-36.75
-42.17
-48.42
-54.45
-58.87
-60.43
-58.34
-52.55
-43.75
-33.22
-22.41
-12.57
-4.45
1.80
6.58
10.50
14.22
18.09
22.15
26.20
29.89
32.98
35.45
37.47
39.29
41.10
42.92
44.66
46.19
47.45
48.48
49.33
49.93
50.09
49.49
47.87
45.16
41.52
37.34
33.00
28.82
24.97
21.43
18.17
15.06
12.01
8.95
5.74
2.26
-1.59
-5.81
-10.28
-14.75
-18.93
-22.57
-25.65
-28.38
-31.18
-34.61
-39.06
-44.65
-51.04
-57.44
-62.71
-65.68
-65.37
-61.39
-54.03
-44.21
-33.19
-22.24
-12.37
-4.04
2.76
8.32
13.11
17.47
21.55
25.35
28.73
31.54
33.70
35.30
36.53
37.62
38.74
39.99
41.34
42.76
44.17
45.46
46.43
46.86
46.53
45.28
43.18
40.47
37.55
34.78
32.29
29.97
27.49
24.60
21.20
17.43
13.62
10.00
6.57
3.07
-0.83
-5.34
-10.27
-15.19
-19.56
-23.08
-25.81
-28.19
-30.83
-34.28
-38.91
-44.74
-51.40
-58.14
-63.84
-67.32
-67.54
-64.03
-57.06
-47.65
-37.20
-27.11
-18.28
-11.05
-5.16
-0.12
4.58
9.27
14.00
18.62
22.83
26.34
28.92
30.50
31.22
31.38
31.43
31.81
32.80
34.46
36.60
38.86
40.84
42.19
42.66
42.16
40.73
38.51
35.77
32.86
30.07
27.60
25.45
23.39
21.10
18.32
15.04
11.52
8.21
5.51
3.54
2.10
0.68
-1.29
-4.12
-7.76
-11.86
-15.92
-19.60
-22.87
-26.01
-29.53
-33.86
-39.26
-45.66
-52.72
-59.75
-65.84
-69.87
-70.85
-68.06
-61.44
-51.68
-40.09
-28.32
-17.78
-9.30
-2.90
1.95
6.03
9.87
13.63
17.13
20.06
22.29
23.84
24.94
25.79
26.55
27.27
27.98
28.76
29.73
30.95
32.37
33.78
34.83
35.20
34.62
33.06
30.71
27.91
25.11
22.71
20.91
19.64
18.66
17.59
16.14
14.21
11.87
9.36
6.96
4.84
3.07
1.55
0.06
-1.64
-3.73
-6.36
-9.56
-13.20
-17.04
-20.78
-24.15
-27.02
-29.55
-32.07
-35.14
-39.19
-44.32
-50.10
-55.61
-59.66
-61.12
-59.39
-54.51
-47.17
-38.42
-29.38
-20.98
-13.74
-7.86
-3.21
0.46
3.51
6.25
8.90
11.49
13.92
16.02
17.60
18.64
19.29
19.79
20.38
21.20
22.23
23.28
24.16
24.77
25.05
25.01
24.65
23.93
22.78
21.20
19.33
17.37
15.55
13.97
12.56
11.02
9.09
6.61
3.71
0.75
-1.86
-3.80
-5.07
-5.97
-6.97
-8.50
-10.73
-13.48
-16.33
-18.84
-20.74
-22.10
-23.17
-24.37
-26.07
-28.53
-31.86
-35.99
-40.60
-45.00
-48.25
-49.37
-47.65
-43.02
-36.03
-27.79
-19.52
-12.16
-6.25
-1.75
1.69
4.50
7.04
9.46
11.73
13.70
15.29
16.48
17.36
18.08
18.76
19.48
20.32
21.28
22.36
23.52
24.54
25.15
25.06
24.17
22.54
20.44
18.18
15.97
13.86
11.78
9.67
7.60
5.67
4.04
2.77
1.79
0.94
-0.03
-1.36
-3.24
-5.79
-8.96
-12.56
-16.27
-19.71
-22.67
-25.13
-27.35
-29.71
-32.65
-36.38
-40.84
-45.56
-49.77
-52.51
-52.89
-50.36
-44.94
-37.29
-28.52
-19.87
-12.35
-6.49
-2.22
0.93
3.56
6.14
8.85
11.64
14.31
16.59
18.32
19.41
19.85
19.76
19.33
18.80
18.35
18.15
18.27
18.63
19.10
19.48
19.61
19.32
18.53
17.23
15.52
13.53
11.42
9.29
7.15
5.00
2.82
0.70
-1.33
-3.24
-5.11
-7.07
-9.21
-11.55
-14.01
-16.46
-18.83
-21.11
-23.38
-25.73
-28.28
-31.11
-34.37
-38.18
-42.58
-47.29
-51.65
-54.70
-55.39
-53.02
-47.55
-39.68
-30.63
-21.80
-14.29
-8.58
-4.58
-1.76
0.50
2.67
4.90
7.18
9.39
11.47
13.40
15.24
17.01
18.68
20.20
21.53
22.70
23.76
24.80
25.84
26.81
27.55
27.84
27.49
26.45
24.80
22.73
20.50
18.21
15.88
13.44
10.80
8.02
5.29
2.85
0.89
-0.59
-1.78
-3.08
-4.87
-7.41
-10.72
-14.53
-18.45
-22.10
-25.21
-27.72
-29.86
-31.97
-34.49
-37.77
-41.94
-46.79
-51.67
-55.58
-57.40
-56.31
-52.08
-45.17
-36.63
-27.72
-19.52
-12.66
-7.27
-3.07
0.43
3.72
7.15
10.76
14.42
17.78
20.46
22.23
23.03
23.10
22.73
22.25
21.89
21.79
22.06
22.75
23.81
25.09
26.26
27.00
27.02
26.24
24.76
22.86
20.83
18.90
17.21
15.75
14.44
13.12
11.65
9.90
7.87
5.64
3.39
1.26
-0.74
-2.76
-5.08
-7.94
-11.34
-15.08
-18.70
-21.84
-24.34
-26.38
-28.45
-31.12
-34.82
-39.68
-45.41
-51.31
-56.41
-59.68
-60.31
-57.86
-52.47
-44.82
-35.93
-26.93
-18.75
-11.97
-6.73
-2.84
0.13
2.69
5.24
7.97
10.81
13.56
15.95
17.82
19.17
20.13
20.81
21.30
21.60
21.70
21.69
21.74
21.97
22.36
22.67
22.51
21.53
19.60
16.91
13.90
11.00
8.51
6.48
4.77
3.14
1.46
-0.33
-2.24
-4.26
-6.33
-8.35
-10.17
-11.71
-13.02
-14.45
-16.58
-19.95
-24.76
-30.69
-36.89
-42.26
-45.88
-47.31
-46.69
-44.59
-41.72
-38.72
-35.94
-33.59
-31.71
-30.36
-29.49
-28.96
-28.55
-27.94
-26.95
-25.50
-23.71
-21.73
-19.68
-17.52
-15.09
-12.26
-9.01
-5.50
-2.01
1.13
3.68
5.53
6.71
7.31
7.49
7.40
7.19
7.00
6.80
6.57
6.18
5.51
4.57
3.48
2.48
1.76
1.46
1.58
2.06
2.82
3.86
5.24
7.05
9.23
11.57
13.61
14.81
14.77
13.44
11.18
8.70
6.70
5.62
5.44
5.85
6.39
6.69
6.41
5.23
2.91
-0.54
-4.63
-8.29
-10.19
-9.33
-5.62
-0.01
5.92
10.76
13.89
15.71
17.25
19.57
23.10
27.60
32.25
36.18
38.79
39.83
39.50
38.23
36.71
35.63
35.52
36.59
38.55
40.76
42.48
43.16
42.67
41.27
39.43
37.56
35.89
34.47
33.25
32.21
31.39
30.81
30.39
29.94
29.17
27.79
25.57
22.37
18.25
13.40
8.14
2.79
-2.40
-7.34
-12.09
-16.82
-21.69
-26.89
-32.57
-38.73
-45.21
-51.53
-56.91
-60.45
-61.42
-59.53
-55.03
-48.65
-41.23
-33.47
-25.74
-18.11
-10.51
-2.87
4.78
12.35
19.64
26.39
32.23
36.66
39.23
39.72
38.28
35.52
32.36
29.70
28.17
27.94
28.84
30.44
32.30
34.04
35.39
36.12
36.03
35.08
33.26
30.77
27.86
24.73
21.49
18.14
14.58
10.74
6.63
2.38
-1.83
-5.74
-9.25
-12.47
-15.77
-19.65
-24.47
-30.20
-36.50
-42.82
-48.77
-54.26
-59.50
-64.69
-69.72
-73.93
-76.24
-75.48
-70.77
-61.82
-49.11
-33.60
-16.73
-0.14
14.37
24.99
30.31
29.68
23.59
13.71
2.53
-7.30
-13.78
-15.92
-13.81
-8.14
0.26
10.63
22.16
33.82
44.26
52.08
56.27
56.65
53.98
49.58
44.73
40.16
35.93
31.55
26.50
20.61
14.23
7.95
2.21
-3.03
-8.32
-14.40
-21.84
-30.69
-40.49
-50.45
-59.94
-68.60
-76.44
-83.65
-90.31
-96.30
-101.31
-104.97
-107.15
-108.04
-108.07
-107.70
-107.12
-106.04
-103.81
-99.58
-92.58
-82.40
-68.98
-52.59
-33.76
-13.22
8.15
29.31
49.30
67.26
82.60
95.01
104.41
110.88
114.66
116.14
115.82
114.26
111.93
109.10
105.88
102.34
98.61
94.95
91.65
88.89
86.64
84.64
82.48
79.79
76.36
72.19
67.46
62.40
57.22
52.05
46.96
42.01
37.26
32.74
28.42
24.25
20.15
16.12
12.28
8.81
5.85
3.39
1.22
-0.99
-3.53
-6.54
-9.90
-13.39
-16.72
-19.69
-22.27
-24.57
-26.84
-29.45
-32.78
-37.20
-42.81
-49.35
-56.02
-61.56
-64.61
-64.16
-59.90
-52.39
-42.89
-32.88
-23.61
-15.73
-9.33
-4.12
0.27
4.09
7.45
10.38
12.92
15.18
17.27
19.25
21.20
23.16
25.11
27.06
28.98
30.81
32.51
34.07
35.52
36.80
37.84
38.35
38.03
36.61
34.04
30.52
26.50
22.51
18.99
16.17
14.03
12.37
10.93
9.50
8.08
6.71
5.48
4.33
3.11
1.51
-0.62
-3.34
-6.55
-9.96
-13.34
-16.53
-19.52
-22.40
-25.42
-28.90
-33.06
-37.93
-43.16
-47.97
-51.29
-52.14
-49.87
-44.63
-37.21
-28.78
-20.48
-13.06
-6.85
-1.76
2.42
5.88
8.74
11.07
12.95
14.45
15.72
16.82
17.81
18.76
19.72
20.77
21.96
23.27
24.67
26.10
27.44
28.61
29.46
29.81
29.52
28.50
26.83
24.69
22.37
20.15
18.14
16.29
14.45
12.43
10.15
7.68
5.12
2.57
0.03
-2.58
-5.39
-8.50
-11.95
-15.68
-19.55
-23.44
-27.18
-30.64
-33.79
-36.74
-39.74
-43.12
-47.17
-52.02
-57.50
-63.01
-67.61
-70.18
-69.71
-65.71
-58.45
-48.90
-38.46
-28.53
-20.04
-13.30
-8.09
-3.86
-0.13
3.37
6.70
9.76
12.44
14.69
16.54
18.05
19.35
20.58
21.83
23.18
24.69
26.37
28.18
29.99
31.58
32.63
32.86
32.10
30.42
28.11
25.60
23.28
21.32
19.61
17.87
15.86
13.44
10.73
7.93
5.21
2.60
0.02
-2.72
-5.73
-9.04
-12.58
-16.16
-19.66
-23.03
-26.24
-29.41
-32.78
-36.68
-41.45
-47.28
-53.98
-60.85
-66.71
-70.24
-70.36
-66.62
-59.42
-49.83
-39.30
-29.17
-20.37
-13.25
-7.68
-3.25
0.47
3.81
6.97
10.03
13.04
16.02
18.98
21.87
24.54
26.84
28.72
30.23
31.58
33.00
34.59
36.28
37.77
38.69
38.76
37.86
36.10
33.75
31.11
28.47
25.98
23.67
21.45
19.17
16.66
13.89
10.92
7.93
5.04
2.24
-0.66
-3.93
-7.80
-12.24
-16.98
-21.64
-25.89
-29.58
-32.81
-35.89
-39.22
-43.16
-48.01
-53.79
-60.20
-66.42
-71.27
-73.40
-71.76
-66.03
-56.86
-45.72
-34.38
-24.34
-16.37
-10.43
-5.88
-1.92
2.03
6.16
10.29
14.04
17.07
19.25
20.69
21.77
22.98
24.79
27.38
30.59
33.91
36.66
38.25
38.41
37.17
34.75
31.43
27.34
22.53
17.01
10.85
4.27
-2.35
-8.60
-14.08
-18.50
-21.83
-24.25
-26.12
-27.78
-29.45
-31.08
-32.46
-33.31
-33.54
-33.30
-32.98
-33.02
-33.75
-35.16
-36.92
-38.43
-38.99
-37.86
-34.39
-28.15
-19.04
-7.55
5.12
17.14
26.49
31.63
31.91
27.88
21.03
13.19
5.95
0.28
-3.52
-5.62
-6.39
-6.22
-5.52
-4.66
-4.00
-3.75
-3.93
-4.42
-4.94
-5.16
-4.78
-3.56
-1.48
1.20
3.93
6.00
6.73
5.85
3.56
0.54
-2.40
-4.66
-6.13
-7.18
-8.42
-10.45
-13.53
-17.56
-22.18
-26.90
-31.29
-35.04
-38.06
-40.39
-42.32
-44.31
-46.91
-50.57
-55.33
-60.59
-64.95
-66.55
-63.53
-54.80
-40.48
-22.00
-1.66
18.16
35.58
49.70
60.45
68.27
73.83
77.76
80.65
83.00
85.25
87.57
89.88
91.88
93.27
93.93
93.96
93.61
93.04
92.33
91.32
89.76
87.46
84.29
80.31
75.68
70.67
65.44
60.08
54.50
48.55
42.18
35.45
28.71
22.29
16.45
11.15
6.10
0.95
-4.49
-10.06
-15.41
-20.17
-24.17
-27.64
-31.10
-35.20
-40.55
-47.54
-56.12
-65.89
-75.81
-84.44
-90.14
-91.52
-87.87
-79.53
-67.74
-54.28
-40.90
-28.83
-18.56
-9.86
-2.11
5.28
12.65
19.88
26.54
32.01
35.84
37.95
38.68
38.69
38.76
39.46
41.03
43.34
46.01
48.55
50.47
51.34
50.93
49.19
46.31
42.73
39.01
35.70
33.13
31.34
30.02
28.67
26.76
24.00
20.32
15.92
11.17
6.36
1.65
-3.00
-7.73
-12.63
-17.71
-22.79
-27.64
-32.10
-36.20
-40.15
-44.37
-49.36
-55.54
-63.14
-71.91
-81.00
-89.02
-94.26
-95.15
-90.87
-81.56
-68.46
-53.44
-38.41
-24.77
-13.14
-3.32
5.27
13.20
20.77
27.86
34.10
39.10
42.71
45.04
46.48
47.45
48.27
49.08
49.89
50.63
51.34
52.07
52.82
53.45
53.60
52.88
51.01
48.02
44.27
40.29
36.55
33.30
30.45
27.71
24.82
21.60
18.10
14.53
11.13
8.06
5.32
2.71
-0.10
-3.45
-7.55
-12.39
-17.62
-22.81
-27.60
-31.87
-35.86
-40.05
-44.96
-50.99
-58.14
-65.94
-73.42
-79.22
-81.90
-80.29
-73.96
-63.36
-49.84
-35.26
-21.40
-9.44
0.24
8.02
14.59
20.54
26.12
31.15
35.29
38.27
40.05
40.93
41.31
41.63
42.19
43.05
44.18
45.48
46.86
48.30
49.71
50.94
51.71
51.67
50.53
48.24
44.97
41.14
37.20
33.52
30.23
27.25
24.26
20.95
17.16
12.99
8.76
4.91
1.76
-0.65
-2.61
-4.62
-7.17
-10.55
-14.80
-19.66
-24.72
-29.62
-34.10
-38.11
-41.91
-45.93
-50.71
-56.65
-63.70
-71.22
-78.00
-82.44
-83.10
-79.08
-70.37
-57.95
-43.52
-28.98
-16.01
-5.65
1.92
7.19
11.03
14.30
17.65
21.28
25.13
28.95
32.48
35.58
38.15
40.11
41.38
42.01
42.10
41.95
41.91
42.25
43.03
44.00
44.69
44.59
43.41
41.16
38.20
35.00
32.01
29.49
27.45
25.67
23.88
21.77
19.18
16.07
12.63
9.10
5.71
2.52
-0.62
-4.03
-8.02
-12.73
-18.02
-23.50
-28.72
-33.35
-37.34
-40.90
-44.46
-48.52
-53.46
-59.40
-66.02
-72.49
-77.55
-79.79
-78.07
-71.97
-61.95
-49.32
-35.76
-22.86
-11.68
-2.60
4.60
10.39
15.21
19.33
22.83
25.70
28.00
29.87
31.44
32.78
33.85
34.54
34.86
34.93
35.08
35.60
36.64
38.00
39.28
39.96
39.60
38.10
35.62
32.60
29.54
26.82
24.60
22.78
21.02
19.02
16.50
13.43
9.97
6.38
2.94
-0.21
-3.05
-5.75
-8.53
-11.57
-14.96
-18.64
-22.44
-26.13
-29.55
-32.76
-36.04
-39.88
-44.73
-50.80
-57.80
-64.88
-70.75
-74.01
-73.54
-68.88
-60.38
-49.13
-36.63
-24.39
-13.55
-4.71
2.15
7.43
11.71
15.43
18.76
21.65
23.95
25.59
26.67
27.44
28.20
29.16
30.38
31.74
33.13
34.43
35.54
36.38
36.81
36.71
35.97
34.62
32.77
30.57
28.16
25.58
22.78
19.70
16.31
12.74
9.20
5.95
3.11
0.61
-1.85
-4.65
-8.08
-12.22
-16.79
-21.36
-25.51
-29.10
-32.31
-35.63
-39.60
-44.63
-50.86
-58.00
-65.31
-71.70
-75.89
-76.68
-73.39
-66.06
-55.59
-43.43
-31.22
-20.28
-11.26
-4.17
1.49
6.31
10.77
15.07
19.14
22.78
25.81
28.15
29.84
30.97
31.67
32.04
32.20
32.30
32.48
32.90
33.58
34.43
35.15
35.30
34.53
32.72
30.00
26.77
23.52
20.59
18.10
15.94
13.90
11.78
9.53
7.14
4.71
2.25
-0.28
-3.03
-6.18
-9.86
-14.12
-18.83
-23.74
-28.50
-32.84
-36.66
-40.16
-43.78
-48.02
-53.27
-59.52
-66.31
-72.65
-77.25
-78.80
-76.39
-69.85
-59.84
-47.70
-35.07
-23.34
-13.41
-5.44
0.94
6.31
11.19
15.88
20.43
24.68
28.43
31.46
33.64
34.94
35.44
35.37
35.02
34.70
34.64
35.00
35.75
36.78
37.84
38.62
38.84
38.29
36.87
34.63
31.83
28.81
25.98
23.59
21.63
19.82
17.75
15.08
11.75
8.00
4.24
0.91
-1.81
-4.05
-6.21
-8.77
-12.11
-16.33
-21.20
-26.29
-31.02
-34.95
-37.92
-40.13
-42.12
-44.60
-48.21
-53.25
-59.55
-66.33
-72.37
-76.23
-76.66
-73.01
-65.40
-54.78
-42.63
-30.54
-19.74
-10.92
-4.08
1.21
5.61
9.73
13.94
18.35
22.79
26.99
30.63
33.54
35.63
37.01
37.78
38.14
38.34
38.61
39.17
40.07
41.12
41.93
42.02
41.07
39.04
36.19
32.95
29.72
26.73
24.07
21.66
19.44
17.32
15.21
12.99
10.54
7.79
4.79
1.77
-1.04
-3.49
-5.62
-7.73
-10.20
-13.32
-17.07
-21.15
-25.10
-28.54
-31.36
-33.83
-36.46
-39.83
-44.40
-50.32
-57.33
-64.76
-71.56
-76.44
-78.16
-75.90
-69.52
-59.74
-47.92
-35.74
-24.62
-15.40
-8.22
-2.68
1.84
5.96
10.01
14.07
18.05
21.77
25.07
27.85
30.10
31.86
33.22
34.35
35.40
36.52
37.79
39.17
40.49
41.50
41.90
41.54
40.40
38.61
36.44
34.17
31.97
29.89
27.95
26.11
24.35
22.65
20.94
19.14
17.11
14.78
12.10
9.16
6.07
2.98
0.02
-2.80
-5.53
-8.31
-11.30
-14.69
-18.53
-22.74
-27.10
-31.32
-35.17
-38.57
-41.72
-44.99
-48.85
-53.62
-59.32
-65.52
-71.28
-75.39
-76.66
-74.27
-68.08
-58.73
-47.47
-35.80
-25.05
-16.04
-8.91
-3.22
1.76
6.68
11.87
17.20
22.23
26.47
29.61
31.67
32.97
33.88
34.72
35.64
36.67
37.87
39.29
41.02
43.00
45.04
46.76
47.79
47.83
46.86
45.05
42.74
40.26
37.82
35.47
33.14
30.70
28.08
25.34
22.62
20.11
17.91
15.97
14.10
12.04
9.61
6.83
3.86
0.90
-1.90
-4.57
-7.28
-10.29
-13.74
-17.66
-21.84
-26.03
-29.98
-33.58
-36.86
-40.02
-43.32
-47.02
-51.37
-56.48
-62.22
-68.07
-73.06
-75.98
-75.64
-71.34
-63.15
-52.06
-39.63
-27.59
-17.31
-9.39
-3.71
0.46
4.02
7.72
11.91
16.55
21.28
25.63
29.22
31.88
33.67
34.77
35.46
35.98
36.56
37.35
38.37
39.50
40.52
41.17
41.27
40.76
39.73
38.37
36.84
35.30
33.85
32.53
31.39
30.38
29.41
28.33
26.95
25.15
22.90
20.27
17.41
14.47
11.59
8.88
6.44
4.26
2.19
-0.04
-2.74
-6.11
-10.17
-14.66
-19.19
-23.41
-27.16
-30.54
-33.88
-37.60
-42.10
-47.59
-53.99
-60.81
-67.21
-72.01
-74.05
-72.49
-67.17
-58.64
-48.08
-36.88
-26.27
-17.03
-9.43
-3.35
1.58
5.76
9.52
13.14
16.75
20.39
23.97
27.33
30.29
32.76
34.70
36.22
37.49
38.68
39.93
41.24
42.56
43.65
44.23
44.10
43.13
41.38
39.06
36.49
33.93
31.57
29.46
27.56
25.74
23.95
22.11
20.21
18.29
16.31
14.27
12.15
9.90
7.51
4.98
2.32
-0.43
-3.29
-6.34
-9.72
-13.52
-17.71
-22.12
-26.45
-30.41
-33.83
-36.69
-39.18
-41.65
-44.54
-48.27
-53.05
-58.65
-64.22
-68.46
-69.90
-67.52
-61.07
-51.34
-39.80
-28.14
-17.70
-9.18
-2.59
2.52
6.72
10.48
14.04
17.41
20.50
23.16
25.32
26.96
28.12
28.85
29.20
29.29
29.30
29.46
30.03
31.07
32.46
33.84
34.76
34.90
34.11
32.53
30.41
27.99
25.45
22.86
20.31
17.92
15.86
14.25
13.06
12.12
11.16
9.91
8.26
6.25
4.09
2.01
0.21
-1.30
-2.68
-4.22
-6.21
-8.82
-12.04
-15.70
-19.50
-23.18
-26.55
-29.55
-32.31
-35.08
-38.20
-42.04
-46.73
-51.99
-57.08
-60.87
-62.20
-60.29
-55.02
-47.03
-37.44
-27.50
-18.20
-10.13
-3.49
1.80
5.88
8.94
11.18
12.83
14.14
15.34
16.54
17.78
18.93
19.88
20.60
21.14
21.68
22.43
23.45
24.67
25.91
26.90
27.41
27.36
26.75
25.70
24.32
22.75
21.03
19.21
17.31
15.36
13.37
11.35
9.32
7.28
5.19
2.94
0.44
-2.43
-5.69
-9.23
-12.88
-16.45
-19.79
-22.90
-25.92
-29.13
-32.89
-37.43
-42.78
-48.52
-53.85
-57.65
-58.80
-56.62
-51.13
-43.07
-33.72
-24.40
-16.10
-9.27
-3.83
0.62
4.52
8.20
11.85
15.51
19.06
22.36
25.20
27.42
28.93
29.80
30.22
30.53
30.97
31.74
32.86
34.18
35.41
36.20
36.22
35.31
33.47
30.90
27.95
24.98
22.27
19.97
18.04
16.28
14.45
12.32
9.79
6.99
4.11
1.40
-1.00
-3.15
-5.29
-7.70
-10.57
-13.88
-17.50
-21.17
-24.75
-28.18
-31.64
-35.45
-40.02
-45.59
-52.14
-59.20
-65.82
-70.80
-72.96
-71.59
-66.66
-58.88
-49.42
-39.51
-30.16
-21.89
-14.81
-8.76
-3.46
1.38
5.96
10.38
14.69
18.81
22.57
25.77
28.26
30.03
31.23
32.10
32.90
33.86
35.12
36.69
38.42
40.05
41.24
41.63
41.01
39.35
36.86
33.93
31.02
28.45
26.36
24.70
23.24
21.69
19.80
17.44
14.65
11.61
8.54
5.62
2.89
0.24
-2.57
-5.81
-9.57
-13.77
-18.18
-22.46
-26.40
-29.93
-33.22
-36.62
-40.51
-45.21
-50.85
-57.21
-63.70
-69.33
-72.97
-73.57
-70.53
-63.96
-54.63
-43.76
-32.65
-22.28
-13.25
-5.73
0.45
5.60
10.05
14.07
17.84
21.45
24.90
28.03
30.66
32.62
33.78
34.20
34.14
34.10
34.54
35.85
38.05
40.75
43.36
45.23
45.92
45.39
43.92
42.00
40.16
38.83
38.18
38.11
38.21
37.81
36.21
32.94
28.06
22.30
16.89
13.17
11.97
13.27
16.07
18.68
19.31
16.62
10.09
-0.09
-13.26
-28.67
-45.75
-64.01
-82.92
-101.67
-119.12
-133.97
-144.98
-151.30
-152.66
-149.36
-142.18
-132.26
-120.88
-109.26
-98.27
-88.33
-79.37
-70.98
-62.68
-54.22
-45.72
-37.63
-30.46
-24.52
-19.71
-15.59
-11.55
-7.05
-1.73
4.58
11.91
20.12
28.85
37.57
45.63
52.60
58.45
63.66
68.93
74.91
81.75
88.99
95.72
100.89
103.62
103.45
100.38
94.77
87.23
78.54
69.47
60.65
52.46
45.00
38.15
31.59
24.89
17.56
9.19
-0.42
-10.95
-21.53
-30.80
-37.25
-39.77
-38.08
-32.82
-25.43
-17.57
-10.57
-5.09
-1.06
2.03
4.78
7.58
10.50
13.33
15.84
17.89
19.55
20.98
22.33
23.65
24.84
25.82
26.52
27.08
27.69
28.56
29.72
30.95
31.89
32.08
31.21
29.19
26.21
22.66
19.09
16.01
13.76
12.40
11.59
10.70
8.93
5.62
0.48
-6.21
-13.72
-21.17
-27.78
-33.19
-37.52
-41.24
-44.88
-48.77
-52.90
-56.87
-60.16
-62.22
-62.68
-61.39
-58.46
-54.13
-48.72
-42.52
-35.72
-28.46
-20.76
-12.59
-4.01
4.79
13.45
21.48
28.30
33.56
37.16
39.29
40.38
40.87
41.07
41.14
41.06
40.83
40.48
40.12
39.80
39.53
39.16
38.50
37.36
35.66
33.44
30.85
28.10
25.38
22.77
20.25
17.68
14.81
11.38
7.21
2.39
-2.81
-7.98
-12.74
-16.95
-20.74
-24.46
-28.54
-33.32
-38.91
-45.13
-51.50
-57.30
-61.67
-63.78
-63.03
-59.31
-53.05
-45.12
-36.56
-28.28
-20.79
-14.10
-7.87
-1.64
5.02
12.20
19.71
26.99
33.36
38.23
41.28
42.54
42.44
41.67
40.89
40.62
41.12
42.34
44.02
45.83
47.31
48.12
48.04
46.94
44.94
42.26
39.17
35.87
32.40
28.71
24.75
20.58
16.35
12.44
9.21
6.89
5.46
4.53
3.55
1.97
-0.52
-3.88
-7.69
-11.41
-14.64
-17.29
-19.66
-22.30
-25.77
-30.47
-36.46
-43.35
-50.40
-56.47
-60.24
-60.60
-56.95
-49.62
-39.91
-29.70
-20.78
-14.22
-9.91
-6.76
-3.33
1.48
7.95
15.40
22.68
28.68
32.71
34.72
35.02
34.04
32.06
29.24
25.74
21.94
18.40
15.82
14.72
15.18
16.77
18.61
19.72
19.39
17.48
14.47
11.22
8.71
7.59
8.05
9.79
12.26
14.94
17.54
20.02
22.54
25.21
27.95
30.46
32.30
32.99
32.19
29.79
25.90
20.87
15.15
9.13
3.05
-3.08
-9.37
-15.94
-22.68
-29.19
-34.75
-38.50
-39.71
-38.04
-33.69
-27.34
-19.97
-12.55
-5.81
-0.13
4.46
8.16
11.23
13.92
16.41
18.79
21.10
23.33
25.40
27.22
28.70
29.73
30.26
30.30
29.96
29.41
28.83
28.32
27.89
27.37
26.52
25.14
23.15
20.69
18.06
15.61
13.59
12.09
10.91
9.73
8.20
6.11
3.45
0.52
-2.31
-4.70
-6.43
-7.62
-8.61
-9.77
-11.46
-13.80
-16.66
-19.74
-22.71
-25.32
-27.50
-29.36
-31.12
-33.11
-35.62
-38.85
-42.75
-47.00
-50.94
-53.66
-54.35
-52.39
-47.71
-40.76
-32.41
-23.63
-15.22
-7.68
-1.11
4.52
9.32
13.25
16.23
18.18
19.18
19.53
19.63
19.82
20.28
20.94
21.59
22.01
22.11
21.95
21.69
21.51
21.46
21.39
21.15
20.60
19.76
18.85
18.06
17.52
17.13
16.60
15.55
13.72
11.07
7.82
4.36
1.00
-1.99
-4.51
-6.56
-8.27
-9.83
-11.42
-13.23
-15.35
-17.73
-20.22
-22.65
-24.91
-27.04
-29.26
-31.92
-35.25
-39.23
-43.39
-46.92
-48.84
-48.37
-45.18
-39.52
-32.10
-23.88
-15.78
-8.46
-2.21
2.89
6.94
10.07
12.28
13.57
13.92
13.45
12.41
11.15
10.00
9.24
8.95
9.08
9.55
10.20
10.95
11.74
12.47
13.02
13.27
13.09
12.41
11.22
9.62
7.76
5.86
4.14
2.86
2.18
2.24
3.01
4.30
5.71
6.70
6.80
5.72
3.48
0.38
-3.15
-6.71
-10.08
-13.24
-16.32
-19.59
-23.34
-27.84
-33.12
-38.90
-44.41
-48.57
-50.29
-48.83
-44.18
-36.96
-28.31
-19.42
-11.21
-4.15
1.70
6.50
10.41
13.49
15.75
17.21
17.95
18.15
18.08
18.01
18.18
18.72
19.68
21.07
22.80
24.72
26.62
28.20
29.18
29.36
28.65
27.08
24.78
21.93
18.75
15.46
12.21
9.13
6.24
3.57
1.10
-1.17
-3.21
-4.95
-6.42
-7.72
-9.01
-10.47
-12.14
-14.01
-15.95
-17.88
-19.76
-21.68
-23.78
-26.22
-29.21
-32.87
-37.28
-42.32
-47.56
-52.20
-55.21
-55.63
-52.96
-47.33
-39.51
-30.71
-22.08
-14.46
-8.19
-3.25
0.63
3.74
6.23
8.23
9.82
11.10
12.18
13.09
13.80
14.24
14.38
14.34
14.36
14.75
15.72
17.26
19.12
20.88
22.16
22.75
22.65
22.07
21.25
20.36
19.44
18.36
17.01
15.30
13.17
10.70
8.02
5.28
2.64
0.23
-1.90
-3.81
-5.62
-7.50
-9.64
-12.20
-15.23
-18.64
-22.24
-25.76
-28.99
-31.87
-34.58
-37.54
-41.27
-46.09
-51.90
-57.99
-63.24
-66.31
-66.19
-62.51
-55.68
-46.75
-37.01
-27.62
-19.31
-12.35
-6.66
-2.02
1.85
5.19
8.14
10.78
13.09
14.95
16.24
16.89
17.02
16.95
17.16
18.10
20.05
23.01
26.76
30.91
35.06
38.87
42.18
44.92
47.03
48.44
49.00
48.50
46.82
43.94
40.08
35.59
30.90
26.39
22.30
18.62
15.12
11.41
7.13
2.02
-3.95
-10.55
-17.42
-24.13
-30.32
-35.75
-40.37
-44.26
-47.70
-51.14
-55.02
-59.63
-64.86
-70.09
-74.30
-76.44
-75.79
-72.24
-66.31
-58.88
-50.85
-42.94
-35.65
-29.34
-24.29
-20.68
-18.48
-17.35
-16.66
-15.71
-13.93
-11.07
-7.17
-2.51
2.54
7.63
12.48
16.82
20.42
23.06
24.59
24.91
23.85
21.23
16.83
10.66
3.24
-4.31
-10.38
-13.37
-12.39
-7.69
-0.66
6.64
12.29
15.19
15.36
13.60
10.92
8.03
5.10
1.92
-1.76
-5.93
-10.33
-14.61
-18.44
-21.66
-24.01
-25.09
-24.31
-21.13
-15.39
-7.56
1.24
9.60
16.32
20.84
23.40
24.79
25.95
27.50
29.55
31.75
33.60
34.65
34.77
34.08
32.84
31.38
29.93
28.68
27.74
27.26
27.30
27.84
28.70
29.54
29.96
29.51
27.96
25.22
21.55
17.43
13.41
9.96
7.17
4.76
2.18
-1.09
-5.31
-10.23
-15.25
-19.68
-22.97
-25.09
-26.41
-27.65
-29.63
-33.03
-38.13
-44.76
-52.17
-59.16
-64.37
-66.65
-65.55
-61.41
-55.28
-48.44
-42.00
-36.52
-31.92
-27.70
-23.19
-17.80
-11.22
-3.52
4.92
13.38
21.02
27.18
31.49
34.01
35.19
35.57
35.61
35.62
35.73
35.99
36.46
37.09
37.77
38.27
38.30
37.64
36.34
34.74
33.34
32.63
32.84
33.86
35.20
36.25
36.44
35.57
33.77
31.43
28.97
26.57
24.08
21.04
16.82
10.88
2.96
-6.78
-17.67
-28.51
-37.89
-44.39
-47.01
-45.53
-40.59
-33.60
-26.28
-20.18
-16.27
-14.73
-15.08
-16.35
-17.47
-17.57
-16.06
-12.71
-7.65
-1.25
5.96
13.37
20.36
26.42
31.20
34.59
36.68
37.73
38.11
38.04
37.71
37.11
36.13
34.72
32.95
31.03
29.29
28.07
27.52
27.48
27.54
27.11
25.64
22.86
18.88
14.15
9.37
5.02
1.31
-2.09
-5.81
-10.63
-17.06
-25.11
-34.07
-42.59
-49.01
-51.69
-49.56
-42.44
-31.21
-17.58
-3.65
8.56
17.70
23.09
24.83
23.48
19.90
15.14
10.36
6.67
4.91
5.45
8.04
11.85
15.77
18.79
20.40
20.70
20.34
20.11
20.66
22.15
24.27
26.36
27.72
27.89
26.74
24.38
21.03
16.85
11.86
5.99
-0.69
-7.98
-15.50
-22.78
-29.39
-35.01
-39.42
-42.50
-44.25
-44.89
-44.94
-45.12
-46.11
-48.16
-50.90
-53.38
-54.33
-52.66
-47.68
-39.25
-27.55
-12.99
3.94
22.56
41.77
60.11
75.81
87.18
93.07
93.19
88.27
79.82
69.77
59.97
51.81
45.93
42.40
40.81
40.65
41.41
42.58
43.65
44.08
43.38
41.32
37.99
33.75
29.11
24.52
20.17
15.99
11.71
7.05
1.89
-3.67
-9.33
-14.75
-19.59
-23.73
-27.30
-30.65
-34.26
-38.61
-43.92
-50.06
-56.49
-62.23
-66.16
-67.21
-64.72
-58.63
-49.62
-38.86
-27.73
-17.50
-8.94
-2.28
2.72
6.63
9.98
13.15
16.27
19.30
22.13
24.77
27.35
30.07
33.09
36.39
39.83
43.19
46.30
49.11
51.56
53.53
54.71
54.65
52.89
49.20
43.63
36.56
28.54
20.14
11.82
3.90
-3.39
-9.92
-15.64
-20.53
-24.75
-28.50
-32.10
-35.86
-40.14
-45.18
-51.04
-57.34
-63.18
-67.17
-67.75
-63.74
-54.80
-41.73
-26.24
-10.48
3.56
14.63
22.35
27.06
29.50
30.49
30.71
30.59
30.24
29.52
28.06
25.48
21.59
16.61
11.18
6.20
2.53
0.68
0.64
1.93
3.80
5.51
6.53
6.53
5.43
3.25
0.12
-3.73
-7.91
-11.95
-15.40
-17.96
-19.55
-20.35
-20.66
-20.81
-21.08
-21.67
-22.85
-24.97
-28.36
-33.08
-38.64
-43.93
-47.50
-47.93
-44.39
-37.00
-26.80
-15.37
-4.37
4.96
12.01
16.68
19.25
20.18
19.94
18.99
17.75
16.48
15.26
14.02
12.56
10.76
8.62
6.37
4.37
3.04
2.65
3.24
4.68
6.68
8.88
10.97
12.78
14.17
15.06
15.30
14.67
12.96
10.10
6.27
1.83
-2.73
-7.00
-10.71
-13.84
-16.58
-19.25
-22.23
-25.82
-30.08
-34.80
-39.36
-42.83
-44.21
-42.76
-38.21
-30.94
-21.78
-11.90
-2.40
5.82
12.29
16.88
19.75
21.27
21.87
22.00
21.97
21.99
22.08
22.16
22.08
21.69
20.88
19.67
18.11
16.34
14.51
12.78
11.24
9.91
8.68
7.34
5.65
3.38
0.45
-3.02
-6.75
-10.41
-13.71
-16.51
-18.87
-20.99
-23.19
-25.78
-28.99
-32.87
-37.19
-41.36
-44.43
-45.41
-43.47
-38.29
-30.16
-19.85
-8.35
3.50
15.10
26.02
35.89
44.15
50.11
53.14
52.95
49.85
44.67
38.50
32.33
26.75
21.98
17.96
14.56
11.63
8.97
6.35
3.72
1.36
-0.06
0.27
2.78
7.07
11.88
15.64
17.20
16.49
14.38
12.05
10.11
8.08
4.62
-1.74
-11.71
-24.77
-39.20
-52.76
-63.47
-70.19
-72.74
-71.60
-67.49
-60.90
-52.09
-41.26
-28.85
-15.71
-3.00
8.20
17.23
24.07
29.10
32.79
35.51
37.49
38.97
40.35
42.04
44.05
45.73
45.86
42.99
36.10
25.09
10.75
-5.63
-22.84
-40.12
-57.11
-73.59
-89.11
-102.86
-113.84
-121.22
-124.69
