1680613478.00
64.000000
-0.00
-0.00
-0.00
-0.00
-0.00
-0.00
-0.00
-0.00
-0.00
-0.00
0.00
0.01
0.01
-0.00
-0.03
-0.05
-0.05
0.00
0.13
0.36
0.66
1.01
1.37
1.72
2.06
2.40
2.79
3.24
3.80
4.42
5.07
5.69
6.25
6.77
7.30
7.93
8.70
9.72
10.91
12.15
13.34
14.41
15.41
16.51
17.92
19.79
22.34
25.37
28.63
31.80
34.72
37.49
40.41
43.94
48.40
54.17
60.92
68.12
75.19
81.80
88.02
94.37
101.59
110.21
120.80
132.86
145.59
158.11
169.86
180.90
191.90
204.24
216.67
231.47
249.25
270.10
292.80
314.44
330.70
337.01
330.03
308.93
276.13
235.46
191.23
146.62
103.15
61.09
20.32
-18.84
-55.62
-88.68
-117.38
-141.47
-161.36
-177.45
-189.85
-198.31
-202.38
-201.98
-197.31
-189.43
-179.70
-169.53
-159.97
-151.55
-144.28
-137.48
-130.56
-123.15
-115.33
-107.45
-99.95
-93.10
-86.92
-81.20
-75.57
-69.82
-63.86
-57.83
-52.02
-46.74
-42.24
-38.57
-35.65
-33.31
-31.32
-29.52
-27.78
-26.03
-24.23
-22.32
-20.28
-18.08
-15.80
-13.57
-11.55
-9.96
-8.94
-8.65
-9.15
-10.48
-12.52
-15.08
-17.95
-20.88
-23.60
-25.87
-27.52
-28.35
-28.36
-27.54
-26.03
-23.99
-21.65
-19.22
-16.90
-14.91
-13.29
-12.08
-11.23
-10.64
-10.18
-9.75
-9.27
-8.66
-7.92
-7.07
-6.20
-5.41
-4.85
-4.70
-5.09
-6.19
-8.02
-10.53
-13.54
-16.78
-19.95
-22.79
-25.15
-26.93
-28.26
-29.30
-30.22
-31.13
-32.10
-33.18
-34.43
-36.11
-38.45
-41.76
-46.24
-51.84
-58.26
-64.90
-71.19
-76.53
-80.75
-84.02
-86.81
-89.68
-92.99
-96.94
-101.28
-105.91
-110.63
-115.77
-121.92
-129.97
-140.99
-155.51
-173.74
-194.81
-217.27
-238.74
-256.33
-267.23
-269.54
-263.39
-250.53
-234.08
-217.01
-201.71
-189.34
-179.89
-172.49
-165.54
-157.85
-148.59
-138.14
-127.02
-115.67
-103.84
-90.81
-76.66
-61.99
-48.60
-38.14
-31.80
-29.23
-28.80
-28.59
-26.66
-22.55
-16.21
-8.33
0.58
9.75
18.01
24.26
27.36
27.59
25.79
23.74
22.83
24.11
27.98
34.10
41.96
49.94
56.61
60.45
61.10
58.98
54.99
50.33
45.44
41.12
37.96
37.17
39.85
46.68
57.38
70.20
83.07
93.55
100.85
105.15
107.60
109.33
110.71
111.98
113.08
114.82
117.49
121.02
124.26
125.93
125.62
123.99
123.02
123.86
126.74
129.89
131.01
128.34
121.13
110.41
97.54
84.34
71.80
61.00
53.00
48.84
49.29
53.54
59.88
65.32
67.94
66.92
62.96
57.45
51.48
46.07
41.25
37.51
34.82
33.41
33.10
33.35
33.47
32.28
29.38
24.60
18.87
13.08
8.07
4.56
2.81
3.46
6.22
10.67
15.29
18.82
20.43
20.14
18.89
17.06
15.02
11.86
7.01
0.18
-7.49
-13.78
-16.54
-14.24
-7.75
0.85
8.32
12.48
12.43
8.69
3.12
-2.61
-6.90
-9.55
-10.89
-11.51
-11.37
-9.65
-6.02
-0.72
4.42
7.73
8.06
5.78
2.26
-0.86
-1.93
-0.31
4.33
11.00
18.36
24.44
27.56
27.02
22.80
16.10
7.97
-0.08
-7.25
-12.88
-16.38
-17.63
-16.35
-13.08
-8.42
-3.41
1.30
5.36
8.71
11.41
12.78
12.32
9.40
4.46
-1.66
-7.59
-12.02
-14.11
-13.16
-9.65
-4.38
0.86
4.78
6.62
6.34
4.67
2.12
-0.55
-3.25
-5.75
-8.25
-10.81
-13.03
-14.45
-14.36
-12.96
-10.77
-8.75
-7.15
-5.83
-4.33
-2.14
0.51
3.46
6.06
8.15
9.51
10.24
10.61
10.67
10.75
10.76
10.94
11.10
11.15
10.88
10.16
9.25
8.25
7.56
7.06
6.81
6.81
7.43
9.25
12.36
16.52
20.59
23.61
24.73
24.15
22.83
22.07
22.95
25.13
27.37
27.36
23.49
15.22
3.51
-9.45
-21.41
-30.06
-34.20
-33.26
-28.04
-20.11
-11.46
-3.93
1.67
4.85
5.88
4.84
2.18
-1.55
-5.55
-8.93
-11.24
-12.25
-12.63
-12.94
-13.80
-15.06
-15.95
-15.64
-13.43
-9.76
-5.38
-1.60
0.82
1.52
0.68
-0.99
-2.89
-4.14
-4.55
-3.98
-2.68
-0.87
1.32
3.43
5.11
5.53
4.41
1.82
-1.25
-3.51
-3.99
-2.37
0.58
3.95
6.44
7.56
7.08
5.32
2.92
0.46
-1.23
-1.84
-1.13
0.47
2.34
3.73
4.06
3.34
1.62
-0.54
-2.87
-4.87
-6.06
-5.91
-4.08
-1.03
2.35
4.62
5.06
3.51
0.78
-1.95
-3.79
-4.16
-3.29
-1.44
0.68
2.61
3.81
4.00
3.21
1.57
-0.15
-1.52
-1.93
-1.49
-0.49
0.62
1.35
1.74
1.51
0.64
-1.19
-3.86
-6.72
-8.64
-8.42
-5.86
-1.67
2.29
4.47
4.02
1.54
-1.49
-3.66
-4.10
-3.15
-1.30
0.62
2.32
3.69
4.70
5.27
4.97
3.92
2.23
0.73
0.13
0.88
2.90
5.33
7.38
7.97
6.83
3.90
-0.17
-4.35
-7.51
-8.61
-7.65
-5.14
-2.37
-0.22
0.85
0.93
0.29
-1.06
-2.88
-4.99
-6.42
-6.44
-4.52
-1.11
2.63
5.65
7.08
7.19
6.32
5.24
4.27
3.55
3.27
3.31
3.91
4.74
5.59
5.87
5.22
3.60
1.28
-0.86
-2.21
-2.21
-1.16
0.35
1.49
1.69
0.94
-0.48
-1.82
-2.67
-2.51
-1.44
0.36
2.50
4.42
5.82
6.06
5.07
2.83
0.11
-2.14
-3.21
-2.71
-1.18
0.96
2.96
4.50
5.08
4.29
1.96
-1.73
-5.75
-9.02
-10.37
-9.57
-7.00
-3.71
-0.87
0.75
0.77
-0.33
-2.10
-3.81
-5.14
-5.77
-5.45
-4.21
-2.15
-0.17
1.08
0.93
-0.35
-1.91
-2.89
-2.56
-1.07
1.28
3.66
5.50
6.36
6.18
5.35
4.24
3.36
2.73
2.48
2.48
2.73
3.13
3.41
3.39
2.70
1.48
-0.23
-1.94
-3.24
-3.69
-3.05
-1.70
-0.11
0.71
0.35
-1.33
-3.78
-5.99
-7.16
-6.57
-4.42
-1.20
2.07
4.62
6.01
6.23
5.66
4.44
2.80
0.82
-0.90
-1.73
-1.03
1.16
3.92
6.05
6.23
4.34
0.93
-2.49
-4.55
-4.66
-2.99
-0.79
1.01
1.67
1.47
0.77
-0.11
-1.04
-2.12
-2.96
-3.25
-2.40
-0.46
2.12
4.35
5.21
4.29
1.82
-1.01
-3.20
-3.95
-3.40
-2.08
-0.58
0.46
0.83
0.07
-1.70
-4.21
-6.51
-7.63
-7.08
-4.80
-1.65
1.42
3.19
3.18
1.60
-0.63
-2.28
-2.74
-1.83
-0.22
1.58
2.97
3.71
3.68
2.76
1.26
-0.71
-2.44
-3.52
-3.28
-1.45
1.75
5.57
8.67
10.20
9.68
7.76
5.38
3.64
3.19
3.96
5.56
6.96
7.47
6.48
4.15
0.93
-2.49
-5.37
-7.33
-7.85
-7.04
-5.04
-2.56
-0.34
0.94
0.72
-0.74
-3.12
-5.34
-6.61
-6.34
-4.62
-2.15
0.38
2.14
2.96
2.65
1.52
-0.13
-1.79
-2.84
-2.98
-2.01
-0.47
1.16
2.10
2.00
0.89
-0.84
-2.40
-3.31
-3.03
-1.77
0.24
2.44
4.29
5.42
5.28
3.85
1.12
-2.09
-4.85
-6.12
-5.37
-2.99
0.19
2.90
4.40
4.24
2.74
0.46
-1.92
-3.73
-4.74
-4.58
-3.37
-1.19
1.28
3.24
3.90
2.80
0.33
-2.98
-5.94
-7.78
-7.86
-6.17
-3.32
-0.19
2.10
3.16
2.85
1.79
0.55
-0.23
-0.06
1.07
3.00
5.02
6.64
7.29
6.93
5.62
3.56
1.25
-0.95
-2.27
-2.48
-1.40
0.54
2.74
4.62
5.53
5.36
4.01
2.10
0.16
-1.13
-1.38
-0.66
0.72
1.85
2.03
0.59
-2.30
-6.00
-9.48
-11.73
-12.34
-11.18
-8.81
-5.75
-2.94
-1.10
-0.76
-2.07
-4.48
-7.38
-9.69
-10.81
-10.28
-8.35
-5.84
-3.79
-3.43
-5.06
-8.57
-12.95
-17.08
-19.80
-20.25
-18.15
-13.64
-7.87
-2.09
2.27
4.74
5.69
6.04
6.86
8.51
11.09
13.91
16.59
18.58
19.72
19.96
19.08
17.12
13.87
9.96
6.11
3.47
2.66
3.48
5.11
6.07
5.68
3.70
1.08
-0.99
-1.50
-0.06
2.65
5.61
7.33
7.11
4.76
1.07
-2.71
-5.44
-6.38
-5.77
-4.01
-2.01
-0.08
1.50
2.71
3.53
3.63
3.11
1.81
0.30
-1.01
-1.61
-1.49
-1.17
-0.96
-1.35
-1.99
-2.78
-3.32
-3.42
-2.90
-1.39
1.02
4.11
6.77
8.08
7.29
4.52
0.58
-3.44
-6.32
-7.53
-6.77
-4.69
-2.08
0.11
1.26
1.37
0.52
-0.58
-1.54
-1.52
0.01
3.41
8.56
14.44
19.71
22.45
21.33
15.37
4.93
-8.42
-21.96
-32.19
-36.23
-32.47
-21.73
-6.60
8.97
21.31
28.16
29.01
25.39
19.31
12.99
7.48
3.10
-0.60
-4.15
-7.48
-10.33
-11.81
-11.66
-9.89
-7.35
-5.12
-3.92
-3.95
-4.38
-4.48
-3.59
-2.04
-0.48
0.40
0.21
-0.66
-1.71
-2.22
-2.11
-1.32
-0.12
1.18
2.36
3.09
3.46
3.41
3.31
3.26
3.33
3.34
2.92
2.00
0.48
-1.14
-2.61
-3.59
-4.21
-4.85
-5.66
-6.84
-8.01
-9.04
-9.64
-9.87
-9.70
-8.91
-7.46
-5.30
-3.08
-1.36
-0.92
-1.87
-3.89
-6.24
-7.88
-8.23
-6.87
-4.40
-1.42
1.09
2.53
2.78
1.92
0.82
0.12
0.65
2.40
5.08
8.10
10.96
13.98
17.19
20.72
23.78
25.65
25.73
24.13
21.47
18.21
14.97
11.76
8.83
6.14
4.00
2.70
2.44
3.36
4.64
5.56
4.85
1.99
-3.11
-9.84
-16.76
-22.41
-25.13
-24.57
-21.13
-16.28
-11.20
-6.35
-1.84
2.56
6.23
8.67
9.14
7.65
4.58
0.85
-2.18
-3.44
-1.89
1.91
6.67
10.18
10.86
8.29
3.11
-2.82
-8.17
-11.90
-14.25
-15.64
-16.13
-15.02
-11.08
-4.31
4.08
11.36
15.54
15.98
13.94
11.32
9.31
8.21
7.04
5.29
2.80
0.50
-0.49
0.34
2.55
4.20
3.62
-0.44
-7.30
-15.40
-22.84
-28.07
-30.56
-30.21
-27.75
-23.84
-19.34
-14.48
-9.31
-4.06
1.00
4.92
7.32
7.65
6.27
3.98
2.32
2.98
6.57
12.58
18.62
22.37
22.16
18.38
12.79
7.36
3.90
2.85
4.19
6.81
9.61
11.54
12.14
11.64
10.09
7.58
3.60
-1.62
-7.52
-12.67
-15.53
-15.60
-13.30
-10.46
-8.38
-8.06
-8.92
-9.74
-9.32
-7.06
-3.65
0.01
2.69
4.11
4.31
3.85
3.35
2.79
2.06
0.32
-2.81
-7.50
-12.65
-16.66
-18.05
-15.89
-10.71
-3.53
4.02
10.95
16.48
20.15
21.60
20.34
16.47
10.13
2.31
-6.25
-14.60
-21.99
-27.66
-30.73
-30.97
-28.29
-23.47
-17.05
-9.79
-2.21
5.08
10.93
14.39
14.41
10.82
3.84
-5.40
-15.18
-23.57
-28.57
-29.56
-26.72
-21.53
-15.40
-9.44
-4.01
1.01
5.43
9.02
11.04
11.39
10.24
8.49
7.10
6.66
7.37
8.59
10.00
11.03
11.71
11.95
11.54
10.45
8.49
6.22
3.99
2.41
1.50
1.06
0.79
0.25
-0.31
-0.76
-0.58
0.35
2.01
4.03
5.91
7.46
8.34
8.60
7.95
6.63
4.89
3.42
2.89
3.54
5.29
7.09
8.08
7.32
4.91
1.59
-1.49
-3.17
-3.44
-2.55
-1.50
-0.77
-0.70
-1.13
-1.58
-1.77
-1.00
0.99
4.45
8.96
13.80
18.16
21.30
23.10
23.31
21.95
18.57
13.09
5.89
-1.69
-7.61
-10.32
-9.22
-5.67
-1.61
1.01
1.86
1.90
2.52
4.78
8.09
11.40
13.37
13.77
13.03
11.83
10.69
9.25
7.43
5.05
2.70
0.95
0.28
0.85
2.32
4.41
6.38
7.94
8.74
8.98
8.96
8.78
8.32
6.83
3.77
-1.59
-9.14
-18.41
-28.21
-36.93
-42.95
-44.34
-40.25
-30.31
-15.72
1.77
19.93
36.74
51.03
61.47
67.25
67.14
60.88
49.25
34.36
19.24
6.11
-3.65
-10.48
-15.14
-18.68
-21.46
-23.38
-24.29
-23.82
-22.19
-19.46
-16.15
-12.54
-9.28
-7.00
-6.13
-7.31
-10.50
-15.64
-21.69
-27.52
-31.59
-32.93
-31.43
-27.35
-21.82
-15.52
-9.38
-3.47
2.07
7.10
11.56
14.73
16.26
15.36
11.99
6.25
-0.88
-7.91
-13.46
-16.04
-15.53
-12.55
-8.61
-4.85
-2.05
-0.50
-0.23
-1.50
-3.83
-6.74
-9.03
-9.85
-8.47
-4.78
0.54
6.55
11.46
14.17
13.96
11.55
8.21
4.90
1.78
-2.26
-7.90
-15.20
-22.53
-27.78
-29.19
-26.28
-20.36
-13.27
-7.23
-3.09
-0.91
0.09
0.47
0.48
0.35
0.08
0.55
2.02
4.58
7.34
9.32
10.08
9.84
9.82
10.57
12.49
14.90
16.90
17.71
16.72
14.08
9.79
4.61
-1.04
-6.33
-10.33
-12.07
-10.78
-6.62
-0.27
6.49
12.23
15.78
17.08
16.53
14.52
11.36
6.78
1.34
-4.30
-8.91
-11.60
-12.11
-10.67
-8.01
-4.42
-0.76
2.38
3.96
3.30
0.71
-2.80
-5.56
-7.01
-7.49
-9.03
-13.39
-20.68
-28.76
-33.89
-33.45
-26.94
-16.67
-5.43
4.41
11.82
16.22
16.50
11.96
2.77
-7.99
-15.84
-16.28
-7.42
9.12
29.19
47.35
59.92
65.10
63.63
57.15
47.20
35.07
21.57
8.17
-3.97
-13.23
-18.77
-20.11
-17.51
-12.32
-6.65
-3.33
-4.00
-9.01
-16.37
-23.18
-26.73
-25.50
-20.00
-11.70
-3.13
3.95
8.14
9.18
7.23
2.39
-4.56
-12.80
-20.52
-26.38
-29.13
-28.37
-24.26
-17.16
-8.25
1.21
9.19
14.52
16.70
16.47
15.13
13.77
13.18
13.17
13.65
13.96
13.98
13.57
12.98
12.77
13.03
13.91
14.64
14.71
13.28
10.07
5.48
0.20
-4.52
-8.24
-10.76
-12.90
-15.07
-17.21
-18.80
-19.31
-19.15
-18.84
-19.18
-19.94
-20.58
-20.35
-18.92
-16.62
-13.67
-10.67
-7.62
-4.87
-2.47
-0.64
0.39
0.76
0.48
0.19
0.12
0.67
1.64
2.73
3.76
4.63
5.71
6.97
8.44
9.78
10.86
11.60
11.95
11.92
11.35
10.46
9.32
8.22
7.01
5.44
3.23
0.34
-2.54
-4.96
-6.16
-6.22
-5.44
-4.38
-3.59
-3.13
-3.15
-3.39
-4.04
-5.19
-6.86
-8.67
-9.80
-9.75
-8.34
-6.26
-4.22
-2.88
-2.19
-1.83
-1.50
-0.88
-0.05
1.13
2.30
3.27
3.72
3.68
3.55
3.47
3.57
3.11
1.84
-0.33
-2.66
-4.05
-3.96
-2.30
-0.03
2.04
3.00
2.67
1.35
-0.31
-1.25
-0.81
1.57
5.54
10.41
15.00
18.42
20.36
20.85
20.37
19.02
17.17
14.68
11.91
9.34
7.62
7.46
8.59
10.58
12.27
13.22
13.26
12.65
11.80
10.38
8.16
4.49
-0.59
-6.87
-13.43
-18.92
-21.97
-21.45
-17.86
-12.73
-8.50
-6.71
-7.64
-10.27
-13.04
-15.19
-16.42
-17.38
-18.20
-18.87
-18.54
-16.25
-11.57
-4.46
3.54
10.68
14.95
15.71
13.34
9.20
5.19
2.33
1.31
1.53
2.11
1.86
0.14
-2.76
-5.97
-7.93
-7.92
-5.63
-1.87
2.40
6.00
8.05
8.21
6.38
3.46
0.01
-3.14
-5.71
-7.16
-6.83
-4.17
1.31
8.47
15.49
19.90
20.34
16.97
11.36
5.78
1.46
-1.19
-3.27
-5.72
-8.83
-11.62
-12.53
-10.96
-7.53
-4.29
-2.61
-2.95
-4.33
-5.59
-6.22
-6.19
-6.01
-5.23
-3.60
-0.82
2.61
5.89
8.52
9.98
10.41
9.50
7.44
4.35
0.80
-2.35
-4.46
-4.79
-3.43
-0.44
3.29
7.01
9.87
11.50
12.09
11.90
11.44
10.47
8.99
6.65
3.67
0.57
-2.03
-3.53
-4.37
-5.09
-6.76
-9.39
-12.18
-13.93
-13.67
-11.90
-9.57
-8.09
-7.69
-8.05
-8.42
-8.31
-7.98
-7.75
-8.17
-9.02
-10.08
-10.76
-10.70
-9.77
-7.81
-5.11
-1.72
1.59
4.09
4.79
3.47
0.81
-1.96
-3.38
-3.09
-1.33
0.66
2.07
2.50
2.17
1.67
1.24
1.26
1.55
2.21
3.10
4.13
5.15
5.83
6.13
5.76
4.98
3.70
2.02
0.08
-1.86
-3.19
-3.86
-3.84
-3.82
-4.21
-5.18
-6.36
-7.16
-7.50
-7.45
-7.59
-7.88
-8.30
-8.35
-7.60
-5.95
-3.39
-0.57
2.16
4.19
5.71
7.18
9.31
12.66
16.76
20.83
23.37
23.71
21.55
17.53
12.62
7.65
3.68
1.20
0.68
1.71
3.59
5.11
5.31
3.82
0.61
-3.77
-9.14
-15.08
-21.63
-28.49
-35.10
-40.55
-43.49
-43.44
-40.43
-35.87
-31.21
-27.70
-25.94
-25.70
-26.86
-29.15
-32.77
-37.54
-43.41
-50.06
-57.10
-64.54
-72.04
-79.61
-86.77
-92.57
-95.53
-94.78
-91.11
-87.17
-87.26
-94.87
-110.97
-132.85
-155.20
-172.30
-180.99
-182.18
-179.35
-176.35
-174.00
-169.39
-157.21
-133.00
-95.75
-48.62
2.41
51.67
95.41
131.44
159.96
180.02
190.62
191.78
186.70
180.61
177.99
178.81
177.03
162.85
127.76
71.06
2.37
-60.31
-98.44
-101.07
-69.60
-16.09
44.07
99.58
147.95
192.55
239.57
292.44
349.19
402.94
445.35
471.06
479.46
473.93
458.98
438.11
412.26
380.75
343.26
300.59
255.79
212.78
174.56
141.75
113.07
85.80
56.78
25.45
-10.47
-52.09
-98.85
-149.18
-200.90
-251.36
-298.66
-341.76
-378.29
-406.57
-424.44
-429.44
-420.76
-399.85
-370.17
-336.25
-301.58
-266.77
-229.81
-188.21
-139.16
-82.53
-24.43
28.14
69.72
98.78
118.74
134.90
152.58
174.22
196.96
213.94
218.29
205.60
176.28
135.60
91.31
51.07
19.75
-2.34
-17.81
-31.46
-47.91
-69.31
-94.72
-121.41
-146.79
-169.96
-191.94
-214.12
-236.65
-257.43
-273.22
-281.25
-280.64
-272.70
-259.99
-245.19
-229.42
-213.13
-193.92
-168.89
-136.41
-96.93
-53.15
-8.79
32.31
67.63
96.38
119.47
138.76
156.09
173.10
190.24
206.92
221.27
230.87
233.33
227.09
212.05
189.29
161.62
132.48
105.20
82.16
63.96
50.16
39.49
30.98
23.86
17.86
12.75
8.30
4.29
0.33
-3.67
-7.82
-11.64
-14.75
-16.83
-18.01
-18.98
-20.26
-22.42
-25.04
-27.51
-28.64
-27.56
-24.11
-18.81
-13.35
-8.87
-6.16
-4.75
-3.97
-3.43
-3.24
-4.14
-6.00
-8.41
-10.12
-10.31
-8.68
-5.71
-2.23
1.33
4.55
7.50
9.73
10.92
10.40
7.92
4.04
-0.20
-3.23
-4.65
-4.60
-4.19
-4.20
-4.80
-5.86
-6.93
-8.31
-9.87
-11.66
-12.95
-12.97
-11.34
-8.02
-3.82
0.59
4.08
6.07
6.23
4.85
2.55
-0.18
-2.68
-4.78
-5.95
-6.42
-6.40
-6.44
-6.75
-6.95
-6.64
-4.97
-2.07
1.97
6.39
10.30
12.85
13.18
11.38
7.96
4.48
1.92
0.62
0.01
-0.85
-2.16
-3.62
-4.14
-3.30
-1.14
1.47
3.58
4.81
4.97
4.49
3.20
1.16
-1.95
-5.74
-9.46
-12.00
-12.27
-10.48
-7.26
-4.15
-1.84
-0.48
0.33
1.04
1.37
1.15
-0.04
-1.72
-3.32
-4.05
-3.35
-1.26
1.95
5.27
7.99
9.44
9.79
9.31
8.35
7.35
6.55
6.60
7.21
7.97
7.87
6.35
3.61
0.21
-2.91
-5.69
-7.92
-9.76
-10.88
-10.97
-10.12
-8.51
-6.79
-4.97
-3.21
-1.21
0.85
2.79
4.30
4.92
4.73
3.69
2.27
0.26
-2.35
-5.46
-8.22
-9.26
-8.01
-4.50
-0.42
2.87
4.63
5.37
6.13
7.15
8.23
8.29
7.06
4.69
2.06
-0.01
-1.25
-1.64
-1.93
-2.47
-3.43
-4.03
-3.65
-2.18
-0.23
0.91
0.63
-1.20
-3.38
-4.92
-5.02
-3.80
-1.89
0.28
2.17
4.02
5.51
6.75
7.64
8.46
9.89
12.01
14.64
16.35
15.91
12.59
7.23
1.56
-3.12
-6.11
-8.03
-9.37
-10.40
-10.39
-8.62
-5.16
-1.13
1.59
2.25
0.94
-0.82
-2.00
-2.13
-1.67
-1.40
-1.51
-2.19
-2.95
-3.81
-4.68
-5.58
-6.66
-7.75
-8.97
-9.99
-10.80
-10.99
-10.29
-8.23
-4.56
-0.06
3.83
5.14
3.30
-0.88
-5.04
-6.99
-5.93
-2.73
0.34
1.85
1.14
-0.59
-1.75
-0.99
1.99
5.97
9.39
10.53
9.13
5.71
1.60
-2.01
-4.70
-6.39
-7.78
-9.11
-10.55
-11.33
-10.52
-7.63
-3.16
1.02
3.22
2.42
-0.42
-3.80
-6.11
-6.84
-6.33
-4.82
-2.54
1.16
6.07
11.70
16.72
19.88
20.87
20.03
18.87
18.26
18.58
18.72
17.35
13.78
8.35
2.88
-1.19
-2.96
-3.11
-2.70
-2.59
-2.84
-2.65
-1.77
-0.56
-0.57
-2.89
-7.92
-14.35
-19.98
-22.84
-21.95
-18.37
-13.60
-9.55
-6.86
-5.31
-4.21
-2.81
-1.25
0.56
2.28
4.05
5.77
7.32
8.75
10.10
11.96
14.27
16.77
18.52
18.88
17.60
14.89
11.67
8.66
6.63
5.22
3.84
1.42
-2.31
-6.51
-9.84
-10.76
-9.29
-6.04
-2.63
-0.38
-0.07
-1.91
-5.16
-9.14
-12.64
-15.17
-16.34
-16.09
-14.41
-11.32
-7.36
-3.29
-0.33
1.06
0.78
-0.45
-1.79
-2.68
-2.65
-1.85
-0.13
1.89
3.90
5.45
6.51
7.42
8.25
9.34
10.12
10.56
10.42
9.95
9.52
8.98
8.02
5.42
0.65
-6.49
-14.85
-22.49
-27.58
-28.87
-26.73
-22.13
-16.73
-11.31
-6.29
-1.61
2.50
5.38
6.69
6.16
4.63
2.75
1.36
0.77
0.98
2.00
3.06
3.56
2.28
-1.27
-7.06
-14.15
-20.90
-26.23
-29.38
-31.09
-32.32
-34.43
-37.91
-42.40
-47.17
-51.40
-55.38
-59.66
-65.24
-72.18
-80.09
-88.17
-95.76
-103.01
-110.07
-117.30
-124.15
-130.04
-134.39
-137.47
-140.39
-143.91
-148.15
-151.79
-152.84
-149.24
-139.81
-124.23
-102.61
-75.45
-42.91
-5.84
34.56
76.90
119.93
163.88
209.97
259.23
310.66
361.38
406.79
442.31
464.44
471.51
463.88
443.31
412.78
375.35
334.79
293.93
254.39
215.94
176.83
134.57
86.51
33.04
-25.41
-85.31
-140.07
-181.82
-204.24
-205.10
-187.48
-158.78
-128.45
-104.70
-91.61
-88.70
-91.98
-95.77
-94.46
-83.97
-61.80
-28.13
14.49
62.03
109.39
151.34
183.08
200.23
199.35
180.84
146.28
100.31
50.88
7.16
-23.66
-39.17
-41.64
-37.85
-36.09
-42.73
-59.06
-81.60
-104.94
-124.78
-139.64
-150.45
-159.14
-166.77
-173.26
-177.57
-178.89
-177.57
-175.13
-173.59
-174.40
-177.98
-183.65
-190.27
-196.48
-201.23
-204.24
-205.59
-205.37
-203.04
-197.71
-188.00
-172.84
-152.69
-127.47
-97.67
-64.10
-28.01
9.63
47.57
84.84
120.27
152.77
181.07
203.00
216.10
217.88
207.73
187.08
159.93
131.13
104.91
83.71
67.80
56.67
49.44
45.76
44.91
45.73
46.38
44.89
40.26
32.12
21.61
10.02
-0.99
-10.24
-16.88
-20.20
-20.30
-17.37
-12.64
-7.02
-1.54
3.57
8.41
12.70
15.89
16.56
14.25
9.00
2.25
-4.37
-9.33
-11.73
-11.66
-9.17
-5.08
-0.02
4.85
8.68
10.95
11.68
11.72
11.24
10.35
8.07
3.66
-3.02
-10.97
-18.18
-22.96
-24.02
-21.65
-16.63
-10.30
-3.69
2.61
8.21
13.16
16.86
19.07
19.15
16.99
12.78
7.27
1.53
-3.81
-7.97
-10.90
-12.27
-11.99
-9.74
-5.61
-0.47
4.64
7.96
8.85
7.30
4.32
0.99
-2.00
-4.29
-6.21
-7.55
-8.47
-8.79
-8.62
-8.21
-7.70
-7.58
-7.87
-8.77
-9.38
-8.85
-6.38
-2.23
2.41
6.44
9.21
11.49
13.84
16.55
18.84
19.78
19.04
16.73
13.75
10.16
6.03
1.06
-4.31
-9.13
-12.46
-13.32
-11.87
-8.52
-4.23
0.39
4.74
8.09
9.73
8.58
4.42
-2.32
-9.73
-15.78
-18.77
-18.20
-14.70
-9.17
-2.91
3.50
9.27
14.01
17.20
18.28
16.94
12.94
7.29
1.26
-3.55
-6.61
-8.27
-9.09
-9.41
-8.54
-6.33
-3.31
-1.26
-1.57
-4.36
-8.15
-10.63
-10.54
-7.69
-3.66
0.06
2.59
4.43
6.81
10.33
14.68
17.83
18.14
14.68
8.30
0.95
-5.59
-10.09
-12.78
-14.03
-14.65
-14.86
-14.56
-13.32
-10.56
-6.46
-1.55
2.70
5.40
6.11
5.39
4.20
3.20
2.55
1.52
0.02
-1.95
-3.43
-3.49
-1.55
2.29
6.86
11.08
13.44
13.61
11.60
7.99
3.58
-1.23
-5.81
-9.98
-13.11
-15.08
-15.49
-14.11
-10.81
-5.43
1.23
8.04
13.04
15.17
14.18
11.11
7.56
4.57
2.52
0.59
-1.64
-4.53
-7.25
-8.58
-7.38
-3.26
2.67
8.87
13.10
14.52
13.11
9.85
5.96
1.90
-2.16
-6.76
-11.74
-16.92
-21.28
-23.71
-23.38
-19.83
-13.79
-6.43
0.36
5.74
9.48
12.18
14.56
16.43
17.37
16.47
14.03
10.72
8.00
6.93
7.84
10.41
13.04
14.37
12.85
8.44
2.10
-4.35
-8.88
-10.60
-9.26
-5.99
-2.01
1.14
2.58
2.18
0.24
-2.36
-5.19
-7.66
-9.78
-11.19
-11.93
-12.11
-11.70
-10.67
-8.44
-5.17
-1.12
2.68
5.74
8.15
10.55
13.87
17.60
20.72
21.38
18.72
12.91
5.37
-1.81
-7.39
-10.61
-12.12
-12.68
-12.94
-12.64
-10.95
-7.55
-2.80
1.46
3.65
2.58
-1.08
-5.55
-8.75
-9.34
-7.48
-3.80
0.03
3.11
4.92
5.96
7.09
8.59
10.19
10.36
8.26
3.68
-2.06
-7.17
-10.34
-11.37
-11.58
-12.08
-13.66
-15.49
-16.07
-14.00
-9.07
-2.89
2.32
4.19
2.46
-1.74
-5.98
-8.23
-7.78
-5.19
-2.25
-0.14
0.21
-0.57
-1.35
-0.74
1.94
5.95
9.99
12.20
12.07
9.82
6.65
3.66
1.35
0.14
-0.20
0.52
2.00
4.20
6.86
9.62
12.06
13.28
12.79
9.90
5.12
-0.74
-6.26
-10.19
-12.01
-11.77
-10.62
-9.30
-8.60
-8.05
-6.84
-4.03
0.79
6.67
12.30
15.67
15.73
12.07
5.62
-1.85
-8.58
-12.86
-14.33
-13.15
-10.48
-7.04
-3.18
1.29
6.75
12.60
17.91
21.01
21.19
18.44
13.89
9.03
4.57
0.58
-3.96
-9.28
-15.10
-19.69
-21.32
-19.12
-13.45
-6.36
0.35
5.14
8.06
9.60
10.27
10.05
8.31
5.36
1.86
-0.56
-1.02
0.60
3.29
5.52
6.47
5.60
3.31
-0.19
-4.16
-8.04
-11.16
-12.90
-12.97
-10.98
-7.59
-3.44
0.38
3.63
6.48
9.16
11.66
12.68
11.18
6.51
-0.25
-7.15
-12.20
-14.48
-14.87
-14.53
-14.61
-14.76
-13.86
-10.53
-4.38
3.44
10.91
15.48
16.14
12.91
7.30
1.07
-4.17
-7.34
-8.23
-6.55
-2.92
2.07
7.08
10.99
12.92
12.43
10.15
6.68
3.34
0.62
-1.40
-3.50
-6.49
-10.28
-14.08
-16.18
-15.75
-12.76
-8.51
-4.48
-1.74
-0.68
-0.46
-0.48
0.12
1.05
1.80
1.79
1.20
1.38
3.38
7.85
13.49
18.45
20.84
20.06
16.72
11.76
6.48
1.31
-3.16
-6.82
-9.17
-9.81
-8.74
-6.51
-4.68
-4.26
-5.93
-8.89
-11.97
-13.93
-14.02
-12.16
-8.16
-2.80
3.10
7.85
10.24
9.76
6.95
3.42
0.51
-0.57
0.06
1.86
3.86
5.72
7.71
9.94
12.43
14.26
14.93
14.13
12.44
10.53
8.76
7.42
6.16
5.29
4.90
5.51
7.36
10.26
13.49
15.48
15.26
12.09
6.65
0.09
-6.17
-10.97
-13.76
-14.33
-13.45
-11.83
-10.76
-10.77
-12.04
-14.24
-16.68
-19.03
-20.59
-21.25
-20.48
-18.16
-14.01
-8.08
-0.94
6.71
13.12
17.03
17.25
13.78
7.45
-0.17
-6.79
-10.76
-10.76
-7.37
-2.13
2.75
5.75
6.59
5.79
4.37
2.50
0.48
-1.89
-4.16
-5.89
-6.80
-6.80
-6.33
-5.33
-4.17
-2.77
-1.28
0.44
2.53
4.64
6.51
7.07
5.97
3.22
-0.23
-3.33
-5.51
-6.49
-6.71
-6.17
-5.01
-2.92
0.01
3.20
5.70
6.05
3.62
-1.51
-7.53
-12.48
-14.48
-12.88
-8.08
-1.00
6.78
14.10
19.44
22.15
22.07
19.92
16.74
12.91
8.62
3.22
-3.16
-10.11
-16.25
-20.07
-20.84
-18.56
-14.52
-9.88
-5.73
-1.87
2.24
6.97
12.30
17.34
21.28
23.00
22.20
18.54
12.55
5.26
-1.87
-7.06
-9.53
-8.97
-6.65
-3.72
-1.24
0.58
2.20
3.66
4.88
4.80
3.03
-0.62
-5.34
-10.02
-13.96
-16.61
-18.22
-18.71
-18.35
-16.82
-13.84
-9.24
-3.00
4.12
11.33
17.21
21.10
22.41
21.23
18.02
13.29
7.90
2.24
-2.65
-6.32
-7.97
-7.52
-5.38
-2.36
0.24
1.98
2.50
2.73
3.45
5.21
7.87
10.32
11.55
10.24
6.28
-0.17
-7.92
-15.50
-21.65
-25.20
-25.94
-23.88
-20.06
-15.35
-10.76
-6.93
-4.07
-2.40
-1.78
-2.58
-4.44
-7.13
-9.66
-11.05
-10.55
-7.86
-3.81
0.80
4.59
7.28
9.16
11.21
14.42
18.72
23.47
26.89
27.91
25.68
20.67
14.06
7.21
1.69
-1.77
-2.79
-1.97
0.01
2.24
3.96
4.67
3.70
1.04
-3.25
-8.04
-12.34
-15.20
-16.45
-16.38
-15.14
-13.20
-10.47
-7.49
-4.42
-1.54
1.18
3.94
6.18
7.25
5.83
1.50
-5.28
-12.62
-17.86
-18.97
-15.05
-7.57
1.17
8.45
13.12
15.28
15.93
16.24
16.63
17.43
18.02
18.09
17.27
15.92
14.76
14.26
14.54
14.39
12.77
8.89
3.43
-2.19
-6.65
-8.88
-8.94
-7.03
-4.08
-0.90
1.49
2.51
2.06
0.19
-2.48
-5.81
-9.27
-12.76
-15.81
-17.86
-18.19
-16.13
-11.81
-5.51
1.26
7.14
10.87
11.94
10.59
7.25
2.90
-1.88
-6.03
-8.96
-10.17
-9.61
-7.78
-5.09
-2.36
0.03
1.52
2.28
2.44
2.27
1.82
0.53
-2.01
-6.32
-11.72
-17.39
-22.01
-24.50
-24.17
-20.67
-14.60
-6.64
1.59
9.05
15.00
19.31
22.15
23.17
22.30
19.28
15.00
10.46
6.79
4.56
3.40
3.06
3.11
3.81
4.94
6.30
7.10
6.54
4.37
0.62
-3.98
-8.93
-13.32
-16.89
-19.43
-20.93
-21.29
-19.97
-16.67
-10.90
-3.40
4.63
11.42
15.42
16.26
14.19
10.53
6.29
2.38
-1.12
-4.16
-6.34
-7.05
-5.11
-0.39
6.37
13.10
17.89
19.47
17.80
13.94
8.97
4.24
0.16
-2.72
-4.70
-6.15
-7.37
-8.39
-8.50
-7.51
-5.14
-2.21
0.49
2.07
2.01
0.41
-2.69
-6.51
-10.51
-13.86
-16.21
-17.15
-16.37
-13.94
-9.99
-5.58
-1.66
0.62
1.13
0.25
-1.22
-2.30
-2.48
-1.05
1.75
5.67
9.71
13.10
15.42
16.59
17.21
17.17
16.67
15.36
13.30
10.60
7.48
4.46
1.65
-0.56
-2.54
-4.39
-6.28
-7.78
-8.18
-7.31
-5.58
-4.47
-4.86
-7.15
-10.30
-12.85
-13.58
-11.94
-8.59
-4.06
0.55
5.00
8.95
12.27
14.66
15.54
15.00
13.10
10.68
7.96
4.96
1.41
-2.66
-6.22
-8.27
-7.90
-5.68
-2.49
0.59
2.91
4.30
4.39
3.20
0.65
-2.29
-4.93
-6.67
-7.65
-8.29
-8.56
-8.54
-7.71
-6.55
-5.41
-5.00
-5.43
-6.11
-6.49
-5.92
-4.80
-3.60
-3.24
-3.71
-4.31
-4.13
-2.08
1.86
7.31
13.13
18.54
22.75
25.18
25.49
23.20
18.59
11.91
4.26
-3.50
-10.23
-15.01
-17.10
-15.95
-12.23
-7.00
-2.27
0.71
1.46
0.45
-1.20
-2.92
-4.20
-5.34
-6.42
-7.75
-9.19
-10.29
-10.72
-10.13
-9.01
-7.81
-7.25
-7.24
-7.45
-7.33
-6.24
-3.96
-0.06
4.88
10.24
14.91
18.42
20.88
22.68
24.31
25.12
24.60
22.03
17.57
11.74
5.23
-0.96
-6.06
-8.91
-9.26
-7.28
-4.09
-0.86
1.63
2.99
3.38
2.36
-0.13
-4.37
-9.57
-14.40
-17.25
-17.00
-14.12
-9.68
-5.82
-3.53
-3.06
-3.55
-4.05
-4.52
-5.09
-6.42
-8.06
-9.39
-9.62
-8.59
-7.05
-5.70
-5.26
-5.15
-4.83
-3.38
-0.77
2.43
5.34
7.05
7.59
6.88
5.50
3.41
0.66
-2.68
-6.00
-8.03
-8.01
-5.33
-1.19
2.96
5.40
5.51
4.02
2.12
1.33
1.89
3.69
5.66
6.97
7.14
6.16
4.85
3.78
3.70
4.35
5.34
6.04
6.30
6.44
6.63
7.16
7.31
6.73
4.78
1.50
-2.57
-6.34
-8.35
-8.08
-5.59
-2.24
0.94
3.31
4.99
6.48
7.58
8.27
8.05
7.37
6.67
6.54
7.03
7.58
7.69
6.43
3.64
-0.83
-6.21
-11.60
-15.83
-17.75
-16.71
-12.27
-5.49
2.20
8.67
12.79
14.41
14.09
12.83
10.64
7.69
3.87
-0.12
-3.72
-6.68
-9.19
-12.00
-15.05
-18.04
-20.01
-20.38
-18.71
-15.27
-10.74
-5.88
-1.82
0.87
1.57
0.63
-1.43
-3.46
-4.48
-3.96
-1.72
1.48
4.98
7.70
9.36
9.84
9.35
8.18
6.16
3.65
1.01
-0.48
0.10
3.42
9.00
15.37
20.76
23.59
23.49
20.43
15.52
9.64
3.76
-1.46
-5.63
-8.39
-10.04
-10.72
-11.16
-11.62
-12.17
-12.34
-11.44
-9.24
-5.71
-1.87
1.64
4.05
5.23
5.11
3.87
2.24
0.88
0.84
2.09
4.32
6.32
7.03
5.91
2.79
-1.36
-5.57
-8.53
-9.84
-9.71
-8.98
-8.45
-8.19
-8.15
-7.63
-6.53
-4.68
-2.48
-0.48
0.84
1.19
1.29
1.56
2.50
3.56
4.12
3.70
2.46
1.26
0.50
0.42
0.09
-1.08
-3.37
-6.16
-7.92
-7.55
-4.55
-0.28
3.53
5.00
3.65
0.20
-3.96
-7.26
-9.02
-8.88
-7.53
-5.58
-3.90
-2.79
-1.81
-0.59
1.42
3.63
5.47
6.05
5.24
3.52
1.69
0.84
1.00
1.91
2.34
1.62
-0.27
-2.44
-3.56
-3.18
-1.43
0.29
1.09
0.40
-1.11
-2.16
-1.64
1.11
5.24
9.68
13.00
14.76
14.98
13.80
11.24
6.87
1.30
-4.45
-8.27
-8.47
-4.54
2.52
10.35
16.82
19.95
19.24
14.60
6.98
-2.25
-11.21
-17.81
-20.78
-19.68
-15.94
-11.49
-8.36
-7.17
-7.06
-6.59
-4.34
-0.70
3.21
5.79
6.39
5.41
3.88
2.77
1.87
0.89
-0.76
-2.76
-4.20
-4.04
-1.58
2.51
6.98
9.87
10.38
8.44
4.93
0.74
-3.48
-6.87
-8.62
-7.46
-3.59
1.64
5.59
6.21
3.40
-1.24
-4.89
-6.17
-5.00
-3.06
-2.06
-2.89
-5.24
-7.58
-8.66
-7.65
-5.15
-2.08
0.54
2.28
3.45
4.11
4.40
3.64
1.68
-1.59
-5.34
-8.43
-9.76
-8.36
-4.54
1.05
6.82
11.75
15.09
16.53
15.82
12.29
6.20
-1.59
-8.91
-13.95
-15.96
-15.46
-13.89
-12.04
-10.41
-8.65
-6.90
-5.07
-3.35
-1.80
-0.15
1.53
3.67
6.22
9.51
13.23
16.87
19.60
20.73
20.54
19.45
18.59
18.27
18.52
18.55
17.45
14.92
10.77
5.74
0.19
-5.37
-10.80
-15.78
-19.62
-21.68
-21.36
-19.19
-15.87
-12.73
-10.54
-9.71
-10.17
-11.19
-12.00
-11.28
-8.89
-5.11
-1.12
2.08
4.09
4.64
3.99
1.83
-1.62
-6.14
-10.73
-14.44
-16.68
-16.83
-15.00
-11.08
-5.73
0.28
5.75
9.80
12.17
12.88
12.65
11.65
10.26
8.12
5.13
1.46
-2.02
-3.78
-2.91
1.10
7.06
13.44
18.50
21.24
21.67
19.72
15.77
9.69
1.86
-7.14
-15.83
-22.32
-25.09
-23.13
-17.28
-9.38
-2.17
2.58
4.19
3.32
1.39
-0.75
-2.38
-3.66
-4.37
-4.43
-3.47
-1.31
1.83
5.71
9.52
12.98
15.76
18.22
20.48
22.41
23.68
23.11
19.92
13.37
4.05
-6.73
-16.64
-23.42
-26.17
-25.12
-21.96
-18.01
-14.29
-10.67
-6.91
-3.15
0.29
2.65
4.10
4.99
6.28
8.16
10.22
11.48
10.69
7.53
2.06
-4.39
-10.50
-14.57
-15.51
-13.06
-7.65
-1.00
5.31
9.57
11.25
10.34
7.44
3.49
-0.87
-4.55
-7.13
-8.12
-7.81
-6.48
-4.39
-1.79
1.51
4.86
7.57
8.55
7.68
5.42
2.83
0.97
-0.05
-0.46
-1.25
-2.48
-3.97
-4.65
-3.64
-0.75
3.75
8.42
12.39
14.80
15.84
15.76
14.61
12.22
7.87
1.99
-4.52
-9.69
-12.08
-11.18
-7.79
-3.84
-0.76
0.30
-0.28
-1.71
-2.72
-2.53
-1.15
0.91
2.63
3.68
3.65
2.86
1.38
-0.45
-2.21
-3.50
-3.68
-3.13
-2.37
-2.68
-4.69
-8.41
-13.18
-17.73
-21.41
-23.45
-24.07
-23.13
-20.59
-16.10
-9.50
-1.84
5.16
9.03
8.92
5.36
0.70
-2.54
-2.84
-0.01
4.67
10.09
14.78
18.17
19.87
19.97
18.92
16.90
14.56
12.02
9.78
7.84
6.25
4.92
3.76
3.18
2.96
3.11
2.95
2.41
1.67
1.27
1.69
2.51
2.90
1.41
-2.23
-7.69
-13.42
-17.70
-19.08
-16.82
-11.63
-4.47
2.80
9.12
13.70
16.37
17.39
16.55
14.04
9.75
4.24
-1.88
-7.57
-11.80
-13.95
-13.64
-11.78
-9.49
-8.34
-8.80
-10.47
-12.36
-13.41
-13.43
-12.31
-10.53
-7.94
-4.66
-0.75
3.33
6.96
9.90
11.89
13.38
14.28
14.66
14.03
11.99
8.83
4.81
0.81
-3.04
-6.57
-9.90
-12.53
-13.56
-12.51
-9.25
-5.20
-1.70
0.02
0.28
0.22
0.97
3.05
5.62
7.69
8.02
6.47
3.37
-0.37
-3.71
-5.75
-5.57
-3.21
0.94
5.49
9.36
11.88
13.12
13.84
14.03
13.46
10.83
5.37
-3.00
-12.68
-20.85
-24.97
-23.32
-16.79
-7.48
1.66
8.68
13.06
15.29
16.48
16.98
17.11
16.23
14.05
10.34
5.71
1.28
-1.98
-3.33
-3.42
-2.99
-3.17
-4.27
-6.22
-8.75
-11.03
-12.62
-12.71
-11.51
-9.47
-7.60
-6.46
-5.69
-4.82
-3.13
-1.34
-0.33
-1.08
-3.25
-5.24
-5.25
-2.29
2.36
6.67
8.31
6.95
3.77
1.09
0.62
2.20
4.78
6.46
6.76
5.85
4.73
4.09
3.55
2.63
0.53
-2.45
-5.90
-8.88
-10.71
-10.96
-9.38
-6.71
-3.90
-2.66
-3.78
-7.30
-11.96
-16.11
-18.56
-18.64
-17.09
-14.55
-12.15
-9.99
-7.84
-4.91
-0.35
5.63
12.38
18.03
21.41
21.66
19.33
15.83
12.23
9.36
6.74
3.82
-0.05
-4.45
-8.21
-10.03
-9.03
-5.96
-2.15
0.50
1.07
-0.57
-3.55
-6.64
-8.74
-8.61
-6.08
-1.36
4.22
9.41
13.25
15.36
16.05
15.34
13.79
11.49
8.99
6.52
4.27
2.68
2.01
2.97
5.27
8.23
10.40
10.81
9.39
6.83
4.37
2.51
1.59
1.12
0.78
0.36
0.17
0.76
2.12
4.03
5.16
4.61
1.84
-2.59
-7.58
-12.25
-16.04
-19.29
-21.77
-23.29
-23.08
-20.61
-15.87
-9.36
-2.36
4.13
8.91
11.72
12.57
11.87
10.13
7.62
4.80
1.86
-0.45
-1.79
-1.88
-1.07
-0.01
0.79
0.84
0.54
-0.10
-0.72
-1.35
-2.03
-2.83
-4.10
-5.86
-8.37
-11.05
-13.52
-15.05
-15.25
-13.92
-10.87
-6.30
-0.26
6.30
12.51
17.19
19.72
20.06
18.47
15.72
12.28
8.99
6.10
3.79
1.86
0.28
-0.58
-0.63
0.45
1.84
2.79
2.39
0.54
-2.12
-4.97
-7.37
-9.87
-12.88
-17.09
-22.18
-27.00
-29.83
-28.95
-23.95
-15.24
-4.69
6.04
15.32
22.37
27.13
29.74
30.85
30.72
30.05
28.86
27.06
24.11
19.39
12.53
3.50
-6.33
-15.11
-20.21
-20.05
-14.57
-5.70
3.09
8.85
9.65
6.31
0.73
-4.85
-9.39
-13.04
-16.02
-18.24
-18.53
-16.38
-11.94
-6.78
-2.69
-0.57
-0.31
-0.82
-1.62
-2.24
-3.02
-4.09
-5.45
-6.83
-7.66
-7.80
-6.94
-5.42
-3.31
-0.88
1.91
5.17
8.55
11.78
13.77
14.11
12.54
9.47
5.66
1.62
-2.22
-6.03
-9.37
-11.80
-12.28
-10.09
-5.45
0.62
6.45
11.15
14.21
16.03
16.45
14.96
11.05
4.79
-2.51
-9.37
-14.29
-17.18
-18.41
-18.60
-17.63
-14.80
-9.74
-2.48
5.15
11.21
13.78
12.29
7.61
1.51
-3.58
-6.17
-5.48
-2.50
1.17
3.94
5.06
5.13
4.88
5.10
5.50
5.92
6.04
5.97
5.91
5.92
6.24
6.73
7.70
8.87
10.02
10.80
11.38
12.37
13.71
15.08
14.72
11.35
4.20
-5.74
-16.06
-24.29
-28.34
-27.96
-23.85
-17.90
-11.63
-6.16
-2.09
0.62
1.78
1.62
0.14
-1.93
-3.90
-4.94
-4.64
-3.20
-0.83
1.79
4.48
6.86
8.90
10.45
11.30
11.41
10.27
7.80
3.72
-1.44
-7.02
-12.08
-15.60
-17.28
-16.84
-14.67
-10.96
-6.26
-1.12
3.64
6.90
8.00
6.41
2.85
-1.59
-5.29
-7.30
-7.47
-6.37
-4.81
-2.73
0.04
4.10
9.02
13.99
17.93
20.17
20.98
20.49
19.01
16.02
11.32
4.79
-2.93
-10.50
-16.90
-21.05
-22.94
-22.66
-20.82
-17.68
-13.47
-8.75
-3.89
0.43
4.32
7.75
10.88
13.18
13.95
13.05
10.84
8.57
6.63
4.97
2.57
-0.96
-4.95
-8.27
-9.87
-10.26
-10.09
-10.16
-9.78
-7.93
-4.12
0.99
5.38
7.80
7.80
6.80
6.12
6.59
7.78
8.27
7.16
3.85
-0.68
-5.27
-8.36
-9.21
-7.95
-5.51
-3.68
-3.49
-5.48
-8.44
-10.55
-10.10
-6.43
-0.43
6.50
12.38
16.24
17.22
15.36
10.89
4.57
-2.39
-9.05
-14.28
-17.81
-19.21
-18.52
-15.62
-10.73
-4.61
1.98
7.74
12.17
14.89
16.39
17.19
17.79
18.67
19.37
19.69
18.82
16.43
12.35
6.96
1.13
-4.37
-8.41
-10.90
-11.76
-11.63
-10.81
-9.46
-7.68
-5.49
-3.75
-3.33
-5.43
-9.90
-15.66
-20.57
-22.57
-20.93
-16.12
-10.14
-4.37
0.21
4.10
7.99
11.95
15.61
17.64
17.63
15.43
11.87
7.68
3.54
-0.05
-2.98
-4.58
-4.77
-3.33
-0.73
2.55
5.66
7.57
7.54
4.95
0.55
-4.68
-9.05
-11.53
-11.69
-9.83
-6.83
-3.08
0.61
4.27
7.51
10.12
11.64
11.53
9.89
6.90
3.68
0.90
-0.82
-1.65
-1.90
-1.68
-1.42
-1.19
-1.58
-2.55
-4.13
-5.85
-7.28
-8.21
-8.32
-7.69
-5.91
-3.40
-0.47
2.21
4.29
5.92
7.30
8.97
10.36
10.85
9.37
5.75
0.81
-3.95
-6.76
-7.24
-5.87
-4.25
-3.17
-2.47
-1.09
2.03
6.47
10.86
13.08
12.45
9.45
5.77
2.92
1.43
1.24
1.63
2.56
3.81
5.51
7.37
9.05
10.22
10.15
8.67
5.17
-0.46
-8.17
-17.03
-25.08
-30.14
-30.27
-25.80
-18.54
-11.66
-7.26
-5.83
-6.44
-7.50
-8.31
-8.50
-8.54
-8.17
-7.13
-4.86
-1.11
3.79
9.48
14.90
19.45
22.33
23.38
22.55
20.11
16.88
13.21
9.76
6.18
2.04
-3.30
-9.73
-16.12
-21.00
-22.53
-20.35
-14.97
-8.23
-1.83
3.05
6.03
7.57
7.72
6.74
4.18
0.45
-3.72
-6.80
-7.33
-4.71
0.80
7.43
13.36
16.72
17.00
14.71
11.18
8.05
5.68
3.91
1.57
-1.94
-6.61
-11.54
-15.40
-17.58
-17.66
-16.11
-13.23
-9.52
-5.10
-0.23
4.40
8.02
9.46
8.42
5.07
0.67
-3.65
-7.00
-9.02
-9.78
-8.91
-6.38
-2.14
2.93
7.74
11.21
12.81
13.16
12.77
12.20
11.00
8.41
3.75
-2.69
-9.37
-14.52
-16.39
-14.76
-10.37
-4.88
0.25
4.12
6.46
7.73
7.93
7.23
5.23
1.97
-2.26
-6.71
-10.29
-12.37
-12.28
-10.49
-7.54
-4.38
-1.19
2.31
6.31
10.90
14.88
17.30
17.26
15.05
11.38
7.02
2.70
-1.43
-4.65
-6.66
-6.99
-5.79
-3.48
-0.69
1.54
2.59
1.76
-0.40
-3.07
-4.91
-5.11
-3.66
-1.08
1.58
4.03
5.84
7.45
9.15
11.39
14.18
16.62
17.71
16.00
11.49
5.05
-1.33
-5.98
-8.54
-9.61
-10.73
-12.57
-15.12
-17.23
-17.80
-16.37
-13.33
-10.10
-7.75
-7.09
-7.42
-7.85
-7.29
-5.43
-2.47
1.30
5.36
9.74
13.70
16.69
17.86
16.82
13.77
9.02
3.41
-2.66
-8.26
-12.69
-15.09
-14.85
-12.21
-7.67
-2.46
2.48
6.30
8.94
10.56
11.30
11.31
10.06
7.34
2.99
-2.05
-6.76
-9.94
-10.93
-9.71
-6.50
-2.06
3.26
8.35
12.34
14.31
13.83
11.36
7.62
3.92
0.80
-1.38
-3.16
-5.09
-7.30
-9.83
-11.92
-13.26
-13.60
-13.32
-12.63
-11.49
-9.61
-6.69
-3.43
-0.66
0.42
-0.24
-2.24
-4.61
-6.47
-7.27
-6.26
-3.35
1.56
7.33
12.74
16.60
18.27
18.01
16.01
12.93
8.82
3.92
-1.92
-8.61
-15.41
-21.24
-24.34
-23.83
-19.58
-12.78
-4.75
3.36
10.82
17.34
21.97
23.97
22.55
18.18
12.05
6.09
1.94
0.15
0.49
1.39
1.64
0.18
-2.65
-5.86
-8.42
-9.63
-9.97
-9.83
-9.85
-9.95
-10.00
-9.75
-8.90
-7.40
-4.96
-1.91
1.50
4.63
7.20
8.93
9.44
8.72
6.76
4.49
2.38
1.00
0.28
0.28
1.27
3.02
5.13
6.02
4.67
0.65
-4.93
-10.25
-13.88
-15.18
-15.01
-14.11
-13.32
-12.48
-11.12
-8.77
-5.36
-1.56
2.05
4.98
7.81
11.06
15.01
18.96
21.46
21.46
18.53
14.09
9.59
6.62
5.58
5.95
6.94
7.49
7.60
7.24
6.89
6.22
4.56
1.37
-3.07
-6.97
-8.71
-7.25
-3.67
0.15
2.33
2.27
0.90
-0.57
-1.10
-1.11
-1.19
-2.32
-4.46
-6.70
-7.76
-6.37
-2.72
2.48
7.43
10.91
12.18
11.31
9.12
5.95
2.36
-1.90
-6.81
-12.31
-17.70
-21.70
-23.23
-21.59
-17.72
-13.22
-10.12
-9.07
-9.33
-9.26
-7.39
-3.74
1.00
5.07
7.58
8.44
8.85
10.37
13.57
18.05
21.79
23.24
21.50
17.25
11.81
6.21
1.18
-3.32
-7.02
-9.95
-11.99
-13.33
-14.06
-13.99
-13.35
-12.31
-11.78
-12.12
-13.60
-15.58
-17.07
-17.12
-15.05
-11.43
-6.84
-2.58
0.82
3.38
5.76
8.75
12.27
15.94
18.35
18.76
16.66
12.54
7.56
2.89
-0.13
-1.26
-0.72
0.40
1.41
1.76
1.34
0.26
-1.72
-4.25
-7.04
-8.71
-8.43
-5.88
-1.89
2.13
5.33
7.16
8.35
9.37
10.92
12.92
14.88
16.18
15.81
13.61
9.50
4.33
-1.10
-5.69
-8.55
-9.38
-7.80
-4.04
1.59
7.84
13.23
15.94
14.81
9.99
2.51
-5.57
-12.93
-18.53
-22.56
-25.35
-27.08
-27.49
-25.58
-21.12
-14.29
-6.53
0.77
6.46
10.03
11.61
11.09
9.00
5.79
2.45
-0.28
-1.86
-1.89
-0.29
3.04
7.29
11.30
13.43
12.80
9.44
4.25
-1.30
-6.07
-8.78
-9.00
-6.56
-2.14
3.25
8.57
12.85
15.87
17.20
16.92
14.88
11.11
5.90
-0.28
-6.34
-11.30
-13.92
-14.09
-12.33
-9.70
-7.04
-4.44
-1.74
1.30
3.82
5.14
4.60
2.48
-0.37
-2.97
-4.30
-4.07
-2.03
0.96
3.85
5.34
4.76
2.43
-0.96
-4.20
-6.81
-8.37
-9.14
-9.25
-8.81
-7.84
-5.86
-2.78
1.38
5.74
9.39
11.48
11.79
10.63
8.19
4.85
0.52
-4.18
-8.68
-12.00
-13.32
-12.09
-8.00
-1.88
5.14
11.09
14.74
15.67
14.49
12.31
9.53
6.54
3.13
-0.36
-3.76
-6.69
-8.95
-10.70
-11.98
-13.23
-14.30
-15.07
-14.73
-12.90
-9.82
-6.39
-3.90
-2.51
-1.86
-0.51
2.31
6.70
11.67
15.48
16.86
15.05
10.96
5.91
1.53
-1.41
-2.96
-3.21
-2.54
-0.73
1.78
4.24
5.35
4.40
1.72
-1.69
-4.57
-6.65
-7.87
-8.92
-9.87
-10.41
-9.77
-7.18
-2.78
2.82
7.75
10.82
11.32
9.81
7.56
5.62
4.74
4.47
4.52
4.14
3.07
1.33
-0.89
-2.81
-3.97
-3.62
-1.99
0.54
2.95
4.36
4.51
3.66
2.72
1.82
0.87
-1.05
-4.18
-7.99
-11.26
-13.03
-13.63
-13.62
-13.81
-13.63
-11.88
-7.47
-0.57
6.93
12.89
15.24
13.98
10.08
5.33
1.07
-2.37
-5.05
-7.56
-9.64
-11.13
-11.28
-9.60
-5.85
-0.26
5.88
11.01
13.35
12.65
9.61
6.02
3.32
2.17
2.57
3.71
5.26
6.43
7.02
6.91
6.68
7.15
8.54
10.50
11.30
9.74
5.35
-0.69
-6.37
-10.16
-11.40
-11.00
-9.98
-9.28
-8.73
-7.89
-6.35
-4.22
-2.52
-2.09
-3.67
-6.69
-10.37
-13.55
-15.38
-15.30
-12.85
-8.37
-2.47
3.14
7.13
8.64
8.02
6.43
4.65
3.28
1.79
-0.17
-2.92
-5.92
-7.92
-7.75
-4.53
0.94
7.07
11.78
14.25
14.75
14.46
14.53
15.11
15.99
16.07
14.93
12.32
8.95
5.82
3.85
3.43
3.62
3.44
1.80
-1.22
-4.96
-8.56
-11.06
-12.12
-11.48
-9.63
-6.99
-4.52
-2.89
-2.49
-3.69
-6.26
-9.80
-12.82
-13.94
-11.84
-6.58
0.61
7.78
13.00
15.95
16.83
16.73
16.07
14.75
12.24
8.07
2.86
-2.61
-6.99
-9.93
-11.61
-12.60
-13.33
-13.29
-11.79
-8.02
-2.57
3.38
8.07
10.33
10.13
8.18
5.67
2.99
0.52
-2.03
-4.48
-6.50
-7.37
-6.43
-3.94
-0.55
2.03
2.87
1.64
-0.96
-3.98
-7.12
-10.28
-13.77
-17.06
-19.57
-20.51
-19.71
-17.68
-15.03
-12.66
-10.69
-9.10
-7.11
-4.34
-0.84
2.63
5.09
6.56
7.64
9.88
13.79
19.10
24.39
28.19
30.00
29.75
28.17
25.16
20.70
14.51
7.14
-0.03
-5.59
-8.26
-8.31
-6.76
-5.36
-5.09
-6.08
-7.67
-8.74
-9.05
-8.60
-8.08
-7.71
-7.66
-7.73
-7.88
-8.18
-8.25
-7.82
-5.90
-2.09
3.86
11.24
18.50
23.80
24.90
20.85
11.61
-1.00
-14.24
-24.84
-29.71
-27.27
-17.60
-3.49
11.03
21.51
25.62
23.60
17.81
11.35
5.98
2.26
-0.88
-4.21
-7.89
-10.84
-11.68
-10.02
-6.57
-3.73
-3.25
-5.77
-9.86
-13.21
-14.08
-11.89
-8.02
-3.87
-0.84
1.00
2.31
4.12
7.13
10.94
14.65
16.55
15.84
12.42
7.43
2.61
-0.68
-1.92
-1.89
-1.44
-1.49
-1.87
-2.09
-1.48
0.16
2.27
4.37
5.48
5.50
4.36
2.31
-0.50
-4.19
-8.59
-13.55
-17.85
-20.42
-19.97
-16.03
-9.16
-0.66
7.25
12.73
14.25
12.06
7.34
2.05
-2.35
-5.32
-6.88
-7.49
-6.87
-5.06
-1.96
1.83
5.42
7.97
8.65
7.53
4.77
1.42
-1.82
-4.42
-6.24
-7.40
-7.45
-6.14
-3.01
1.26
5.50
8.34
9.08
8.39
7.50
7.73
8.96
10.23
9.72
6.48
0.84
-5.74
-11.32
-15.10
-16.68
-16.93
-16.31
-15.08
-13.12
-10.09
-6.53
-3.04
-0.77
-0.06
-1.18
-3.81
-7.53
-11.95
-16.19
-19.70
-21.82
-22.89
-23.34
-23.90
-25.11
-27.22
-30.58
-35.18
-41.21
-48.16
-55.70
-63.11
-69.67
-74.86
-78.41
-81.37
-84.93
-90.64
-98.78
-108.47
-118.07
-125.93
-131.83
-136.38
-141.16
-147.26
-154.87
-162.83
-169.18
-171.98
-169.57
-160.97
-145.48
-123.12
-94.29
-60.03
-21.46
20.90
66.53
115.73
168.51
224.12
280.10
332.80
377.86
411.27
430.62
435.07
425.78
404.79
374.58
337.63
296.44
253.62
211.44
172.03
136.72
105.97
79.47
56.43
35.93
17.38
0.58
-14.28
-26.84
-36.93
-44.63
-50.36
-54.72
-58.32
-61.52
-64.44
-66.93
-68.73
-69.65
-69.64
-68.88
-67.62
-66.15
-64.66
-63.21
-61.75
-60.13
-58.29
-56.17
-53.85
-51.40
-48.95
-46.55
-44.24
-42.02
-39.84
-37.68
-35.52
-33.40
-31.34
-29.34
-27.44
-25.64
-23.97
-22.42
-21.00
-19.50
-18.06
-16.72
-15.50
-14.37
-13.34
-12.40
-11.53
-10.73
-9.99
-9.35
-8.76
-8.23
-7.73
-7.27
-6.84
-6.44
-6.06
-5.71
-5.40
-5.12
-4.87
-4.63
-4.41
-4.20
-4.00
-3.81
-3.63
-3.47
-3.34
-3.21
-3.09
-2.97
-2.87
-2.76
-2.66
-2.56
-2.48
-2.40
-2.34
-2.27
-2.20
-2.14
-2.08
-2.02
-1.96
-1.92
-1.87
-1.83
-1.78
-1.72
-1.66
-1.61
-1.58
-1.61
-1.66
-1.73
-1.77
-1.77
-1.70
-1.60
-1.50
-1.46
-1.50
-1.61
-1.74
-1.80
-1.76
-1.61
-1.39
-1.20
-1.09
-1.16
-1.37
-1.62
-1.79
-1.76
-1.50
-1.11
-0.79
-0.74
-1.07
-1.73
-2.52
-3.05
-3.08
-2.54
-1.65
-0.89
-0.73
-1.42
-2.84
-4.47
-5.58
-5.66
-4.55
-2.73
-1.10
-0.55
-1.53
-3.81
-6.47
-8.30
-8.42
-6.68
-3.72
-0.83
0.82
0.64
-1.33
-4.48
-8.02
-10.99
-12.07
-9.64
-2.34
9.97
25.49
40.54
50.99
54.28
51.00
44.69
40.27
40.75
46.19
53.42
57.97
56.50
48.48
36.02
22.23
10.17
0.71
-6.88
-14.10
-21.84
-29.75
-36.45
-40.31
-40.26
-36.56
-30.75
-25.00
-21.41
-21.09
-23.80
-27.96
-31.36
-32.11
-29.20
-23.34
-16.53
-11.32
-9.48
-11.53
-16.20
-21.08
-23.47
-21.46
-14.22
-2.08
13.65
30.44
44.60
51.52
46.84
28.76
0.07
-31.83
-57.03
-67.12
-59.00
-36.27
-7.55
17.83
33.05
37.09
33.33
26.47
19.80
14.04
8.25
1.63
-5.29
-10.75
-12.63
-10.26
-4.81
1.15
5.01
5.20
1.97
-2.91
-7.10
-8.69
-7.16
-3.45
0.69
3.46
3.88
2.11
-0.78
-3.35
-4.48
-3.81
-1.84
0.46
2.11
2.57
1.88
0.58
-0.64
-1.22
-1.00
-0.17
0.84
1.65
2.00
1.90
1.53
1.13
0.89
0.86
1.01
1.26
1.50
1.67
1.79
1.87
1.93
1.98
2.05
2.10
2.17
2.23
2.30
2.36
2.41
2.46
2.50
2.52
2.52
2.50
2.46
2.38
2.28
2.14
1.99
1.82
1.63
1.42
1.20
0.94
0.68
0.43
0.24
0.12
0.10
0.12
0.11
0.01
-0.25
-0.66
-1.19
-1.76
-2.32
-2.84
-3.39
-4.06
-4.93
-6.09
-7.52
-9.17
-10.87
-12.54
-14.13
-15.74
-17.61
-19.92
-22.85
-26.35
-30.17
-33.97
-37.41
-40.41
-43.22
-46.35
-50.34
-55.53
-61.86
-68.75
-75.40
-81.13
-85.70
-89.54
-93.55
-98.62
-105.16
-112.64
-119.64
-124.13
-124.18
-118.69
-107.67
-92.24
-73.34
-51.67
-27.27
0.35
31.67
66.71
104.93
145.39
185.91
223.87
255.18
274.36
275.95
257.07
219.53
170.19
118.93
75.38
44.67
26.91
18.51
14.88
12.81
11.37
10.91
11.72
12.99
13.22
11.24
7.06
1.96
-2.18
-3.79
-2.54
0.56
3.78
5.52
5.14
3.15
0.91
-0.05
1.11
4.20
8.05
11.24
12.80
12.75
12.03
11.97
13.60
17.04
21.42
25.28
27.39
27.39
25.86
23.93
22.47
21.63
20.44
17.33
10.77
-0.21
-15.86
-36.00
-59.99
-86.26
-111.88
-132.60
-143.19
-140.99
-126.61
-104.21
-80.12
-60.37
-48.39
-44.42
-46.24
-50.87
-56.04
-60.43
-63.16
-63.01
-57.93
-45.66
-24.94
2.81
33.03
58.78
73.13
72.37
57.88
35.58
14.60
2.41
1.64
9.66
20.65
29.11
32.52
31.97
30.31
30.09
31.95
34.51
35.66
33.86
29.02
22.37
16.07
11.99
11.18
13.37
17.07
20.25
21.13
18.81
13.76
7.53
2.29
-0.20
0.86
4.85
10.04
14.36
15.90
13.50
6.57
-4.38
-17.46
-29.29
-35.35
-31.39
-15.07
12.17
44.61
73.29
89.14
86.30
64.57
29.53
-9.58
-43.34
-65.32
-73.22
-69.08
-57.04
-41.33
-24.94
-9.73
3.03
12.33
17.26
17.94
15.54
12.46
10.99
12.46
16.73
21.98
25.38
24.12
16.73
4.11
-9.78
-19.28
-19.22
-7.48
13.43
37.08
55.69
63.53
58.86
45.03
27.65
11.75
-0.15
-8.28
-14.21
-19.28
-23.50
-26.03
-26.04
-23.68
-20.04
-16.63
-14.75
-14.74
-15.99
-17.31
-17.62
-16.30
-13.62
-10.51
-8.01
-6.82
-7.01
-8.02
-9.02
-9.25
-8.38
-6.63
-4.57
-2.86
-1.92
-1.80
-2.22
-2.71
-2.88
-2.51
-1.67
-0.63
0.33
0.95
1.16
1.03
0.71
0.43
0.32
0.43
0.72
1.07
1.37
1.49
1.40
1.12
0.75
0.44
0.32
0.43
0.67
0.85
0.74
0.18
-0.82
-2.01
-3.02
-3.55
-3.46
-2.99
-2.62
-2.94
-4.34
-6.77
-9.70
-12.32
-13.91
-14.22
-13.64
-13.13
-13.80
-16.44
-20.96
-26.44
-31.49
-34.85
-36.09
-35.81
-35.53
-36.80
-40.78
-47.45
-55.69
-63.84
-70.14
-72.91
-70.78
-63.02
-50.18
-34.84
-21.59
-15.33
-19.36
-33.27
-52.26
-68.74
-75.49
-68.39
-48.64
-21.37
7.23
32.57
52.88
68.49
80.39
88.68
92.67
91.75
86.36
78.24
69.71
62.92
58.89
57.22
56.51
55.10
51.80
46.48
40.04
33.83
29.07
26.30
25.20
24.81
24.08
22.25
19.24
15.56
11.98
9.19
7.52
6.79
6.53
6.20
5.40
4.08
2.46
0.89
-0.35
-1.11
-1.44
-1.54
-1.60
-1.77
-2.09
-2.50
-2.92
-3.26
-3.49
-3.61
-3.65
-3.63
-3.58
-3.52
-3.43
-3.33
-3.23
-3.13
-3.02
-2.93
-2.84
-2.74
-2.66
-2.58
-2.50
-2.43
-2.36
-2.29
-2.23
-2.16
-2.10
-2.04
-1.99
-1.93
-1.88
-1.82
-1.78
-1.73
-1.68
-1.64
-1.60
-1.55
-1.52
-1.48
-1.44
-1.40
-1.37
-1.34
-1.30
-1.27
-1.24
-1.21
-1.18
-1.15
-1.13
-1.10
-1.08
-1.05
-1.03
-1.01
-0.98
-0.96
-0.94
-0.92
-0.90
-0.88
-0.86
-0.84
-0.83
-0.80
-0.79
-0.77
-0.76
-0.74
-0.72
-0.72
-0.71
-0.69
-0.67
-0.65
-0.61
-0.60
-0.60
-0.63
-0.69
-0.77
-0.85
-0.90
-0.92
-0.90
-0.87
-0.86
-0.89
-0.96
-1.04
-1.10
-1.14
-1.13
-1.09
-1.09
-1.18
-1.36
-1.64
-1.93
-2.15
-2.22
-2.16
-2.02
-1.90
-1.97
-2.28
-2.81
-3.43
-3.96
-4.20
-4.12
-3.87
-3.67
-3.86
-4.55
-5.73
-7.06
-8.17
-8.74
-8.70
-8.33
-8.11
-8.56
-9.88
-11.91
-14.13
-15.84
-16.64
-16.55
-16.03
-15.74
-16.24
-17.65
-19.84
-22.51
-25.39
-28.21
-30.27
-30.51
-27.57
-20.68
-9.99
2.92
15.68
26.02
32.63
35.59
36.05
35.29
33.97
31.86
28.40
23.79
19.53
18.18
22.25
32.70
48.05
64.75
78.57
86.43
87.56
83.58
76.74
69.02
61.14
52.59
42.53
30.71
17.86
5.17
-5.76
-14.30
-20.59
-25.28
-29.17
-32.65
-35.65
-37.75
-38.48
-37.64
-35.51
-32.70
-29.91
-27.72
-26.31
-25.51
-24.91
-24.06
-22.69
-20.87
-18.86
-16.98
-15.47
-14.40
-13.63
-12.93
-12.13
-11.10
-9.92
-8.71
-7.61
-6.73
-6.05
-5.54
-5.07
-4.60
-4.08
-3.53
-3.00
-2.50
-2.07
-1.70
-1.39
-1.12
-0.88
-0.66
-0.48
-0.32
-0.19
-0.09
-0.02
0.05
0.09
0.12
0.14
0.15
0.16
0.15
0.16
0.16
0.16
0.16
0.17
0.17
0.17
0.17
0.18
0.18
0.19
0.19
0.19
0.19
0.20
0.20
0.21
0.21
0.21
0.22
0.22
0.23
0.24
0.24
0.24
0.25
0.26
0.26
0.27
0.27
0.28
0.28
0.29
0.30
0.30
0.31
0.32
0.33
0.33
0.34
0.35
0.36
0.37
0.37
0.38
0.39
0.40
0.41
0.42
0.43
0.44
0.45
0.45
0.46
0.45
0.44
0.42
0.39
0.35
0.30
0.24
0.17
0.09
-0.01
-0.15
-0.32
-0.49
-0.64
-0.70
-0.67
-0.57
-0.49
-0.49
-0.66
-1.00
-1.43
-1.87
-2.20
-2.40
-2.47
-2.52
-2.64
-2.91
-3.34
-3.89
-4.48
-4.99
-5.38
-5.72
-6.11
-6.76
-7.81
-9.29
-11.02
-12.67
-13.90
-14.56
-14.83
-15.13
-16.06
-18.04
-21.09
-24.77
-28.26
-30.76
-31.95
-32.14
-32.17
-33.13
-35.77
-40.10
-45.35
-50.18
-53.15
-53.64
-51.86
-48.70
-45.24
-42.00
-38.81
-34.78
-28.86
-20.12
-8.35
6.64
25.34
48.01
73.16
96.42
110.82
108.77
88.46
55.32
21.43
0.46
1.06
22.97
57.79
93.89
122.19
139.34
144.94
138.86
119.48
85.60
39.08
-12.01
-55.11
-78.74
-78.18
-58.13
-30.25
-7.31
2.49
-1.55
-14.10
-28.21
-38.95
-44.65
-46.15
-45.03
-41.98
-36.84
-29.12
-19.05
-7.97
2.21
9.62
13.18
12.80
9.32
4.01
-2.32
-8.56
-14.19
-19.17
-23.48
-27.06
-29.72
-30.94
-30.52
-28.29
-24.05
-17.84
-9.87
-0.46
9.75
19.73
28.53
35.46
40.42
44.02
47.26
51.05
56.07
62.58
70.38
78.97
87.31
93.51
94.63
87.21
68.89
40.27
5.92
-26.60
-49.05
-55.70
-45.49
-22.15
7.82
37.49
61.70
78.45
86.40
84.40
71.88
50.11
22.98
-3.41
-22.44
-29.67
-24.86
-12.19
1.62
9.62
7.17
-6.57
-28.27
-51.34
-68.60
-75.15
-70.88
-60.55
-51.47
-49.74
-57.48
-72.03
-86.94
-96.45
-98.45
-95.26
-91.40
-90.26
-91.69
-92.83
-91.08
-86.52
-83.56
-86.02
-94.95
-107.82
-119.28
-123.86
-118.60
-103.92
-82.49
-56.80
-30.21
-5.40
15.78
32.32
43.79
50.40
53.18
53.88
53.92
53.93
54.74
56.15
58.45
62.70
69.80
80.38
95.10
113.86
135.81
159.20
180.93
197.34
205.39
203.92
192.84
175.50
156.52
139.53
125.91
114.72
104.12
92.76
79.97
65.47
49.05
30.19
8.89
-13.63
-35.20
-53.38
-66.59
-74.63
-78.21
-78.20
-75.94
-73.20
-72.26
-75.36
-83.18
-93.07
-100.33
-100.32
-91.30
-76.24
-61.12
-51.13
-47.73
-47.92
-46.83
-41.09
-30.62
-18.06
-6.91
0.78
5.40
8.68
12.75
18.54
25.19
29.91
30.38
25.16
14.55
0.45
-14.93
-29.51
-42.28
-53.83
-65.94
-80.55
-99.22
-122.71
-147.86
-173.44
-197.80
-217.80
-228.51
-224.52
-202.25
-162.46
-110.77
-56.29
-8.81
25.33
44.74
52.21
52.29
49.09
44.98
41.15
38.06
35.88
35.19
36.44
39.86
44.95
51.17
58.12
66.21
75.73
86.29
97.27
107.76
116.88
124.05
129.27
133.16
137.58
144.68
156.19
172.50
191.48
208.09
215.41
207.09
177.40
128.74
69.82
12.07
-34.83
-66.28
-83.12
-89.60
-90.20
-87.70
-82.45
-74.45
-64.45
-54.31
-46.08
-40.94
-38.63
-37.58
-35.77
-31.39
-24.15
-15.14
-6.18
1.08
5.87
8.50
10.24
12.57
16.70
22.77
29.91
36.70
41.79
44.36
44.02
41.40
37.31
32.45
26.91
20.31
12.04
1.64
-9.98
-22.27
-34.12
-44.32
-51.91
-56.70
-59.24
-60.56
-61.73
-63.40
-65.73
-68.08
-69.64
-69.76
-68.54
-66.80
-65.82
-66.74
-69.98
-75.16
-80.96
-85.94
-89.04
-90.23
-90.43
-91.00
-93.20
-97.90
-105.60
-116.23
-129.27
-142.02
-150.43
-149.93
-137.00
-111.06
-75.23
-35.59
1.13
30.05
49.54
61.08
67.35
70.76
72.66
73.75
74.80
77.03
81.73
89.25
98.31
106.37
111.07
111.24
107.66
102.70
99.13
99.01
102.87
109.62
116.97
121.97
121.60
113.41
96.62
72.91
46.47
22.88
6.62
-1.14
-3.24
-5.21
-12.48
-27.23
-46.96
-65.59
-76.19
-74.88
-62.85
-45.50
-29.51
-19.45
-16.11
-16.91
-18.03
-16.97
-13.95
-11.43
-12.31
-17.74
-26.27
-34.51
-38.93
-37.66
-31.49
-23.32
-16.78
-14.69
-18.35
-27.20
-39.12
-50.35
-55.94
-51.02
-32.60
-1.60
36.76
74.45
104.16
121.12
125.16
119.97
110.78
102.11
96.19
93.38
93.03
93.89
93.83
89.96
79.24
59.20
31.74
1.49
-25.69
-44.92
-54.25
-54.99
-50.29
-43.22
-35.66
-28.14
-21.05
-15.06
-11.13
-9.79
-10.65
-12.25
-12.70
-10.62
-5.65
1.10
7.78
12.71
15.08
15.30
14.70
14.97
17.29
21.73
27.15
31.76
33.86
32.58
28.11
21.51
14.19
7.14
0.49
-6.61
-15.33
-26.52
-40.02
-54.05
-66.88
-76.82
-82.91
-85.33
-85.39
-84.70
-84.82
-86.92
-92.10
-100.15
-109.65
-117.48
-119.28
-110.88
-90.40
-59.81
-24.60
8.02
32.10
45.25
48.94
47.03
43.35
39.99
37.04
33.62
29.34
24.85
21.42
20.00
20.47
21.66
22.05
20.38
16.47
11.12
5.69
1.45
-1.03
-2.01
-2.43
-3.39
-5.69
-9.43
-14.15
-19.06
-23.34
-26.65
-29.13
-31.29
-33.72
-36.83
-40.71
-45.13
-49.76
-54.06
-57.71
-60.52
-62.33
-62.96
-62.12
-59.45
-54.69
-47.66
-38.00
-25.75
-11.09
5.68
24.12
43.61
63.20
81.78
97.35
109.36
117.64
122.57
125.07
126.09
126.37
125.90
124.96
121.95
115.90
106.37
93.79
79.45
64.85
51.31
39.15
27.89
16.11
4.00
-7.48
-17.32
-23.95
-25.91
-22.04
-12.01
3.79
23.78
45.07
62.90
71.62
66.81
46.54
14.72
-21.03
-52.19
-72.70
-80.80
-79.08
-72.19
-64.16
-56.84
-50.03
-43.09
-36.06
-29.95
-26.05
-24.93
-26.02
-27.70
-28.16
-26.16
-21.87
-16.48
-11.65
-8.63
-7.83
-8.72
-10.10
-10.67
-9.61
-6.95
-3.43
-0.08
2.26
3.28
3.22
2.75
2.61
3.31
4.90
7.05
9.26
11.09
12.30
12.93
13.25
13.62
14.39
15.70
17.54
19.67
21.78
23.56
24.79
25.40
25.51
25.41
25.28
25.16
24.75
23.50
20.72
15.90
8.95
0.35
-8.91
-17.64
-24.82
-30.05
-33.60
-36.27
-38.93
-42.12
-45.67
-48.80
-50.50
-49.96
-47.18
-42.96
-38.70
-36.06
-36.49
-40.69
-48.13
-56.59
-62.30
-61.12
-50.17
-29.33
-2.05
25.44
46.32
55.77
52.50
38.86
19.43
-0.48
-16.21
-24.60
-24.43
-16.57
-3.76
10.11
21.22
26.88
26.74
22.31
16.20
10.42
5.69
1.86
-1.47
-3.75
-4.83
-5.46
-7.48
-12.93
-23.09
-37.35
-53.32
-67.35
-76.16
-78.42
-74.99
-68.53
-62.55
-60.55
-64.67
-74.46
-86.16
-93.66
-90.53
-72.34
-38.55
7.24
58.39
107.81
149.23
180.56
204.13
224.43
245.21
267.31
287.98
301.24
301.98
288.56
263.67
232.23
199.35
169.10
144.10
125.65
111.62
99.09
85.28
68.36
47.00
20.33
-11.53
-47.31
-85.11
-125.62
-168.73
-212.47
-252.49
-284.19
-304.53
-313.25
-311.93
-286.36
-231.05
-152.35
-66.07
13.99
81.34
135.30
177.24
208.96
232.34
246.28
251.42
249.48
243.94
238.12
233.73
229.95
225.21
218.20
205.58
188.95
169.82
150.61
133.40
119.07
105.09
89.70
73.46
57.51
43.41
31.48
21.48
12.38
2.60
-14.13
-40.75
-74.76
-110.22
-141.45
-166.39
-185.88
-202.55
-219.48
-246.50
-287.83
-339.20
-390.50
-432.75
-462.93
-483.06
-497.60
-511.30
-538.16
-586.12
-653.40
-730.21
-805.71
-871.56
-920.58
-945.78
-880.61
-704.42
-456.33
-210.76
-22.10
98.49
170.18
220.99
272.43
331.54
378.62
401.20
397.25
376.81
353.49
336.90
330.59
335.03
349.04
364.00
375.65
385.50
397.87
413.47
427.29
425.30
399.95
356.03
302.99
252.86
213.19
185.37
165.77
149.06
132.22
116.73
106.20
98.89
92.09
83.00
69.68
50.86
25.45
-6.87
-45.00
-87.96
-136.66
-187.62
-228.83
-247.42
-236.95
-202.72
-157.94
-115.45
-82.62
-60.51
-45.61
-34.18
-25.60
-21.71
-25.01
-35.48
-49.30
-60.92
-65.51
-60.18
-44.96
-23.89
-1.49
16.96
26.99
26.22
14.70
-4.79
-26.86
-46.00
-57.47
-60.28
-58.30
-58.40
-65.45
-81.36
-104.39
-129.45
-149.91
-160.04
-156.38
-139.49
-113.33
-83.54
-55.72
-33.16
-16.02
-2.05
7.77
13.51
15.15
12.94
8.12
3.03
0.60
3.61
14.04
33.26
62.68
102.53
150.98
203.07
250.61
283.82
294.07
276.41
231.07
163.74
83.54
1.04
-73.82
-133.54
-174.27
-196.33
-203.74
-202.52
-198.08
-193.79
-190.34
-186.81
-182.17
-176.34
-169.52
-161.52
-150.51
-133.40
-107.19
-70.44
-23.95
30.02
88.49
148.47
206.49
258.12
298.73
325.40
339.17
345.81
353.84
370.24
396.34
426.61
451.22
461.57
454.69
434.25
407.87
382.71
362.04
344.86
328.23
309.75
289.92
270.71
253.36
236.45
216.54
189.73
153.84
109.38
59.02
7.40
-41.24
-85.18
-125.43
-165.18
-208.22
-257.37
-312.85
-371.55
-425.33
-463.50
-477.03
-461.80
-420.49
-361.90
-298.13
-237.15
-189.88
-162.73
-153.70
-155.42
-160.73
-166.05
-170.30
-173.16
-173.61
-171.71
-165.61
-153.97
-137.46
-118.01
-97.76
-77.98
-59.13
-41.01
-23.31
-7.04
6.51
11.41
2.67
-21.58
-58.52
-102.72
-148.56
-192.04
-230.32
-261.71
-286.07
-304.59
-317.95
-325.05
-324.95
-317.44
-303.13
-282.54
-255.70
-222.35
-180.96
-132.58
-76.49
-13.49
53.69
120.79
183.43
238.42
284.00
320.05
347.40
371.25
395.62
422.00
449.34
475.43
498.39
517.19
531.41
540.75
549.66
560.89
574.16
586.52
594.29
595.15
588.64
575.56
528.18
434.63
300.43
146.06
-5.05
-137.35
-245.35
-330.24
-396.04
-447.19
-482.79
-502.37
-507.85
-503.58
-494.79
-485.37
-477.12
-470.50
-465.34
-457.84
-445.22
-427.27
-406.23
-385.10
-366.03
-349.63
-335.22
-321.12
-305.81
-287.67
-266.50
-243.58
-220.75
-199.38
-180.12
-163.03
-147.96
-133.72
-119.15
-104.04
-88.99
-74.96
-62.73
-52.73
-45.09
-39.85
-36.63
-34.90
-34.39
-35.16
-37.32
-40.88
-45.67
-51.48
-58.09
-65.37
-73.00
-80.72
-88.28
-95.40
-101.85
-107.45
-112.08
-115.81
-118.81
-121.19
-123.05
-124.31
-124.77
-124.11
-121.99
-118.16
-112.51
-105.03
-95.70
-84.34
-70.50
-53.43
-32.28
-6.40
24.35
59.30
97.02
135.45
172.45
206.28
235.95
261.14
282.19
299.22
311.67
318.36
318.00
310.05
295.37
276.33
256.24
238.58
225.62
217.76
213.90
212.51
212.98
216.46
225.70
243.94
274.23
317.66
372.97
437.11
505.75
573.79
635.49
684.38
714.39
723.45
712.10
683.04
639.94
586.09
523.65
453.99
378.91
302.63
237.29
195.77
186.13
206.97
246.99
289.35
318.16
324.16
307.58
284.14
271.40
280.61
312.14
357.47
405.50
448.00
481.71
507.89
539.77
588.44
657.30
739.54
821.24
887.83
929.16
941.72
868.91
684.52
399.14
61.04
-268.83
-547.14
-757.87
-904.27
-997.05
-1047.87
-1058.77
-1034.04
-985.67
-928.90
-876.93
-835.29
-801.64
-769.08
-732.82
-687.10
-634.33
-584.03
-548.32
-536.93
-551.35
-584.72
-623.68
-653.48
-657.66
-626.30
-558.30
-461.14
-348.30
-231.23
-126.14
-46.59
1.87
24.74
31.78
31.55
29.07
26.28
24.08
22.42
21.69
21.92
22.95
23.93
23.72
22.01
19.32
16.83
15.15
14.97
17.17
21.20
25.95
30.44
34.83
40.34
48.90
61.96
80.19
102.33
124.45
140.63
145.00
135.03
113.23
86.56
63.59
51.31
52.65
65.85
85.45
103.41
112.45
107.30
85.24
46.21
-7.29
-70.14
-132.70
-183.81
-215.13
-224.25
-214.74
-193.14
-165.77
-137.30
-110.44
-86.71
-67.28
-52.90
-43.39
-37.59
-33.71
-29.90
-25.16
-19.32
-12.87
-6.87
-2.37
0.15
1.01
1.15
1.60
3.03
5.57
8.89
12.27
14.95
16.43
16.80
16.55
16.38
16.78
17.99
19.98
22.48
25.11
27.56
29.76
31.74
33.65
35.44
36.99
38.04
38.11
37.02
34.72
31.32
27.08
22.36
17.49
12.77
8.36
4.31
0.52
-3.09
-6.57
-9.93
-13.12
-16.03
-18.51
-20.39
-21.55
-21.97
-21.53
-19.97
-17.01
-12.44
-6.06
2.13
11.92
22.75
33.67
43.65
51.69
56.90
58.66
56.52
50.31
40.08
27.63
13.58
-1.36
-16.14
-29.67
-40.86
-48.97
-53.79
-55.66
-55.50
-54.58
-53.98
-54.17
-54.97
-55.75
-55.78
-54.75
-52.95
-51.24
-50.72
-52.28
-55.89
-60.68
-65.28
-68.42
-69.81
-70.02
-70.39
-72.05
-75.83
-81.61
-88.92
-97.46
-106.97
-116.32
-122.67
-123.34
-114.44
-95.66
-70.50
-44.92
-24.23
-10.45
-1.44
7.05
18.07
31.50
43.67
50.32
49.42
42.35
32.98
25.08
20.29
17.55
14.66
9.70
2.65
-5.09
-11.75
-16.11
-18.37
-19.96
-22.84
-28.48
-37.59
-49.03
-60.98
-71.55
-79.36
-83.90
-85.55
-85.34
-84.53
-84.59
-85.76
-87.62
-88.83
-87.44
-81.58
-70.14
-52.94
-30.34
-7.60
12.39
28.14
39.60
47.70
53.60
58.12
61.75
64.86
67.95
72.49
79.75
90.62
105.62
124.82
148.19
175.57
206.22
238.33
269.41
295.87
314.22
321.99
318.59
305.35
284.91
260.47
234.95
210.95
190.07
172.94
159.26
147.79
136.63
123.66
107.32
87.21
64.68
42.39
23.54
10.72
4.78
4.39
6.50
7.65
5.34
-1.02
-10.38
-20.90
-30.99
-39.84
-47.21
-52.87
-56.13
-56.07
-52.00
-44.12
-33.64
-22.40
-12.25
-4.30
1.25
4.99
7.97
11.27
15.58
21.20
28.00
35.64
43.82
52.51
62.00
72.86
85.72
100.95
118.32
136.91
155.01
170.29
180.04
181.71
173.58
155.38
128.50
95.74
60.60
26.40
-4.33
-30.19
-50.60
-65.61
-75.69
-81.90
-86.11
-91.10
-100.39
-117.57
-145.82
-187.20
-241.80
-306.88
-376.24
-440.52
-489.01
-512.65
-507.07
-474.41
-422.63
-362.44
-303.48
-251.45
-207.53
-169.98
-136.52
-106.01
-78.44
-54.06
-32.29
-11.62
9.52
31.65
53.83
73.97
89.92
100.63
106.72
110.29
114.05
120.32
130.26
143.54
158.71
173.77
187.16
198.22
207.51
216.28
225.77
236.62
248.63
261.05
273.01
283.80
292.97
300.22
305.23
307.75
307.65
304.85
299.28
290.72
278.58
261.91
239.66
211.02
175.90
135.34
91.55
47.85
8.01
-24.76
-48.78
-64.35
-73.63
-79.79
-85.89
-94.08
-105.54
-120.61
-139.56
-162.87
-191.22
-225.40
-266.17
-314.31
-370.26
-433.20
-499.77
-563.43
-615.11
-645.64
-648.94
-624.39
-577.04
-515.55
-448.74
-382.71
-319.75
-259.28
-199.79
-140.42
-81.26
-22.69
35.14
92.35
148.74
203.11
253.11
295.81
328.01
347.04
350.95
338.82
311.00
269.12
215.97
155.15
90.81
27.53
-29.42
-74.43
-102.59
-111.27
-101.68
-79.15
-51.69
-27.24
-11.11
-4.83
-7.28
-16.17
-29.39
-45.21
-61.61
-75.75
-84.20
-84.17
-74.73
-57.56
-36.04
-13.57
7.53
26.35
42.76
56.68
67.88
76.27
81.75
85.00
87.25
89.74
93.00
96.75
100.22
102.82
104.56
104.46
102.15
98.38
94.97
93.99
96.66
102.93
111.92
122.65
131.18
134.62
132.58
127.42
122.80
121.52
124.45
130.71
137.90
137.35
120.91
84.40
29.51
-37.86
-110.78
-183.71
-253.00
-316.82
-381.42
-452.47
-531.25
-613.41
-691.58
-759.59
-814.59
-856.50
-843.54
-749.15
-573.20
-346.65
-112.71
96.58
268.12
402.07
504.48
582.44
635.57
662.78
668.60
660.78
648.15
637.25
630.62
627.67
626.00
617.58
595.77
557.39
505.80
446.88
385.97
326.26
269.13
214.85
160.57
105.31
50.35
-1.09
-45.28
-79.92
-105.31
-123.46
-137.94
-152.89
-168.43
-183.19
-195.44
-203.29
-206.07
-205.15
-203.14
-205.17
-215.27
-230.60
-247.82
-265.35
-281.59
-295.78
-308.90
-322.99
-344.28
-377.67
-417.93
-459.15
-496.71
-523.13
-529.80
-511.05
-465.18
-400.56
-329.09
-254.90
-185.50
-131.93
-100.18
-90.05
-98.88
-87.91
-30.17
32.21
81.55
129.78
177.32
221.98
260.78
286.64
294.54
278.88
240.06
191.91
145.00
101.66
62.12
24.75
-18.71
-75.51
-152.18
-248.11
-349.63
-442.92
-518.25
-567.30
-552.14
-457.97
-301.17
-125.08
27.87
140.15
212.92
255.55
279.19
291.89
292.57
279.60
254.12
221.95
192.47
171.25
158.52
151.84
148.16
141.33
128.06
109.22
89.26
74.07
65.72
63.87
66.32
71.11
74.62
75.12
73.37
71.78
72.99
77.63
85.24
94.88
106.71
120.37
135.85
153.64
171.07
188.02
204.56
220.14
232.28
236.93
228.74
203.84
162.80
111.22
58.22
11.52
-24.20
-51.89
-75.59
-97.72
-117.26
-130.05
-132.17
-122.51
-105.98
-91.46
-87.68
-98.25
-120.87
-149.28
-176.10
-197.00
-211.29
-221.54
-230.01
-236.96
-240.53
-238.44
-229.63
-214.22
-194.25
-172.65
-151.98
-133.75
-118.17
-104.51
-92.35
-82.23
-74.85
-71.67
-74.05
-82.42
-95.73
-110.99
-124.26
-131.49
-135.36
-136.48
-135.47
-132.73
-128.25
-121.65
-110.61
-93.33
-69.81
-42.25
-13.31
14.16
38.23
58.38
75.29
94.11
119.41
152.81
191.99
232.79
270.84
303.36
329.55
350.21
372.93
404.20
446.16
495.01
543.89
586.44
619.33
642.37
657.52
675.26
704.27
747.83
802.65
862.42
921.79
977.83
1027.92
1018.95
915.08
711.26
441.08
157.72
-93.98
-291.18
-430.43
-520.27
-573.08
-591.64
-576.92
-531.64
-465.11
-391.35
-324.72
-274.75
-245.30
-234.41
-230.47
-222.17
-203.76
-177.79
-152.26
-138.09
-140.92
-161.04
-193.78
-227.67
-252.00
-260.71
-254.84
-240.69
-226.17
-216.96
-216.61
-226.66
-245.36
-270.12
-297.21
-321.39
-335.72
-332.55
-306.11
-255.39
-184.73
-101.94
-17.18
59.19
117.58
150.55
154.51
131.43
88.81
37.71
-10.77
-49.24
-75.59
-92.15
-102.83
-110.39
-115.41
-117.16
-115.41
-111.80
-109.92
-113.70
-125.70
-145.71
-170.53
-195.28
-215.64
-229.65
-238.52
-245.76
-254.77
-266.53
-278.45
-285.28
-281.70
-265.05
-236.52
-200.50
-162.50
-127.01
-96.26
-70.53
-49.15
-31.63
-18.16
-9.01
-3.91
-1.26
1.88
8.89
22.79
45.38
77.04
117.06
163.55
213.25
261.38
302.30
330.92
344.40
343.15
330.36
310.22
286.07
259.43
230.56
200.15
170.31
144.48
125.98
116.16
113.54
114.53
114.99
111.87
103.95
91.44
75.23
56.05
34.08
9.59
-16.73
-43.18
-66.98
-84.84
-94.02
-93.76
-86.04
-75.01
-64.87
-57.94
-53.56
-48.65
-39.62
-24.55
-4.49
17.09
35.84
49.23
56.64
58.77
56.51
50.24
40.01
25.90
8.62
-10.40
-27.33
-38.83
-43.70
-43.50
-41.43
-40.29
-41.25
-43.58
-45.38
-40.85
-26.15
-1.99
25.79
49.28
62.53
63.65
54.73
40.59
33.56
44.55
78.82
133.78
201.90
275.07
347.24
414.82
476.37
540.24
614.52
702.41
799.85
898.50
990.01
1067.58
1125.51
1108.43
982.79
753.88
470.52
195.66
-27.41
-185.31
-285.86
-345.23
-378.93
-389.07
-375.89
-341.90
-296.01
-250.58
-215.48
-194.99
-188.36
-192.17
-196.43
-190.94
-172.47
-145.53
-118.41
-97.97
-87.06
-84.95
-88.90
-91.76
-87.84
-76.08
-59.96
-44.81
-34.58
-30.55
-31.90
-36.74
-41.11
-41.77
-38.35
-32.67
-27.35
-24.22
-23.81
-25.71
-29.11
-32.47
-34.46
-35.84
-37.82
-41.11
-45.52
-50.26
-54.66
-58.26
-60.94
-62.52
-66.27
-74.39
-86.62
-100.60
-113.55
-123.80
-130.84
-135.00
-136.29
-141.76
-156.06
-178.89
-205.62
-231.08
-252.51
-269.87
-285.01
-299.15
-324.74
-369.86
-433.91
-508.29
-582.42
-648.50
-702.34
-742.65
-767.44
-790.66
-822.13
-862.26
-903.15
-936.14
-957.62
-969.31
-976.71
-900.54
-706.68
-415.92
-92.96
199.91
432.79
604.73
728.54
805.14
855.12
877.62
870.77
839.12
794.07
746.87
702.49
668.82
645.72
633.29
618.07
590.60
549.83
502.37
456.60
417.85
387.93
365.20
349.40
331.76
306.30
272.39
233.94
196.17
162.78
135.67
114.46
99.37
85.66
69.53
49.61
26.73
2.92
-19.60
-38.72
-53.23
-62.01
-66.92
-70.64
-75.68
-84.43
-97.73
-114.26
-130.79
-143.82
-150.83
-151.96
-149.88
-148.73
-154.60
-170.77
-195.66
-223.19
-246.03
-259.30
-262.65
-260.08
-257.91
-267.10
-295.21
-342.91
-403.48
-465.84
-518.30
-550.42
-554.09
-525.89
-476.81
-424.12
-385.32
-371.49
-384.37
-416.28
-452.11
-474.70
-472.60
-455.57
-442.67
-451.45
-488.07
-546.66
-614.34
-677.40
-726.07
-696.30
-555.24
-315.37
-30.98
240.02
466.60
644.53
781.30
884.84
959.75
998.98
999.16
965.83
913.33
857.50
808.90
770.17
737.76
705.41
659.47
589.82
493.47
379.91
262.04
150.64
52.04
-31.10
-98.26
-154.59
-204.46
-248.99
-285.57
-311.02
-323.72
-324.67
-316.77
-303.66
-291.35
-284.74
-286.30
-295.73
-311.89
-333.26
-359.39
-390.10
-423.86
-456.82
-482.03
-491.08
-477.40
-439.58
-380.15
-306.23
-227.02
-150.65
-81.72
-21.12
32.09
78.93
119.57
157.08
194.22
232.38
270.96
308.42
343.16
373.75
398.84
417.54
433.82
451.45
471.71
492.83
511.69
525.57
532.40
530.61
494.20
410.42
285.75
142.88
4.91
-115.36
-214.96
-296.08
-362.21
-416.41
-457.87
-485.58
-499.70
-502.58
-497.22
-485.49
-467.92
-444.23
-413.68
-371.82
-317.57
-253.25
-184.10
-116.15
-54.16
-1.20
41.14
72.18
93.97
108.47
116.81
119.02
115.00
105.42
91.71
75.62
58.71
43.11
30.27
20.71
13.99
9.29
6.00
3.80
2.47
1.80
1.87
2.54
3.54
4.31
4.37
3.38
1.29
-1.83
-5.77
-10.32
-15.21
-20.14
-24.78
-28.84
-32.11
-34.38
-35.58
-35.71
-34.88
-33.23
-30.93
-28.15
-25.03
-21.70
-18.22
-14.70
-11.20
-7.81
-4.66
-1.85
0.44
2.10
3.00
3.10
2.44
1.11
-0.72
-2.84
-5.00
-7.02
-8.70
-10.01
-10.90
-11.45
-11.74
-11.94
-12.17
-12.50
-13.01
-13.65
-14.36
-14.99
-15.42
-15.50
-15.14
-14.25
-12.86
-11.07
-8.94
-6.64
-4.28
-1.96
0.27
2.45
4.71
7.22
10.14
13.65
17.83
22.68
28.07
33.78
39.50
44.87
49.59
53.34
55.98
57.47
57.86
57.33
56.13
54.53
52.76
51.04
49.48
48.15
47.05
46.17
45.46
44.86
44.31
43.75
43.11
42.30
41.23
39.78
37.86
35.37
32.24
28.42
23.94
18.85
13.25
7.34
1.31
-4.64
-10.30
-15.54
-20.32
-24.62
-28.53
-32.11
-35.42
-38.47
-41.21
-43.49
-45.22
-46.25
-46.55
-46.04
-44.70
-42.42
-39.02
-34.34
-28.16
-20.44
-11.28
-1.04
9.78
20.67
31.23
41.33
51.04
60.66
70.41
80.41
90.56
100.63
110.43
120.03
129.80
140.36
152.48
166.64
182.92
200.97
220.07
239.48
258.63
277.28
295.51
313.72
332.58
352.90
375.42
400.10
425.62
449.11
466.63
474.23
469.32
451.65
423.34
388.20
350.27
312.74
277.46
245.05
215.56
189.00
165.57
145.43
128.61
114.70
103.06
93.09
84.44
77.11
71.28
67.04
64.06
61.71
59.20
55.91
51.56
46.22
40.20
33.88
27.78
22.56
19.03
17.95
19.68
23.96
29.79
35.82
40.72
43.61
44.31
43.30
41.62
40.65
41.88
46.13
53.00
60.18
63.56
58.24
40.40
9.10
-32.66
-78.50
-120.72
-152.77
-171.35
-176.86
-172.46
-162.29
-149.86
-137.42
-126.05
-116.29
-108.53
-103.01
-99.53
-97.37
-95.25
-91.94
-86.61
-79.17
-70.25
-60.92
-52.36
-45.50
-40.76
-37.96
-36.51
-35.50
-34.22
-32.41
-30.34
-28.61
-27.72
-27.73
-28.15
-28.15
-26.94
-24.24
-20.46
-16.63
-13.90
-13.15
-14.57
-17.63
-21.28
-24.39
-26.17
-26.39
-25.29
-23.45
-21.49
-19.83
-18.66
-17.90
-17.39
-16.99
-16.56
-15.98
-15.17
-14.14
-12.91
-11.64
-10.57
-10.00
-10.11
-10.93
-12.25
-13.70
-14.85
-15.38
-15.11
-14.15
-12.72
-11.08
-9.49
-8.15
-7.25
-6.90
-7.19
-8.06
-9.41
-11.08
-12.89
-14.69
-16.29
-17.45
-17.97
-17.71
-16.67
-15.11
-13.36
-11.88
-11.01
-10.90
-11.33
-11.95
-12.29
-12.03
-11.05
-9.53
-7.92
-6.70
-6.25
-6.71
-8.03
-9.96
-12.20
-14.42
-16.26
-17.38
-17.54
-16.68
-14.98
-12.82
-10.65
-8.90
-7.91
-7.85
-8.74
-10.35
-12.29
-14.06
-15.23
-15.54
-15.00
-13.95
-12.84
-12.02
-11.63
-11.56
-11.61
-11.53
-11.17
-10.45
-9.40
-8.10
-6.69
-5.44
-4.60
-4.41
-4.94
-6.07
-7.54
-8.99
-10.17
-10.86
-11.02
-10.66
-9.84
-8.73
-7.57
-6.73
-6.52
-7.13
-8.46
-10.17
-11.80
-12.97
-13.53
-13.54
-13.24
-12.82
-12.36
-11.82
-11.17
-10.43
-9.73
-9.26
-9.11
-9.22
-9.38
-9.25
-8.61
-7.43
-5.98
-4.74
-4.23
-4.88
-6.76
-9.68
-13.05
-16.29
-18.84
-20.37
-20.81
-20.31
-19.19
-17.82
-16.63
-16.02
-16.36
-17.84
-20.23
-23.05
-25.55
-27.17
-27.69
-27.33
-26.53
-25.62
-24.64
-23.20
-20.87
-17.35
-12.75
-7.46
-2.09
2.74
6.54
8.91
9.63
8.61
6.07
2.49
-1.46
-4.98
-7.52
-8.75
-8.60
-7.13
-4.54
-1.03
3.11
7.45
11.49
14.64
16.45
16.67
15.34
12.74
9.27
5.29
1.05
-3.26
-7.47
-11.30
-14.49
-16.78
-18.08
-18.39
-17.84
-16.62
-14.87
-12.77
-10.50
-8.34
-6.59
-5.52
-5.18
-5.47
-6.14
-6.99
-7.90
-8.83
-9.76
-10.59
-11.22
-11.50
-11.36
-10.84
-10.08
-9.23
-8.39
-7.62
-6.89
-6.26
-5.80
-5.62
-5.76
-6.14
-6.58
-6.85
-6.76
-6.28
-5.57
-4.89
-4.50
-4.52
-4.88
-5.40
-5.82
-5.95
-5.64
-4.96
-4.02
-3.10
-2.46
-2.34
-2.91
-4.12
-5.79
-7.59
-9.18
-10.30
-10.80
-10.76
-10.36
-9.82
-9.27
-8.68
-7.87
-6.64
-4.84
-2.56
-0.11
1.97
3.21
3.29
2.20
0.29
-1.91
-3.84
-5.09
-5.44
-4.89
-3.67
-2.16
-0.80
0.05
0.14
-0.59
-2.07
-4.09
-6.36
-8.51
-10.22
-11.21
-11.33
-10.59
-9.23
-7.55
-5.83
-4.24
-2.83
-1.62
-0.64
0.06
0.42
0.43
0.15
-0.33
-0.97
-1.73
-2.53
-3.22
-3.57
-3.33
-2.44
-1.06
0.40
1.43
1.63
0.86
-0.78
-2.95
-5.21
-7.19
-8.61
-9.35
-9.42
-8.86
-7.81
-6.44
-5.00
-3.77
-3.01
-2.90
-3.42
-4.37
-5.38
-6.12
-6.40
-6.24
-5.82
-5.34
-4.91
-4.55
-4.20
-3.85
-3.47
-3.14
-2.91
-2.85
-2.98
-3.31
-3.75
-4.17
-4.31
-3.93
-2.92
-1.41
0.18
1.31
1.66
1.17
0.13
-1.09
-2.21
-3.26
-4.42
-5.90
-7.72
-9.62
-11.16
-11.93
-11.81
-10.93
-9.64
-8.35
-7.32
-6.68
-6.38
-6.34
-6.45
-6.65
-6.82
-6.85
-6.62
-6.00
-4.98
-3.71
-2.45
-1.52
-1.21
-1.65
-2.85
-4.62
-6.64
-8.54
-9.87
-10.37
-9.90
-8.55
-6.62
-4.55
-2.78
-1.57
-1.02
-1.00
-1.28
-1.67
-2.07
-2.43
-2.76
-3.10
-3.36
-3.52
-3.56
-3.49
-3.41
-3.39
-3.44
-3.49
-3.57
-3.64
-3.84
-4.25
-4.93
-5.82
-6.78
-7.57
-7.95
-7.83
-7.18
-6.13
-4.85
-3.54
-2.42
-1.71
-1.56
-1.94
-2.74
-3.62
-4.27
-4.38
-3.83
-2.68
-1.16
0.33
1.37
1.55
0.67
-1.23
-3.73
-6.18
-7.99
-8.78
-8.59
-7.67
-6.36
-4.81
-3.00
-0.87
1.49
3.68
5.17
5.49
4.52
2.56
0.17
-2.07
-3.73
-4.67
-4.96
-4.75
-4.21
-3.45
-2.61
-1.82
-1.25
-1.05
-1.31
-1.97
-2.84
-3.61
-4.02
-3.93
-3.41
-2.68
-2.09
-1.90
-2.29
-3.24
-4.59
-6.08
-7.46
-8.51
-9.06
-9.07
-8.61
-7.84
-6.89
-5.84
-4.76
-3.68
-2.75
-2.20
-2.20
-2.75
-3.61
-4.47
-5.06
-5.36
-5.47
-5.55
-5.62
-5.58
-5.26
-4.60
-3.76
-3.05
-2.70
-2.72
-2.86
-2.73
-2.04
-0.77
0.82
2.27
3.17
3.30
2.70
1.56
0.08
-1.54
-3.19
-4.72
-5.90
-6.45
-6.20
-5.17
-3.61
-1.93
-0.50
0.46
0.93
0.99
0.69
0.00
-1.14
-2.67
-4.38
-6.01
-7.29
-8.11
-8.53
-8.70
-8.74
-8.68
-8.50
-8.11
-7.45
-6.42
-4.94
-2.93
-0.47
2.18
4.60
6.29
6.89
6.35
4.89
2.88
0.76
-1.18
-2.76
-3.87
-4.43
-4.33
-3.56
-2.29
-0.82
0.39
0.96
0.68
-0.34
-1.86
-3.49
-4.94
-6.03
-6.72
-7.05
-7.08
-6.82
-6.24
-5.33
-4.14
-2.86
-1.74
-1.03
-0.86
-1.21
-1.77
-2.00
-1.46
0.07
2.33
4.73
6.56
7.31
6.85
5.40
3.41
1.35
-0.42
-1.67
-2.20
-1.87
-0.63
1.33
3.57
5.43
6.31
5.95
4.48
2.41
0.30
-1.40
-2.55
-3.23
-3.53
-3.50
-3.04
-2.05
-0.59
1.03
2.39
3.12
3.20
2.93
2.78
3.16
4.24
5.81
7.50
8.88
9.66
9.71
9.07
7.96
6.76
5.99
6.02
6.96
8.58
10.33
11.61
11.95
11.23
9.54
7.17
4.39
1.58
-0.85
-2.50
-3.11
-2.77
-2.00
-1.52
-1.87
-3.04
-4.41
-5.07
-4.32
-2.04
1.25
4.55
6.99
8.02
7.62
6.11
3.89
1.31
-1.33
-3.82
-5.95
-7.61
-8.89
-10.02
-11.20
-12.45
-13.51
-13.86
-13.15
-11.28
-8.63
-6.07
-4.67
-5.21
-7.88
-12.06
-16.42
-19.58
-20.51
-18.99
-15.62
-11.47
-7.52
-4.41
-2.35
-1.30
-1.18
-1.86
-2.99
-4.07
-4.42
-3.61
-1.65
0.95
3.51
5.43
6.47
6.70
6.26
5.30
3.90
2.22
0.64
-0.25
0.07
1.86
4.89
8.44
11.62
13.70
14.38
13.92
13.07
12.76
13.79
16.52
20.68
25.57
30.30
34.19
37.04
39.24
41.60
44.86
49.46
55.18
61.31
66.88
71.11
73.81
75.43
76.94
79.57
84.53
92.56
103.47
115.53
125.17
127.38
117.08
91.16
50.29
-0.39
-52.56
-97.40
-128.65
-144.49
-147.35
-142.08
-133.47
-124.53
-116.21
-108.27
-100.45
-93.12
-87.08
-82.87
-80.19
-77.86
-74.50
-69.28
-62.39
-54.94
-48.40
-43.89
-41.64
-40.92
-40.48
-39.00
-35.75
-30.85
-25.16
-19.83
-15.87
-13.75
-13.29
-13.89
-14.77
-15.26
-15.03
-14.03
-12.46
-10.57
-8.61
-6.70
-4.88
-3.09
-1.37
0.19
1.41
2.02
1.87
1.01
-0.27
-1.53
-2.32
-2.40
-1.81
-0.81
0.17
0.82
0.99
0.76
0.30
-0.19
-0.63
-1.08
-1.59
-2.13
-2.52
-2.56
-2.11
-1.25
-0.19
0.77
1.39
1.64
1.65
1.73
2.13
2.98
4.15
5.34
6.12
6.10
5.16
3.47
1.45
-0.44
-1.87
-2.77
-3.24
-3.42
-3.39
-3.07
-2.37
-1.22
0.24
1.68
2.73
3.07
2.61
1.52
0.18
-1.02
-1.73
-1.86
-1.51
-0.94
-0.43
-0.18
-0.29
-0.70
-1.34
-2.09
-2.85
-3.50
-3.91
-3.98
-3.65
-2.90
-1.81
-0.57
0.58
1.50
2.17
2.80
3.65
4.88
6.40
7.86
8.80
8.84
7.95
6.39
4.65
3.18
2.28
2.00
2.24
2.81
3.48
4.04
4.29
4.07
3.34
2.20
0.87
-0.39
-1.39
-2.01
-2.25
-2.23
-2.07
-1.91
-1.88
-2.00
-2.28
-2.66
-3.07
-3.40
-3.56
-3.41
-2.82
-1.76
-0.22
1.56
3.30
4.73
5.74
6.42
7.00
7.72
8.61
9.38
9.55
8.63
6.51
3.48
0.24
-2.50
-4.18
-4.66
-4.16
-3.16
-2.05
-1.05
-0.14
0.85
1.96
3.07
3.86
4.06
3.58
2.56
1.37
0.32
-0.38
-0.75
-0.97
-1.21
-1.56
-1.93
-2.18
-2.12
-1.69
-0.96
-0.09
0.69
1.19
1.32
1.17
0.94
0.90
1.18
1.75
2.46
3.09
3.46
3.50
3.25
2.71
1.92
0.86
-0.50
-2.08
-3.66
-4.93
-5.56
-5.34
-4.29
-2.66
-0.88
0.62
1.50
1.63
1.08
0.07
-1.17
-2.40
-3.42
-4.07
-4.23
-3.87
-3.15
-2.25
-1.43
-0.89
-0.75
-1.00
-1.50
-2.05
-2.40
-2.40
-2.00
-1.37
-0.73
-0.30
-0.14
-0.09
0.14
0.86
2.03
3.42
4.49
4.81
4.25
3.03
1.67
0.66
0.31
0.58
1.20
1.83
2.27
2.57
2.86
3.22
3.51
3.46
2.73
1.25
-0.73
-2.73
-4.24
-5.03
-5.12
-4.78
-4.29
-3.84
-3.44
-3.11
-2.92
-2.98
-3.43
-4.26
-5.33
-6.33
-6.94
-6.88
-6.12
-4.77
-3.10
-1.37
0.25
1.79
3.35
5.00
6.68
8.09
8.87
8.72
7.60
5.76
3.63
1.73
0.38
-0.28
-0.33
-0.08
0.16
0.15
-0.17
-0.65
-1.10
-1.34
-1.38
-1.38
-1.61
-2.27
-3.30
-4.33
-4.93
-4.74
-3.75
-2.34
-0.98
-0.04
0.33
0.29
0.09
-0.07
-0.16
-0.29
-0.60
-1.06
-1.47
-1.60
-1.29
-0.68
-0.03
0.40
0.58
0.72
1.22
2.40
4.21
6.26
7.81
8.27
7.37
5.38
2.92
0.69
-0.81
-1.48
-1.48
-1.15
-0.72
-0.28
0.19
0.72
1.23
1.54
1.38
0.70
-0.41
-1.70
-2.81
-3.50
-3.70
-3.58
-3.38
-3.38
-3.65
-4.08
-4.48
-4.68
-4.64
-4.41
-4.12
-3.84
-3.56
-3.22
-2.75
-2.14
-1.48
-0.88
-0.36
0.10
0.63
1.33
2.19
3.13
3.96
4.49
4.54
4.04
3.05
1.74
0.32
-0.93
-1.75
-2.00
-1.65
-0.83
0.24
1.37
2.38
3.20
3.73
3.84
3.36
2.21
0.51
-1.39
-3.01
-3.93
-3.99
-3.44
-2.79
-2.59
-3.11
-4.23
-5.60
-6.77
-7.45
-7.51
-7.00
-6.04
-4.69
-3.05
-1.17
0.83
2.74
4.37
5.54
6.22
6.43
6.34
6.07
5.79
5.50
5.12
4.49
3.45
2.05
0.45
-1.01
-2.06
-2.50
-2.34
-1.73
-0.88
-0.00
0.80
1.44
1.87
2.02
1.91
1.62
1.29
1.15
1.27
1.65
2.11
2.40
2.30
1.67
0.56
-0.86
-2.27
-3.36
-3.88
-3.86
-3.45
-2.85
-2.23
-1.53
-0.55
0.98
3.17
5.85
8.61
10.87
12.14
12.13
10.87
8.66
5.97
3.32
1.09
-0.54
-1.63
-2.37
-2.92
-3.28
-3.39
-3.17
-2.63
-1.95
-1.37
-1.08
-1.20
-1.69
-2.31
-2.83
-3.05
-2.84
-2.23
-1.32
-0.22
0.91
1.87
2.49
2.63
2.25
1.49
0.66
0.19
0.43
1.53
3.31
5.31
6.90
7.57
7.08
5.52
3.29
0.89
-1.19
-2.61
-3.24
-3.12
-2.43
-1.47
-0.59
-0.07
-0.12
-0.73
-1.74
-2.84
-3.78
-4.36
-4.49
-4.20
-3.57
-2.72
-1.79
-0.94
-0.30
0.10
0.31
0.49
0.80
1.26
1.81
2.29
2.63
2.90
3.25
3.77
4.39
4.93
5.08
4.68
3.68
2.23
0.53
-1.18
-2.69
-3.83
-4.45
-4.47
-3.93
-3.01
-2.04
-1.35
-1.14
-1.46
-2.25
-3.34
-4.57
-5.70
-6.47
-6.72
-6.29
-5.24
-3.81
-2.37
-1.26
-0.66
-0.47
-0.44
-0.30
0.14
0.84
1.71
2.60
3.52
4.46
5.44
6.35
6.95
6.99
6.37
5.23
3.83
2.47
1.31
0.39
-0.35
-0.94
-1.33
-1.42
-1.11
-0.45
0.39
1.16
1.58
1.51
0.94
-0.01
-1.10
-2.13
-2.89
-3.29
-3.30
-3.00
-2.48
-1.92
-1.47
-1.31
-1.57
-2.21
-3.04
-3.79
-4.22
-4.23
-3.82
-3.07
-2.01
-0.68
0.91
2.66
4.30
5.50
5.95
5.48
4.18
2.29
0.17
-1.83
-3.44
-4.51
-4.99
-4.89
-4.29
-3.33
-2.22
-1.20
-0.45
-0.06
0.02
-0.09
-0.25
-0.46
-0.74
-1.18
-1.78
-2.33
-2.59
-2.34
-1.59
-0.59
0.23
0.63
0.58
0.24
-0.10
-0.34
-0.50
-0.72
-1.06
-1.50
-1.86
-1.99
-1.87
-1.57
-1.17
-0.61
0.22
1.44
2.99
4.64
6.00
6.70
6.53
5.47
3.73
1.62
-0.47
-2.15
-3.19
-3.51
-3.17
-2.36
-1.37
-0.46
0.14
0.27
-0.08
-0.84
-1.85
-2.93
-3.92
-4.74
-5.45
-6.02
-6.39
-6.35
-5.71
-4.37
-2.51
-0.51
1.18
2.23
2.56
2.31
1.71
0.98
0.28
-0.27
-0.60
-0.60
-0.22
0.51
1.48
2.53
3.56
4.55
5.51
6.40
7.07
7.31
6.96
5.99
4.52
2.78
0.98
-0.76
-2.32
-3.64
-4.61
-5.10
-5.05
-4.54
-3.75
-2.95
-2.37
-2.16
-2.33
-2.78
-3.37
-3.93
-4.28
-4.24
-3.80
-3.05
-2.18
-1.39
-0.80
-0.43
-0.20
-0.03
0.15
0.31
0.41
0.44
0.46
0.56
0.77
1.09
1.51
2.10
3.00
4.42
6.37
8.56
10.43
11.29
10.69
8.57
5.37
1.93
-0.90
-2.57
-3.03
-2.60
-1.72
-0.68
0.46
1.75
3.15
4.43
5.17
5.06
4.03
2.40
0.65
-0.80
-1.82
-2.56
-3.23
-3.86
-4.20
-3.95
-3.04
-1.67
-0.25
0.82
1.35
1.43
1.32
1.30
1.50
1.98
2.71
3.75
5.12
6.77
8.42
9.62
9.83
8.74
6.39
3.20
-0.13
-2.82
-4.28
-4.27
-2.99
-1.01
1.03
2.58
3.31
3.19
2.41
1.28
0.11
-0.89
-1.65
-2.16
-2.48
-2.71
-2.86
-3.01
-3.22
-3.45
-3.65
-3.76
-3.70
-3.44
-3.02
-2.49
-1.95
-1.48
-1.05
-0.55
0.11
1.08
2.36
3.79
5.10
5.89
5.80
4.70
2.79
0.48
-1.62
-3.02
-3.50
-3.08
-1.98
-0.51
1.11
2.68
4.08
5.15
5.72
5.64
4.93
3.65
1.90
-0.13
-2.26
-4.21
-5.70
-6.59
-6.81
-6.48
-5.79
-5.04
-4.37
-3.84
-3.42
-3.05
-2.69
-2.33
-1.87
-1.25
-0.37
0.90
2.57
4.52
6.43
7.89
8.49
8.04
6.65
4.74
2.85
1.40
0.58
0.31
0.34
0.41
0.37
0.18
-0.13
-0.55
-1.16
-1.97
-2.91
-3.86
-4.72
-5.40
-5.98
-6.57
-7.27
-8.05
-8.70
-8.85
-8.19
-6.69
-4.61
-2.48
-0.85
0.03
0.23
0.09
-0.02
0.16
0.74
1.69
2.95
4.45
6.03
7.44
8.29
8.22
7.04
4.88
2.13
-0.67
-3.00
-4.52
-5.15
-4.94
-4.10
-2.78
-1.16
0.61
2.30
3.65
4.34
4.07
2.78
0.61
-2.01
-4.52
-6.47
-7.63
-7.99
-7.72
-7.09
-6.32
-5.67
-5.25
-5.12
-5.17
-5.22
-5.01
-4.39
-3.40
-2.13
-0.88
0.12
0.76
1.04
1.11
1.20
1.53
2.17
3.08
4.00
4.63
4.70
4.12
3.01
1.59
0.14
-1.16
-2.08
-2.52
-2.34
-1.57
-0.37
1.02
2.29
3.15
3.43
3.17
2.44
1.44
0.29
-0.93
-2.12
-3.10
-3.68
-3.68
-3.05
-1.94
-0.68
0.41
1.04
1.06
0.57
-0.23
-1.09
-1.76
-2.09
-2.06
-1.65
-0.97
-0.15
0.71
1.66
2.81
4.20
5.75
7.09
7.77
7.47
6.17
4.17
1.99
0.07
-1.37
-2.31
-2.87
-3.18
-3.24
-3.03
-2.54
-1.88
-1.24
-0.83
-0.80
-1.20
-1.94
-2.88
-3.83
-4.57
-4.97
-4.94
-4.47
-3.61
-2.52
-1.36
-0.26
0.63
1.25
1.50
1.38
0.92
0.28
-0.27
-0.39
0.26
1.83
4.20
6.82
8.96
9.95
9.43
7.54
4.89
2.22
0.14
-1.05
-1.42
-1.18
-0.50
0.62
2.18
4.12
6.14
7.71
8.35
7.79
6.15
3.88
1.54
-0.39
-1.72
-2.48
-2.83
-2.90
-2.74
-2.33
-1.73
-1.10
-0.63
-0.46
-0.58
-0.72
-0.49
0.45
2.28
4.89
7.85
10.55
12.34
12.64
11.20
8.24
4.35
0.37
-2.80
-4.62
-4.95
-4.10
-2.59
-1.02
0.13
0.57
0.17
-1.01
-2.78
-4.77
-6.61
-7.90
-8.39
-8.04
-7.00
-5.61
-4.18
-2.91
-1.88
-1.02
-0.25
0.52
1.27
1.93
2.47
2.94
3.38
3.88
4.42
4.88
5.14
4.97
4.28
3.03
1.36
-0.49
-2.25
-3.65
-4.56
-4.88
-4.64
-3.89
-2.79
-1.52
-0.35
0.42
0.55
-0.07
-1.30
-2.82
-4.18
-5.02
-5.17
-4.62
-3.58
-2.32
-1.06
0.02
0.83
1.40
1.78
2.06
2.35
2.72
3.19
3.71
4.13
4.25
3.90
3.01
1.53
-0.39
-2.53
-4.53
-6.02
-6.67
-6.30
-5.04
-3.21
-1.30
0.29
1.35
1.91
2.10
2.10
1.93
1.56
0.83
-0.24
-1.51
-2.71
-3.57
-3.96
-3.90
-3.55
-3.10
-2.68
-2.31
-1.94
-1.55
-1.12
-0.66
-0.15
0.52
1.43
2.51
3.52
4.06
3.81
2.68
0.93
-0.94
-2.40
-3.07
-2.85
-1.94
-0.71
0.49
1.41
1.98
2.29
2.41
2.36
2.09
1.41
0.27
-1.24
-2.83
-4.09
-4.67
-4.48
-3.72
-2.75
-1.92
-1.46
-1.37
-1.50
-1.65
-1.68
-1.53
-1.27
-1.03
-0.93
-0.98
-1.06
-0.94
-0.45
0.49
1.74
3.07
4.18
4.82
4.90
4.45
3.61
2.65
1.77
1.19
0.98
1.13
1.49
1.87
2.08
1.97
1.54
0.90
0.18
-0.53
-1.20
-1.86
-2.59
-3.39
-4.22
-4.93
-5.36
-5.34
-4.85
-3.93
-2.72
-1.43
-0.24
0.70
1.29
1.50
1.32
0.85
0.23
-0.41
-0.92
-1.20
-1.26
-1.17
-1.10
-1.19
-1.44
-1.71
-1.81
-1.56
-0.84
0.27
1.58
2.85
3.79
4.21
4.03
3.33
2.31
1.20
0.19
-0.61
-1.20
-1.66
-2.03
-2.26
-2.23
-1.78
-0.95
0.06
0.94
1.46
1.48
1.05
0.37
-0.41
-1.11
-1.62
-1.90
-1.91
-1.69
-1.40
-1.25
-1.37
-1.83
-2.46
-3.07
-3.50
-3.68
-3.69
-3.54
-3.23
-2.69
-1.87
-0.78
0.45
1.62
2.58
3.24
3.76
4.34
5.14
6.20
7.36
8.26
8.49
7.79
6.16
3.98
1.81
0.18
-0.59
-0.48
0.24
1.21
2.17
2.93
3.47
3.83
4.02
4.00
3.63
2.83
1.58
0.03
-1.56
-2.94
-3.88
-4.32
-4.40
-4.36
-4.41
-4.65
-5.00
-5.30
-5.38
-5.11
-4.51
-3.67
-2.67
-1.50
-0.14
1.39
2.97
4.38
5.44
6.09
6.53
7.06
7.93
9.09
10.23
10.86
10.59
9.27
7.09
4.53
2.14
0.28
-0.91
-1.53
-1.76
-1.77
-1.60
-1.29
-0.85
-0.32
0.13
0.37
0.30
-0.05
-0.48
-0.76
-0.74
-0.41
0.02
0.29
0.21
-0.27
-1.06
-1.92
-2.53
-2.70
-2.32
-1.45
-0.30
0.89
1.85
2.43
2.61
2.57
2.49
2.59
2.91
3.32
3.61
3.53
2.90
1.73
0.20
-1.42
-2.80
-3.67
-3.94
-3.62
-2.91
-2.05
-1.28
-0.77
-0.59
-0.68
-0.93
-1.27
-1.59
-1.92
-2.28
-2.73
-3.29
-3.92
-4.45
-4.73
-4.67
-4.30
-3.75
-3.21
-2.83
-2.66
-2.65
-2.66
-2.56
-2.28
-1.81
-1.08
-0.01
1.50
3.41
5.50
7.38
8.57
8.79
7.95
6.31
4.32
2.42
0.97
0.11
-0.23
-0.25
-0.19
-0.21
-0.32
-0.42
-0.43
-0.30
-0.16
-0.28
-0.85
-1.91
-3.28
-4.68
-5.80
-6.53
-6.84
-6.77
-6.38
-5.70
-4.75
-3.69
-2.69
-1.90
-1.40
-1.10
-0.90
-0.68
-0.35
0.11
0.68
1.38
2.26
3.38
4.78
6.38
7.92
9.05
9.43
8.86
7.46
5.51
3.35
1.25
-0.69
-2.52
-4.25
-5.78
-6.84
-7.11
-6.37
-4.74
-2.52
-0.27
1.48
2.37
2.32
1.53
0.38
-0.70
-1.42
-1.65
-1.45
-1.02
-0.63
-0.59
-1.08
-2.15
-3.61
-5.12
-6.24
-6.63
-6.20
-5.10
-3.63
-2.15
-0.90
0.10
0.92
1.72
2.62
3.71
4.89
5.97
6.65
6.62
5.72
4.04
1.89
-0.22
-1.77
-2.47
-2.31
-1.62
-0.85
-0.31
-0.12
-0.17
-0.33
-0.50
-0.75
-1.22
-1.98
-2.96
-3.92
-4.57
-4.68
-4.15
-3.04
-1.58
-0.05
1.25
2.02
2.13
1.61
0.64
-0.51
-1.63
-2.60
-3.38
-3.97
-4.29
-4.26
-3.75
-2.78
-1.47
-0.02
1.40
2.70
3.85
4.83
5.56
5.80
5.35
4.11
2.25
0.15
-1.69
-2.92
-3.48
-3.50
-3.19
-2.69
-1.99
-0.99
0.18
1.20
1.65
1.24
-0.01
-1.71
-3.27
-4.24
-4.40
-3.92
-3.12
-2.29
-1.59
-1.02
-0.55
-0.15
0.16
0.32
0.38
0.44
0.59
0.88
1.27
1.64
1.89
2.08
2.28
2.64
3.14
3.67
3.98
3.93
3.47
2.72
1.92
1.28
0.94
0.99
1.41
2.24
3.42
4.84
6.18
7.16
7.44
6.90
5.60
3.79
1.85
0.07
-1.28
-2.13
-2.46
-2.41
-2.12
-1.73
-1.37
-1.02
-0.70
-0.37
-0.02
0.33
0.60
0.76
0.82
0.74
0.63
0.62
0.85
1.50
2.54
3.78
4.83
5.30
4.86
3.42
1.24
-1.24
-3.51
-5.12
-5.83
-5.62
-4.59
-3.06
-1.43
-0.03
0.89
1.25
1.15
0.74
0.19
-0.44
-1.09
-1.74
-2.32
-2.70
-2.80
-2.58
-2.03
-1.25
-0.41
0.40
1.07
1.55
1.81
1.86
1.76
1.63
1.56
1.68
2.07
2.68
3.38
3.96
4.19
3.90
2.98
1.46
-0.41
-2.29
-3.80
-4.63
-4.60
-3.81
-2.44
-0.81
0.74
2.04
2.92
3.30
3.14
2.45
1.28
-0.20
-1.70
-2.93
-3.61
-3.63
-3.06
-2.18
-1.31
-0.78
-0.74
-1.11
-1.70
-2.28
-2.68
-2.85
-2.83
-2.56
-1.88
-0.65
1.15
3.20
4.92
5.66
5.02
3.12
0.52
-1.99
-3.75
-4.52
-4.45
-3.94
-3.35
-2.88
-2.47
-1.98
-1.36
-0.69
-0.18
0.00
-0.17
-0.56
-0.99
-1.26
-1.34
-1.33
-1.34
-1.41
-1.49
-1.52
-1.43
-1.30
-1.23
-1.31
-1.59
-1.98
-2.37
-2.64
-2.70
-2.49
-1.91
-0.89
0.53
2.21
3.88
5.13
5.61
5.14
3.77
1.89
0.02
-1.33
-1.80
-1.37
-0.34
0.86
1.79
2.21
2.10
1.61
0.96
0.34
-0.14
-0.56
-1.00
-1.53
-2.17
-2.85
-3.40
-3.66
-3.58
-3.20
-2.69
-2.22
-1.91
-1.76
-1.70
-1.60
-1.37
-0.98
-0.45
0.11
0.54
0.69
0.47
-0.07
-0.71
-1.09
-0.91
-0.06
1.32
2.78
3.83
4.10
3.53
2.26
0.64
-1.03
-2.51
-3.69
-4.57
-5.14
-5.38
-5.23
-4.60
-3.47
-1.89
-0.04
1.76
3.03
3.46
2.90
1.58
0.00
-1.27
-1.91
-1.93
-1.63
-1.47
-1.70
-2.38
-3.24
-3.90
-4.11
-3.79
-3.12
-2.28
-1.47
-0.66
0.19
1.07
1.94
2.62
2.98
3.04
3.01
3.18
3.81
4.86
6.00
6.74
6.60
5.37
3.19
0.59
-1.84
-3.54
-4.27
-4.11
-3.36
-2.33
-1.27
-0.32
0.44
0.87
0.84
0.25
-0.78
-1.99
-2.99
-3.54
-3.60
-3.36
-3.06
-2.87
-2.82
-2.80
-2.70
-2.45
-2.02
-1.36
-0.49
0.52
1.53
2.31
2.68
2.60
2.27
2.04
2.31
3.23
4.71
6.39
7.81
8.53
8.30
7.14
5.31
3.29
1.59
0.60
0.43
0.94
1.78
2.55
3.08
3.35
3.50
3.61
3.65
3.48
2.91
1.94
0.67
-0.69
-1.98
-3.10
-4.03
-4.80
-5.35
-5.64
-5.60
-5.18
-4.42
-3.43
-2.40
-1.47
-0.71
0.00
0.85
2.03
3.60
5.40
7.00
8.01
8.17
7.55
6.50
5.39
4.49
3.86
3.43
3.12
2.86
2.69
2.60
2.63
2.71
2.80
2.89
2.88
2.74
2.37
1.66
0.61
-0.72
-2.11
-3.24
-3.79
-3.59
-2.63
-1.18
0.35
1.56
2.21
2.25
1.78
1.03
0.25
-0.20
-0.04
0.84
2.32
3.94
5.15
5.53
4.94
3.64
2.10
0.73
-0.24
-0.88
-1.42
-2.06
-2.83
-3.64
-4.31
-4.76
-5.01
-5.18
-5.46
-5.97
-6.65
-7.25
-7.53
-7.30
-6.61
-5.66
-4.73
-4.02
-3.59
-3.29
-2.92
-2.32
-1.45
-0.43
0.56
1.37
1.99
2.54
3.20
4.06
5.08
6.04
6.62
6.64
6.15
5.40
4.72
4.29
4.09
3.93
3.64
3.13
2.46
1.78
1.16
0.56
-0.09
-0.86
-1.81
-2.90
-4.08
-5.26
-6.33
-7.14
-7.53
-7.40
-6.73
-5.64
-4.32
-2.98
-1.81
-0.87
-0.16
0.40
0.82
1.12
1.34
1.53
1.78
2.14
2.61
3.08
3.40
3.37
2.85
1.86
0.59
-0.71
-1.76
-2.38
-2.48
-2.11
-1.37
-0.41
0.60
1.57
2.37
2.95
3.22
3.14
2.74
2.10
1.35
0.61
-0.05
-0.55
-0.90
-1.08
-1.11
-1.05
-0.98
-1.03
-1.26
-1.74
-2.36
-2.96
-3.40
-3.59
-3.48
-3.10
-2.41
-1.45
-0.26
1.07
2.43
3.77
4.95
5.90
6.59
7.06
7.33
7.45
7.43
7.19
6.60
5.57
4.10
2.38
0.77
-0.43
-1.06
-1.24
-1.31
-1.62
-2.33
-3.38
-4.42
-5.09
-5.16
-4.73
-4.09
-3.63
-3.56
-3.85
-4.36
-4.90
-5.39
-5.80
-6.15
-6.42
-6.53
-6.37
-5.89
-5.15
-4.25
-3.31
-2.42
-1.57
-0.72
0.18
1.17
2.21
3.20
3.95
4.30
4.12
3.49
2.68
2.09
2.15
3.04
4.53
6.07
6.94
6.64
5.08
2.63
-0.08
-2.43
-4.04
-4.85
-5.00
-4.69
-4.10
-3.36
-2.54
-1.75
-1.02
-0.34
0.31
0.96
1.51
1.89
2.06
2.03
1.84
1.53
1.09
0.43
-0.49
-1.64
-2.85
-3.89
-4.53
-4.66
-4.32
-3.69
-3.01
-2.57
-2.54
-2.88
-3.39
-3.77
-3.76
-3.29
-2.52
-1.82
-1.46
-1.58
-1.99
-2.32
-2.26
-1.57
-0.30
1.41
3.33
5.25
6.89
7.99
8.33
7.79
6.51
4.83
3.18
1.93
1.22
0.98
1.00
1.11
1.24
1.43
1.68
1.93
2.07
1.98
1.64
1.16
0.68
0.28
-0.03
-0.39
-0.86
-1.41
-1.81
-1.81
-1.30
-0.39
0.51
0.97
0.74
-0.13
-1.23
-2.07
-2.30
-1.80
-0.77
0.45
1.54
2.30
2.64
2.60
2.24
1.73
1.33
1.34
1.99
3.27
4.90
6.38
7.15
6.89
5.70
4.02
2.43
1.41
1.12
1.37
1.80
2.04
1.93
1.55
1.10
0.81
0.80
0.98
1.14
1.06
0.61
-0.18
-1.18
-2.17
-3.00
-3.59
-3.93
-4.03
-3.83
-3.25
-2.27
-1.04
0.15
0.96
1.12
0.58
-0.49
-1.74
-2.88
-3.65
-3.91
-3.59
-2.55
-0.84
1.37
3.66
5.53
6.43
6.16
4.80
2.72
0.47
-1.52
-3.02
-3.97
-4.38
-4.36
-3.96
-3.24
-2.34
-1.43
-0.67
-0.18
0.05
0.10
0.09
0.10
0.09
-0.07
-0.48
-1.13
-1.89
-2.49
-2.69
-2.39
-1.72
-0.94
-0.35
-0.10
-0.17
-0.35
-0.40
-0.24
0.13
0.56
0.90
1.16
1.47
2.01
2.88
4.05
5.28
6.27
6.71
6.48
5.63
4.36
2.95
1.56
0.30
-0.85
-1.91
-2.81
-3.42
-3.62
-3.41
-2.90
-2.38
-2.07
-2.11
-2.48
-3.04
-3.62
-4.14
-4.60
-5.01
-5.38
-5.65
-5.72
-5.49
-4.97
-4.24
-3.48
-2.88
-2.55
-2.49
-2.57
-2.57
-2.23
-1.36
0.07
2.01
4.18
6.19
7.53
7.76
6.68
4.44
1.63
-1.07
-2.97
-3.77
-3.52
-2.57
-1.37
-0.28
0.50
0.90
0.94
0.67
0.17
-0.48
-1.22
-2.01
-2.84
-3.64
-4.24
-4.49
-4.35
-3.93
-3.48
-3.25
-3.40
-3.84
-4.35
-4.68
-4.69
-4.37
-3.80
-3.07
-2.18
-1.13
0.11
1.49
2.85
3.94
4.53
4.50
3.96
3.18
2.51
2.26
2.43
2.83
3.13
3.08
2.67
2.05
1.42
0.87
0.38
-0.17
-0.86
-1.74
-2.83
-4.05
-5.29
-6.39
-7.16
-7.41
-7.06
-6.18
-4.87
-3.32
-1.64
0.00
1.46
2.57
3.24
3.48
3.45
3.40
3.52
3.98
4.87
6.17
7.77
9.32
10.34
10.33
9.15
7.01
4.50
2.34
0.99
0.56
0.73
1.07
1.26
1.27
1.21
1.25
1.43
1.63
1.65
1.29
0.51
-0.65
-1.93
-3.11
-3.94
-4.29
-4.09
-3.40
-2.32
-1.00
0.36
1.63
2.67
3.42
3.88
4.13
4.29
4.54
4.96
5.54
6.09
6.32
5.98
5.01
3.54
1.90
0.47
-0.47
-0.84
-0.74
-0.36
0.11
0.58
0.94
1.07
0.92
0.52
0.01
-0.42
-0.67
-0.84
-1.15
-1.83
-2.94
-4.29
-5.55
-6.40
-6.70
-6.45
-5.78
-4.71
-3.26
-1.45
0.52
2.33
3.63
4.24
4.32
4.28
4.55
5.31
6.39
7.31
7.56
6.87
5.27
3.07
0.70
-1.48
-3.24
-4.45
-5.01
-4.93
-4.28
-3.25
-2.08
-1.05
-0.40
-0.25
-0.54
-1.11
-1.75
-2.27
-2.61
-2.83
-3.06
-3.39
-3.84
-4.33
-4.79
-5.15
-5.38
-5.49
-5.46
-5.21
-4.69
-3.87
-2.84
-1.79
-0.83
0.05
1.03
2.25
3.74
5.27
6.43
6.85
6.38
5.17
3.59
2.07
0.91
0.24
-0.02
-0.10
-0.24
-0.59
-1.16
-1.81
-2.37
-2.69
-2.73
-2.63
-2.61
-2.85
-3.45
-4.26
-5.03
-5.51
-5.55
-5.15
-4.39
-3.42
-2.36
-1.35
-0.47
0.21
0.65
0.85
0.90
0.91
1.04
1.42
2.10
3.01
3.87
4.34
4.08
2.95
1.11
-1.00
-2.76
-3.74
-3.77
-3.03
-1.91
-0.73
0.27
1.02
1.48
1.64
1.38
0.66
-0.48
-1.85
-3.14
-4.07
-4.51
-4.50
-4.16
-3.72
-3.37
-3.22
-3.28
-3.46
-3.70
-3.93
-4.17
-4.44
-4.73
-4.95
-4.95
-4.62
-3.90
-2.90
-1.76
-0.66
0.29
1.05
1.67
2.15
2.46
2.54
2.40
2.12
1.84
1.70
1.73
1.88
2.00
2.00
1.81
1.52
1.33
1.38
1.74
2.23
2.51
2.20
1.08
-0.73
-2.76
-4.36
-5.01
-4.52
-3.14
-1.45
-0.04
0.68
0.68
0.24
-0.26
-0.57
-0.62
-0.53
-0.44
-0.38
-0.38
-0.41
-0.46
-0.57
-0.70
-0.75
-0.58
-0.15
0.54
1.26
1.73
1.72
1.14
0.13
-1.01
-1.95
-2.52
-2.62
-2.33
-1.72
-0.88
0.05
0.95
1.65
1.97
1.77
1.04
-0.11
-1.48
-2.88
-4.18
-5.36
-6.44
-7.45
-8.26
-8.74
-8.71
-8.13
-7.06
-5.69
-4.26
-2.93
-1.91
-1.33
-1.27
-1.69
-2.38
-2.96
-3.04
-2.42
-1.18
0.25
1.28
1.32
0.04
-2.54
-5.94
-9.37
-11.79
-12.13
-9.77
-4.62
2.61
10.58
17.70
22.64
24.64
23.72
20.51
15.94
10.95
6.28
2.34
-0.64
-2.62
-3.66
-3.96
-3.84
-3.70
-3.84
-4.31
-4.97
-5.40
-5.20
-4.12
-2.22
0.26
2.97
5.64
8.16
10.43
12.32
13.62
14.07
13.53
12.10
10.04
7.73
5.52
3.61
2.07
0.88
-0.02
-0.68
-1.15
-1.54
-2.01
-2.69
-3.63
-4.79
-6.02
-7.20
-8.19
-8.82
-8.95
-8.50
-7.51
-6.25
-5.05
-4.25
-3.99
-4.16
-4.39
-4.24
-3.37
-1.67
0.73
3.64
6.87
10.26
13.55
16.34
18.15
18.54
17.35
14.69
10.89
6.36
1.49
-3.44
-8.03
-11.83
-14.33
-15.22
-14.48
-12.46
-9.70
-6.79
-4.16
-2.14
-1.01
-1.08
-2.61
-5.69
-10.02
-14.98
-19.81
-23.70
-25.99
-26.15
-23.86
-19.13
-12.44
-4.72
2.90
9.41
14.25
17.42
19.28
20.30
20.78
20.83
20.47
19.78
18.97
18.31
18.07
18.37
19.13
20.16
21.19
22.02
22.58
23.04
23.70
24.80
26.41
28.27
29.94
30.98
31.14
30.42
29.05
27.31
25.39
23.33
21.07
18.61
15.98
13.29
10.67
8.23
5.96
3.82
1.69
-0.52
-2.83
-5.29
-7.94
-10.81
-13.90
-17.11
-20.19
-22.82
-24.68
-25.57
-25.46
-24.51
-22.89
-20.88
-18.71
-16.59
-14.73
-13.33
-12.52
-12.39
-12.85
-13.72
-14.74
-15.64
-16.21
-16.32
-15.99
-15.34
-14.54
-13.71
-12.86
-11.95
-10.92
-9.72
-8.38
-6.99
-5.62
-4.36
-3.27
-2.36
-1.68
-1.22
-1.01
-1.02
-1.21
-1.47
-1.69
-1.75
-1.55
-1.09
-0.41
0.45
1.38
2.27
3.04
3.62
3.95
3.99
3.71
3.14
2.30
1.24
0.07
-1.13
-2.24
-3.17
-3.88
-4.38
-4.72
-4.99
-5.29
-5.67
-6.20
-6.90
-7.74
-8.66
-9.57
-10.32
-10.82
-10.98
-10.76
-10.21
-9.40
-8.42
-7.34
-6.23
-5.10
-3.97
-2.83
-1.66
-0.46
0.75
1.95
3.09
4.12
4.96
5.57
5.94
6.08
6.03
5.85
5.64
5.52
5.57
5.84
6.37
7.19
8.28
9.61
11.11
12.72
14.34
15.87
17.18
18.13
18.60
18.45
17.60
16.00
13.65
10.63
7.11
3.28
-0.62
-4.32
-7.61
-10.28
-12.19
-13.32
-13.67
-13.31
-12.38
-11.05
-9.50
-7.94
-6.50
-5.33
-4.51
-4.07
-3.99
-4.22
-4.68
-5.30
-5.98
-6.62
-7.16
-7.51
-7.60
-7.39
-6.85
-5.93
-4.65
-3.05
-1.20
0.77
2.73
4.60
6.31
7.85
9.24
10.45
11.46
12.15
12.39
12.10
11.27
9.95
8.28
6.44
4.57
2.74
0.98
-0.70
-2.30
-3.75
-5.01
-5.97
-6.53
-6.54
-5.89
-4.46
-2.29
0.44
3.37
6.03
8.10
9.41
10.12
10.54
10.99
11.69
12.67
13.78
14.82
15.64
16.11
16.25
16.09
15.69
15.04
14.19
13.15
11.95
10.69
9.41
8.17
6.96
5.74
4.39
2.82
1.00
-1.03
-3.15
-5.23
-7.13
-8.79
-10.17
-11.29
-12.17
-12.80
-13.18
-13.31
-13.20
-12.90
-12.47
-12.02
-11.63
-11.36
-11.22
-11.16
-11.10
-10.93
-10.56
-9.89
-8.87
-7.47
-5.73
-3.68
-1.40
1.01
3.44
5.76
7.89
9.72
11.16
12.14
12.62
12.58
12.00
10.93
9.42
7.57
5.50
3.34
1.19
-0.83
-2.65
-4.23
-5.55
-6.66
-7.62
-8.44
-9.18
-9.88
-10.58
-11.26
-11.93
-12.50
-12.97
-13.29
-13.41
-13.33
-13.04
-12.54
-11.85
-11.02
-10.07
-9.06
-8.02
-6.91
-5.73
-4.38
-2.81
-1.02
0.90
2.82
4.55
6.01
7.20
8.20
9.15
10.14
11.15
12.07
12.76
13.09
12.99
12.47
11.61
10.56
9.43
8.35
7.41
6.64
6.04
5.49
4.78
3.73
2.28
0.63
-0.80
-1.44
-0.92
0.72
3.01
5.24
6.69
7.07
6.48
5.33
4.08
3.01
2.10
1.19
0.13
-1.05
-2.26
-3.30
-4.04
-4.48
-4.65
-4.54
-4.14
-3.41
-2.40
-1.31
-0.36
0.24
0.47
0.57
0.91
1.82
3.32
4.94
5.93
5.54
3.51
0.25
-3.26
-5.93
-7.03
-6.51
-4.95
-3.21
-2.01
-1.62
-1.84
-2.30
-2.68
-2.89
-3.04
-3.26
-3.66
-4.18
-4.71
-5.08
-5.17
-4.99
-4.58
-4.10
-3.68
-3.48
-3.59
-4.12
-5.10
-6.40
-7.72
-8.57
-8.44
-7.00
-4.29
-0.76
2.79
5.55
7.00
7.07
6.15
4.81
3.62
2.88
2.61
2.64
2.77
2.91
3.09
3.35
3.63
3.76
3.56
2.85
1.71
0.33
-0.92
-1.77
-2.10
-2.00
-1.81
-1.86
-2.42
-3.41
-4.53
-5.25
-5.17
-4.22
-2.70
-1.19
-0.16
0.29
0.48
0.99
2.27
4.33
6.73
8.68
9.51
8.89
6.97
4.28
1.47
-0.91
-2.45
-2.99
-2.60
-1.51
-0.11
1.14
1.82
1.61
0.38
-1.67
-4.09
-6.26
-7.63
-7.94
-7.36
-6.38
-5.58
-5.38
-5.77
-6.39
-6.69
-6.29
-5.17
-3.69
-2.37
-1.65
-1.64
-2.09
-2.51
-2.38
-1.40
0.39
2.56
4.55
5.78
5.93
5.04
3.50
1.82
0.50
-0.16
-0.08
0.61
1.70
3.03
4.43
5.77
6.91
7.70
7.97
7.61
6.62
5.05
3.16
1.27
-0.23
-0.98
-0.83
0.14
1.63
3.20
4.43
5.08
5.13
4.76
4.27
3.88
3.76
4.00
4.59
5.44
6.33
6.94
6.87
5.80
3.63
0.54
-3.02
-6.47
-9.29
-11.12
-11.84
-11.56
-10.40
-8.60
-6.39
-4.05
-1.90
-0.18
0.89
1.24
0.89
-0.01
-1.23
-2.46
-3.42
-3.88
-3.71
-2.95
-1.83
-0.64
0.33
0.87
0.88
0.49
-0.12
-0.65
-0.78
-0.31
0.84
2.52
4.33
5.74
6.36
5.98
4.77
3.17
1.65
0.61
0.15
0.19
0.43
0.60
0.55
0.26
-0.16
-0.61
-0.97
-1.21
-1.39
-1.60
-1.97
-2.55
-3.24
-3.84
-4.19
-4.18
-3.88
-3.50
-3.09
-2.63
-1.98
-1.07
0.02
0.96
1.42
1.28
0.75
0.37
0.62
1.54
2.71
3.48
3.21
1.83
-0.32
-2.60
-4.37
-5.26
-5.31
-4.72
-3.80
-2.83
-1.99
-1.40
-1.18
-1.30
-1.70
-2.18
-2.50
-2.56
-2.49
-2.57
-3.09
-4.19
-5.71
-7.17
-8.00
-7.78
-6.49
-4.50
-2.47
-1.02
-0.46
-0.74
-1.47
-2.13
-2.23
-1.51
0.04
2.10
4.12
5.44
5.55
4.21
1.69
-1.31
-3.96
-5.51
-5.67
-4.62
-2.88
-0.99
0.72
2.16
3.42
4.50
5.25
5.43
4.94
3.91
2.73
1.79
1.29
1.13
1.03
0.72
0.10
-0.77
-1.71
-2.62
-3.43
-4.10
-4.48
-4.38
-3.75
-2.71
-1.60
-0.65
-0.02
0.49
1.09
1.95
2.91
3.55
3.47
2.52
0.88
-0.99
-2.60
-3.60
-3.88
-3.54
-2.72
-1.57
-0.24
1.06
2.08
2.61
2.56
1.93
0.91
-0.29
-1.44
-2.43
-3.20
-3.73
-3.93
-3.75
-3.13
-2.10
-0.84
0.41
1.41
2.05
2.35
2.48
2.58
2.72
2.89
3.05
3.18
3.29
3.38
3.42
3.25
2.74
1.78
0.47
-0.92
-2.04
-2.61
-2.55
-1.99
-1.13
-0.23
0.60
1.28
1.76
1.96
1.81
1.26
0.39
-0.61
-1.59
-2.40
-3.01
-3.42
-3.62
-3.54
-3.11
-2.37
-1.43
-0.48
0.34
1.02
1.60
2.16
2.74
3.38
4.12
5.02
6.09
7.23
8.10
8.27
7.43
5.57
3.12
0.79
-0.74
-1.08
-0.28
1.23
2.88
4.27
5.18
5.64
5.76
5.64
5.26
4.49
3.16
1.25
-1.03
-3.28
-4.98
-5.75
-5.45
-4.29
-2.76
-1.42
-0.66
-0.58
-1.03
-1.72
-2.42
-3.01
-3.43
-3.66
-3.60
-3.17
-2.42
-1.56
-0.96
-0.98
-1.80
-3.25
-4.90
-6.18
-6.65
-6.22
-5.12
-3.77
-2.58
-1.77
-1.29
-0.93
-0.41
0.40
1.45
2.45
3.08
3.10
2.49
1.49
0.45
-0.24
-0.36
0.10
0.95
1.93
2.75
3.17
3.09
2.54
1.70
0.87
0.33
0.25
0.54
0.94
1.16
1.17
1.15
1.45
2.30
3.59
4.94
5.78
5.72
4.74
3.16
1.47
0.07
-0.93
-1.67
-2.27
-2.82
-3.27
-3.44
-3.24
-2.69
-1.92
-1.13
-0.54
-0.33
-0.60
-1.35
-2.33
-3.21
-3.64
-3.40
-2.53
-1.32
-0.14
0.76
1.29
1.57
1.73
1.81
1.75
1.48
1.02
0.50
0.13
0.03
0.14
0.26
0.07
-0.60
-1.79
-3.29
-4.72
-5.68
-5.83
-5.09
-3.62
-1.77
0.15
1.92
3.49
4.89
6.03
6.71
6.61
5.57
3.70
1.51
-0.37
-1.48
-1.69
-1.29
-0.71
-0.27
-0.01
0.26
0.71
1.38
2.11
2.65
2.79
2.53
1.98
1.32
0.66
0.04
-0.59
-1.26
-1.98
-2.75
-3.52
-4.17
-4.60
-4.67
-4.34
-3.65
-2.77
-1.93
-1.29
-0.94
-0.85
-0.98
-1.28
-1.73
-2.26
-2.77
-3.14
-3.25
-3.08
-2.69
-2.20
-1.74
-1.29
-0.77
-0.02
1.05
2.41
3.81
4.84
5.13
4.45
2.88
0.82
-1.16
-2.54
-2.99
-2.54
-1.49
-0.16
1.13
2.26
3.25
4.11
4.83
5.25
5.16
4.37
2.98
1.23
-0.43
-1.55
-1.87
-1.38
-0.37
0.73
1.53
1.84
1.69
1.33
1.11
1.24
1.73
2.35
2.74
2.54
1.63
0.16
-1.41
-2.52
-2.76
-2.03
-0.65
0.84
1.87
2.10
1.56
0.62
-0.21
-0.40
0.34
1.96
4.11
6.19
7.58
7.82
6.80
4.81
2.46
0.43
-0.82
-1.17
-0.82
-0.15
0.53
1.08
1.58
2.12
2.68
3.09
3.04
2.30
0.82
-1.14
-3.17
-4.76
-5.56
-5.49
-4.69
-3.53
-2.42
-1.69
-1.45
-1.62
-1.90
-1.95
-1.50
-0.44
1.07
2.75
4.24
5.27
5.71
5.65
5.30
5.00
5.04
5.62
6.79
8.38
10.04
11.25
11.54
10.57
8.34
5.26
1.91
-1.00
-2.97
-3.80
-3.63
-2.81
-1.71
-0.58
0.46
1.37
2.11
2.51
2.40
1.66
0.45
-0.81
-1.66
-1.72
-1.07
-0.16
0.37
0.04
-1.18
-2.83
-4.22
-4.75
-4.15
-2.71
-0.93
0.62
1.52
1.64
1.02
-0.13
-1.52
-2.74
-3.43
-3.34
-2.49
-1.20
0.02
0.66
0.40
-0.75
-2.37
-3.92
-4.84
-4.85
-4.02
-2.71
-1.44
-0.59
-0.29
-0.37
-0.49
-0.34
0.17
0.88
1.52
1.85
1.77
1.41
1.00
0.74
0.67
0.71
0.65
0.29
-0.46
-1.51
-2.63
-3.51
-3.93
-3.85
-3.34
-2.63
-1.96
-1.46
-1.14
-0.90
-0.65
-0.28
0.27
0.95
1.72
2.41
2.84
2.80
2.13
0.81
-0.98
-2.85
-4.38
-5.28
-5.47
-5.13
-4.54
-3.95
-3.36
-2.65
-1.72
-0.62
0.36
0.83
0.50
-0.51
-1.84
-2.89
-3.26
-2.85
-1.90
-0.82
-0.05
0.16
-0.17
-0.84
-1.51
-1.83
-1.54
-0.56
0.96
2.64
3.96
4.55
4.29
3.44
2.55
2.17
2.63
3.82
5.31
6.49
6.88
6.25
4.69
2.59
0.38
-1.54
-2.89
-3.58
-3.65
-3.26
-2.66
-2.12
-1.81
-1.83
-2.12
-2.58
-3.02
-3.26
-3.20
-2.81
-2.24
-1.65
-1.32
-1.41
-1.93
-2.72
-3.46
-3.91
-3.94
-3.61
-3.09
-2.62
-2.29
-2.06
-1.81
-1.43
-0.94
-0.44
-0.05
0.20
0.40
0.71
1.28
2.07
2.81
3.08
2.55
1.16
-0.79
-2.71
-4.01
-4.39
-3.97
-3.13
-2.35
-1.85
-1.50
-0.98
-0.09
1.08
2.08
2.38
1.76
0.40
-1.10
-2.12
-2.30
-1.71
-0.76
0.02
0.34
0.27
0.11
0.22
0.77
1.72
2.82
3.77
4.32
4.41
4.10
3.52
2.87
2.33
2.05
2.13
2.57
3.21
3.79
3.97
3.41
2.00
-0.10
-2.45
-4.41
-5.48
-5.48
-4.58
-3.27
-2.09
-1.39
-1.22
-1.46
-1.89
-2.39
-2.91
-3.37
-3.60
-3.36
-2.48
-1.01
0.66
2.04
2.66
2.30
1.13
-0.42
-1.80
-2.50
-2.23
-0.98
1.03
3.37
5.52
7.09
7.93
8.17
8.18
8.34
8.77
9.32
9.61
9.19
7.87
5.74
3.24
0.90
-0.86
-1.92
-2.43
-2.69
-2.93
-3.19
-3.37
-3.31
-2.99
-2.54
-2.17
-2.06
-2.27
-2.71
-3.20
-3.57
-3.69
-3.46
-2.88
-1.95
-0.76
0.55
1.76
2.70
3.25
3.35
3.04
2.34
1.40
0.40
-0.34
-0.52
0.02
1.12
2.36
3.15
3.00
1.77
-0.33
-2.73
-4.76
-5.87
-5.81
-4.72
-3.00
-1.21
0.19
0.97
1.19
1.12
1.06
1.21
1.57
1.95
2.06
1.66
0.70
-0.72
-2.37
-4.03
-5.41
-6.28
-6.46
-5.89
-4.67
-3.11
-1.55
-0.38
0.24
0.44
0.53
0.84
1.57
2.65
3.82
4.68
4.91
4.36
3.05
1.13
-1.11
-3.32
-5.16
-6.37
-6.76
-6.37
-5.33
-3.91
-2.40
-1.07
-0.07
0.50
0.68
0.60
0.39
0.16
-0.06
-0.36
-0.79
-1.40
-2.11
-2.77
-3.15
-3.15
-2.75
-2.07
-1.29
-0.54
0.15
0.75
1.27
1.66
1.88
1.99
2.11
2.45
3.13
4.11
5.10
5.73
5.62
4.66
3.03
1.14
-0.53
-1.61
-2.04
-1.95
-1.60
-1.21
-0.87
-0.57
-0.29
-0.11
-0.17
-0.66
-1.57
-2.76
-3.90
-4.64
-4.78
-4.29
-3.42
-2.50
-1.90
-1.79
-2.21
-2.93
-3.61
-3.92
-3.67
-2.94
-2.02
-1.27
-0.93
-1.04
-1.40
-1.66
-1.49
-0.70
0.71
2.53
4.43
5.94
6.69
6.45
5.38
3.85
2.42
1.54
1.35
1.64
1.94
1.80
1.03
-0.28
-1.78
-3.08
-3.93
-4.30
-4.42
-4.54
-4.85
-5.25
-5.51
-5.34
-4.58
-3.35
-1.92
-0.67
0.18
0.64
0.88
1.09
1.37
1.63
1.69
1.42
0.87
0.27
-0.17
-0.36
-0.37
-0.35
-0.33
-0.21
0.27
1.32
2.92
4.72
6.13
6.65
6.02
4.50
2.58
0.83
-0.36
-0.91
-1.00
-0.90
-0.74
-0.63
-0.44
-0.10
0.41
0.99
1.42
1.47
1.04
0.23
-0.75
-1.62
-2.12
-2.21
-1.96
-1.57
-1.23
-1.00
-0.87
-0.77
-0.59
-0.31
0.06
0.49
0.93
1.36
1.72
2.01
2.24
2.50
3.00
3.93
5.47
7.56
9.84
11.72
12.60
12.04
10.05
7.11
4.01
1.57
0.34
0.37
1.32
2.64
3.80
4.53
4.79
4.69
4.31
3.61
2.44
0.77
-1.23
-3.17
-4.63
-5.30
-5.23
-4.71
-4.18
-4.02
-4.31
-4.92
-5.54
-5.82
-5.60
-4.85
-3.69
-2.27
-0.78
0.61
1.74
2.51
2.96
3.21
3.44
3.83
4.50
5.36
6.12
6.40
5.91
4.58
2.69
0.74
-0.76
-1.50
-1.60
-1.48
-1.64
-2.34
-3.39
-4.34
-4.63
-4.10
-3.00
-1.95
-1.53
-1.99
-3.07
-4.18
-4.75
-4.48
-3.51
-2.27
-1.20
-0.58
-0.37
-0.39
-0.40
-0.29
-0.07
0.20
0.52
0.89
1.33
1.73
1.88
1.63
0.99
0.22
-0.27
-0.15
0.67
1.91
3.12
3.80
3.66
2.74
1.28
-0.33
-1.71
-2.56
-2.75
-2.37
-1.63
-0.84
-0.25
0.05
0.10
-0.01
-0.17
-0.41
-0.75
-1.12
-1.36
-1.27
-0.75
0.09
0.92
1.37
1.15
0.24
-1.05
-2.23
-2.84
-2.64
-1.75
-0.55
0.48
0.97
0.83
0.26
-0.29
-0.33
0.42
1.91
3.74
5.33
6.13
5.85
4.61
2.81
1.00
-0.32
-0.91
-0.82
-0.25
0.50
1.20
1.80
2.31
2.84
3.47
4.18
4.83
5.17
4.98
4.13
2.66
0.78
-1.20
-2.93
-4.10
-4.53
-4.28
-3.58
-2.85
-2.51
-2.81
-3.74
-4.96
-5.99
-6.37
-5.90
-4.65
-3.00
-1.42
-0.25
0.37
0.61
0.75
1.16
2.07
3.64
5.77
8.14
10.25
11.46
11.25
9.44
6.37
2.83
-0.20
-2.02
-2.41
-1.68
-0.53
0.35
0.46
-0.35
-1.91
-3.84
-5.68
-7.02
-7.54
-7.18
-6.06
-4.51
-2.93
-1.61
-0.71
-0.26
-0.24
-0.63
-1.43
-2.49
-3.57
-4.33
-4.46
-3.91
-2.84
-1.70
-0.95
-0.97
-1.77
-3.09
-4.42
-5.16
-4.92
-3.62
-1.66
0.32
1.59
1.79
0.98
-0.42
-1.68
-2.24
-1.77
-0.30
1.85
4.17
6.15
7.25
7.08
5.61
3.03
-0.09
-3.03
-5.15
-6.08
-5.81
-4.67
-3.18
-1.76
-0.74
-0.13
0.22
0.48
0.76
1.01
1.13
0.98
0.58
0.06
-0.35
-0.41
-0.02
0.83
2.07
3.56
5.09
6.41
7.22
7.32
6.61
5.20
3.39
1.60
0.22
-0.37
0.07
1.50
3.64
5.89
7.46
7.72
6.38
3.67
0.34
-2.66
-4.60
-5.15
-4.50
-3.17
-1.77
-0.75
-0.29
-0.32
-0.59
-0.92
-1.08
-1.03
-0.77
-0.45
-0.22
-0.23
-0.52
-1.01
-1.50
-1.75
-1.63
-1.16
-0.51
0.13
0.57
0.73
0.64
0.28
-0.29
-0.96
-1.55
-1.75
-1.25
0.01
1.78
3.54
4.66
4.71
3.67
1.90
0.04
-1.40
-2.10
-2.11
-1.69
-1.14
-0.62
-0.15
0.34
0.93
1.57
2.14
2.52
2.58
2.30
1.72
0.88
-0.21
-1.54
-3.04
-4.50
-5.60
-5.99
-5.44
-3.98
-2.00
-0.08
1.17
1.35
0.41
-1.24
-2.89
-3.77
-3.33
-1.45
1.45
4.53
6.85
7.69
6.80
4.47
1.40
-1.62
-4.00
-5.46
-6.12
-6.26
-6.12
-5.83
-5.31
-4.43
-3.20
-1.80
-0.57
0.12
0.08
-0.63
-1.70
-2.71
-3.33
-3.49
-3.33
-3.10
-3.03
-3.17
-3.49
-3.88
-4.25
-4.54
-4.73
-4.69
-4.32
-3.48
-2.09
-0.16
2.15
4.60
6.91
8.71
9.69
9.63
8.50
6.56
4.27
2.12
0.45
-0.67
-1.47
-2.18
-2.99
-3.78
-4.26
-4.13
-3.32
-2.01
-0.58
0.53
1.10
1.10
0.70
0.06
-0.72
-1.59
-2.55
-3.46
-4.18
-4.47
-4.21
-3.42
-2.34
-1.32
-0.67
-0.59
-0.92
-1.32
-1.26
-0.38
1.39
3.62
5.63
6.74
6.57
5.23
3.20
1.17
-0.36
-1.18
-1.41
-1.33
-1.18
-1.14
-1.24
-1.50
-1.98
-2.70
-3.73
-4.95
-6.14
-6.99
-7.29
-6.98
-6.27
-5.51
-4.98
-4.78
-4.72
-4.49
-3.84
-2.74
-1.35
-0.01
1.01
1.58
1.69
1.42
0.87
0.26
-0.13
0.15
1.32
3.29
5.52
7.19
7.52
6.21
3.57
0.37
-2.43
-4.18
-4.63
-3.99
-2.65
-1.06
0.47
1.72
2.53
2.87
2.64
1.92
0.88
-0.27
-1.31
-2.08
-2.50
-2.64
-2.57
-2.36
-2.09
-1.71
-1.14
-0.33
0.70
1.80
2.67
3.09
2.98
2.53
2.17
2.27
2.99
4.08
4.97
5.03
3.91
1.75
-0.86
-3.12
-4.43
-4.56
-3.73
-2.42
-1.08
0.04
0.89
1.53
1.96
2.04
1.54
0.33
-1.47
-3.43
-4.96
-5.59
-5.17
-3.97
-2.46
-1.14
-0.29
0.14
0.33
0.52
0.81
1.15
1.47
1.78
2.22
2.97
4.12
5.54
6.91
7.76
7.69
6.52
4.47
2.04
-0.13
-1.49
-1.81
-1.22
-0.14
0.93
1.59
1.80
1.71
1.66
1.81
2.06
2.12
1.64
0.54
-0.97
-2.45
-3.55
-4.11
-4.20
-4.03
-3.70
-3.17
-2.25
-0.90
0.70
2.17
3.10
3.39
3.22
3.08
3.35
4.24
5.56
6.84
7.53
7.20
5.76
3.38
0.63
-1.93
-3.73
-4.45
-4.06
-2.81
-1.11
0.62
2.00
2.84
3.15
3.05
2.73
2.39
2.15
1.97
1.71
1.21
0.35
-0.76
-1.93
-2.84
-3.25
-3.08
-2.48
-1.75
-1.22
-1.11
-1.45
-2.10
-2.70
-2.90
-2.31
-0.82
1.45
4.10
6.54
8.21
8.71
8.02
6.38
4.31
2.31
0.85
0.25
0.55
1.58
2.90
3.99
4.37
3.79
2.32
0.31
-1.75
-3.43
-4.51
-5.05
-5.23
-5.34
-5.55
-5.92
-6.39
-6.75
-6.86
-6.62
-6.04
-5.21
-4.15
-2.85
-1.27
0.44
1.99
2.99
3.24
2.95
2.60
2.76
3.71
5.25
6.71
7.44
7.14
5.98
4.49
3.15
2.14
1.34
0.54
-0.38
-1.26
-1.83
-1.83
-1.25
-0.33
0.53
0.90
0.58
-0.46
-1.93
-3.43
-4.54
-4.92
-4.58
-3.81
-3.03
-2.61
-2.67
-3.00
-3.28
-3.33
-3.12
-2.92
-2.96
-3.31
-3.76
-3.99
-3.72
-2.83
-1.47
0.20
1.97
3.66
5.07
5.96
6.15
5.59
4.46
3.11
1.92
1.07
0.54
0.14
-0.33
-0.95
-1.65
-2.21
-2.45
-2.25
-1.69
-0.95
-0.29
0.06
-0.07
-0.62
-1.37
-1.94
-1.99
-1.39
-0.36
0.66
1.08
0.60
-0.64
-2.08
-2.96
-2.75
-1.44
0.40
1.92
2.39
1.65
0.13
-1.50
-2.62
-2.99
-2.71
-2.08
-1.28
-0.32
0.86
2.18
3.35
3.97
3.81
2.94
1.64
0.39
-0.50
-0.94
-1.01
-0.86
-0.61
-0.26
0.19
0.76
1.40
1.96
2.25
2.11
1.46
0.40
-0.82
-1.80
-2.19
-1.85
-0.97
0.03
0.66
0.58
-0.31
-1.76
-3.36
-4.62
-5.18
-4.84
-3.77
-2.32
-1.01
-0.29
-0.34
-1.00
-1.78
-2.13
-1.59
-0.10
2.09
4.38
6.14
6.89
6.49
5.19
3.51
2.00
1.06
0.72
0.75
0.80
0.70
0.50
0.45
0.74
1.34
1.92
2.03
1.44
0.23
-1.07
-1.93
-1.97
-1.29
-0.34
0.34
0.39
-0.13
-0.83
-1.19
-0.89
0.10
1.43
2.55
3.03
2.65
1.59
0.30
-0.67
-0.89
-0.27
0.93
2.16
2.90
2.86
2.15
1.07
0.05
-0.66
-1.04
-1.25
-1.44
-1.61
-1.59
-1.16
-0.26
0.99
2.22
3.05
3.22
2.73
1.73
0.48
-0.74
-1.68
-2.16
-2.10
-1.60
-0.90
-0.30
-0.03
-0.13
-0.45
-0.72
-0.72
-0.39
0.26
1.20
2.45
4.08
6.05
8.07
9.65
10.27
9.60
7.68
4.90
1.89
-0.67
-2.26
-2.67
-2.02
-0.65
0.95
2.34
3.20
3.39
2.98
2.16
1.20
0.35
-0.21
-0.39
-0.23
0.15
0.60
0.97
1.18
1.32
1.48
1.80
2.28
2.83
3.27
3.45
3.34
2.98
2.65
2.67
3.34
4.71
6.51
8.13
8.81
8.00
5.55
1.96
-1.86
-4.85
-6.28
-6.02
-4.55
-2.64
-0.99
0.05
0.58
0.85
1.10
1.31
1.30
0.86
-0.02
-1.14
-2.19
-2.94
-3.41
-3.84
-4.44
-5.27
-6.11
-6.62
-6.49
-5.69
-4.51
-3.34
-2.46
-1.83
-1.17
-0.12
1.45
3.30
4.90
5.65
5.27
3.90
2.02
0.16
-1.35
-2.43
-3.21
-3.84
-4.29
-4.30
-3.57
-1.98
0.31
2.81
4.93
6.22
6.53
6.00
5.02
3.93
2.98
2.27
1.76
1.33
0.87
0.28
-0.55
-1.66
-2.97
-4.37
-5.59
-6.40
-6.64
-6.18
-4.95
-2.99
-0.47
2.35
5.04
7.12
8.19
7.97
6.50
4.05
1.13
-1.70
-3.92
-5.21
-5.49
-5.01
-4.19
-3.48
-3.20
-3.45
-4.06
-4.82
-5.51
-6.02
-6.35
-6.57
-6.67
-6.64
-6.38
-5.86
-5.15
-4.39
-3.67
-3.00
-2.29
-1.50
-0.69
-0.07
0.07
-0.45
-1.53
-2.76
-3.58
-3.53
-2.49
-0.75
1.10
2.48
2.94
2.45
1.24
-0.33
-1.90
-3.25
-4.36
-5.24
-5.89
-6.27
-6.29
-5.93
-5.25
-4.33
-3.28
-2.22
-1.24
-0.41
0.17
0.48
0.56
0.52
0.57
0.82
1.31
1.89
2.39
2.60
2.46
2.01
1.39
0.77
0.33
0.22
0.54
1.31
2.40
3.57
4.50
4.92
4.64
3.66
2.13
0.28
-1.64
-3.40
-4.75
-5.49
-5.50
-4.82
-3.64
-2.31
-1.16
-0.40
-0.05
0.00
-0.09
-0.22
-0.37
-0.53
-0.72
-0.94
-1.19
-1.54
-2.04
-2.75
-3.63
-4.56
-5.30
-5.68
-5.60
-5.06
-4.12
-2.87
-1.38
0.17
1.59
2.66
3.20
3.18
2.71
1.98
1.23
0.56
-0.02
-0.50
-0.89
-1.03
-0.80
-0.14
0.81
1.76
2.38
2.43
1.86
0.82
-0.33
-1.23
-1.58
-1.34
-0.66
0.15
0.77
1.07
1.08
1.04
1.16
1.56
2.08
2.55
2.79
2.90
3.13
3.73
4.78
6.03
6.97
7.12
6.22
4.41
2.12
-0.10
-1.91
-3.18
-4.00
-4.38
-4.30
-3.63
-2.36
-0.70
0.98
2.23
2.75
2.53
1.76
0.70
-0.45
-1.59
-2.64
-3.43
-3.70
-3.17
-1.78
0.21
2.22
3.62
3.92
3.03
1.35
-0.49
-1.73
-1.80
-0.49
1.96
4.91
7.51
8.95
8.73
6.82
3.76
0.41
-2.28
-3.67
-3.57
-2.30
-0.48
1.28
2.50
2.99
2.76
2.03
1.07
0.19
-0.37
-0.54
-0.35
-0.07
0.03
-0.26
-0.94
-1.72
-2.22
-2.12
-1.40
-0.26
0.83
1.50
1.61
1.36
1.13
1.26
1.84
2.60
3.05
2.72
1.42
-0.61
-2.78
-4.45
-5.18
-4.94
-3.98
-2.73
-1.51
-0.48
0.39
1.08
1.52
1.60
1.22
0.43
-0.59
-1.60
-2.46
-3.12
-3.67
-4.16
-4.55
-4.71
-4.48
-3.78
-2.68
-1.46
-0.45
0.10
0.13
-0.12
-0.26
0.10
1.15
2.74
4.45
5.74
6.18
5.58
4.12
2.15
0.16
-1.49
-2.63
-3.27
-3.51
-3.39
-2.90
-1.95
-0.61
0.90
2.18
2.77
2.43
1.20
-0.54
-2.28
-3.51
-4.04
-3.90
-3.30
-2.51
-1.73
-1.11
-0.71
-0.57
-0.70
-1.03
-1.40
-1.58
-1.34
-0.54
0.77
2.42
4.10
5.46
6.27
6.39
5.88
4.89
3.68
2.51
1.57
0.89
0.39
-0.07
-0.67
-1.40
-2.15
-2.59
-2.43
-1.51
-0.05
1.50
2.52
2.52
1.34
-0.75
-3.12
-5.11
-6.19
-6.22
-5.39
-4.08
-2.71
-1.58
-0.78
-0.28
-0.03
0.03
-0.08
-0.38
-0.88
-1.59
-2.38
-3.07
-3.44
-3.28
-2.44
-0.95
0.99
3.03
4.69
5.63
5.72
5.07
3.99
2.92
2.19
2.01
2.31
2.88
3.43
3.77
3.88
3.96
4.27
4.96
5.87
6.57
6.48
5.22
2.74
-0.50
-3.74
-6.20
-7.44
-7.49
-6.81
-6.01
-5.49
-5.38
-5.44
-5.31
-4.74
-3.78
-2.71
-1.88
-1.58
-1.79
-2.32
-2.87
-3.22
-3.25
-2.91
-2.14
-0.86
0.90
2.96
4.87
6.12
6.26
5.20
3.26
1.11
-0.53
-1.23
-0.95
-0.11
0.73
1.11
0.89
0.26
-0.38
-0.69
-0.56
-0.11
0.39
0.75
0.93
1.01
1.05
1.04
0.84
0.27
-0.69
-1.90
-3.04
-3.67
-3.55
-2.63
-1.17
0.34
1.31
1.34
0.32
-1.53
-3.70
-5.62
-6.74
-6.69
-5.29
-2.66
0.80
4.48
7.66
9.74
10.38
9.64
7.89
5.72
3.67
2.12
1.20
0.85
0.89
1.17
1.62
2.21
2.92
3.67
4.27
4.45
3.96
2.77
1.05
-0.74
-2.17
-2.95
-3.10
-2.92
-2.79
-3.02
-3.59
-4.25
-4.57
-4.27
-3.33
-2.08
-0.97
-0.32
-0.24
-0.49
-0.74
-0.72
-0.41
0.02
0.31
0.35
0.28
0.35
0.76
1.50
2.29
2.68
2.36
1.32
-0.12
-1.48
-2.32
-2.41
-1.83
-0.77
0.51
1.77
2.84
3.49
3.49
2.67
1.07
-1.03
-3.09
-4.55
-5.02
-4.43
-3.11
-1.64
-0.64
-0.54
-1.35
-2.75
-4.10
-4.77
-4.36
-2.96
-1.03
0.75
1.86
2.18
2.04
1.96
2.33
3.23
4.34
5.19
5.40
4.81
3.53
1.81
-0.07
-1.87
-3.39
-4.42
-4.76
-4.34
-3.27
-1.84
-0.45
0.60
1.21
1.39
1.27
0.92
0.37
-0.41
-1.36
-2.33
-3.06
-3.28
-2.85
-1.77
-0.28
1.27
2.48
3.05
2.89
2.24
1.52
1.30
1.95
3.52
5.60
7.50
8.55
8.35
6.97
4.90
2.75
1.06
0.10
-0.14
0.12
0.67
1.28
1.79
2.11
2.14
1.78
0.95
-0.30
-1.86
-3.51
-5.01
-6.12
-6.67
-6.61
-6.01
-4.96
-3.59
-2.01
-0.41
1.00
1.92
2.15
1.67
0.73
-0.14
-0.31
0.68
2.88
5.80
8.58
10.30
10.34
8.66
5.86
2.85
0.54
-0.58
-0.53
0.24
1.17
1.83
2.08
2.03
1.79
1.48
1.07
0.50
-0.22
-1.04
-1.84
-2.56
-3.17
-3.75
-4.33
-4.88
-5.26
-5.29
-4.86
-3.94
-2.68
-1.37
-0.28
0.39
0.59
0.50
0.43
0.64
1.30
2.29
3.29
3.92
3.96
3.41
2.51
1.66
1.08
0.85
0.74
0.48
-0.10
-0.91
-1.64
-1.91
-1.55
-0.71
0.13
0.37
-0.46
-2.36
-4.91
-7.36
-8.99
-9.35
-8.52
-6.93
-5.16
-3.76
-2.97
-2.80
-2.98
-3.20
-3.20
-2.81
-2.03
-0.93
0.27
1.39
2.28
2.81
2.96
2.74
2.26
1.69
1.28
1.16
1.41
1.89
2.29
2.25
1.53
0.16
-1.48
-2.82
-3.26
-2.47
-0.59
1.79
3.84
4.74
4.06
1.92
-1.02
-3.85
-5.76
-6.39
-5.94
-4.98
-4.20
-3.98
-4.34
-4.90
-5.24
-5.07
-4.38
-3.41
-2.40
-1.51
-0.69
0.20
1.31
2.63
3.96
5.01
5.53
5.49
5.00
4.32
3.62
2.97
2.28
1.45
0.45
-0.62
-1.50
-1.96
-1.91
-1.42
-0.76
-0.30
-0.36
-1.05
-2.28
-3.65
-4.65
-4.88
-4.19
-2.78
-1.09
0.34
1.15
1.24
0.81
0.12
-0.48
-0.87
-1.06
-1.14
-1.26
-1.45
-1.70
-1.94
-2.14
-2.21
-2.13
-1.90
-1.54
-1.10
-0.65
-0.25
0.09
0.41
0.78
1.22
1.61
1.81
1.66
1.14
0.34
-0.50
-1.18
-1.58
-1.71
-1.63
-1.35
-0.90
-0.18
0.80
1.96
3.06
3.84
4.06
3.67
2.84
1.80
0.79
0.03
-0.41
-0.49
-0.27
0.11
0.46
0.60
0.39
-0.16
-0.85
-1.42
-1.65
-1.52
-1.19
-0.98
-1.10
-1.52
-2.03
-2.28
-2.02
-1.18
0.12
1.69
3.35
4.97
6.42
7.58
8.26
8.33
7.80
6.79
5.53
4.21
2.99
1.88
0.94
0.20
-0.26
-0.38
-0.18
0.11
0.21
-0.14
-1.06
-2.40
-3.83
-4.94
-5.38
-5.06
-4.21
-3.23
-2.55
-2.41
-2.68
-2.97
-2.85
-2.07
-0.72
0.80
2.08
2.85
3.11
3.09
3.01
2.99
3.02
3.01
2.99
3.03
3.28
3.73
4.22
4.44
4.11
3.15
1.74
0.34
-0.57
-0.70
-0.12
0.84
1.66
1.99
1.81
1.36
1.00
0.95
1.12
1.20
0.86
-0.01
-1.25
-2.42
-3.12
-3.14
-2.61
-1.86
-1.26
-1.07
-1.24
-1.56
-1.70
-1.49
-0.88
-0.06
0.71
1.21
1.37
1.36
1.44
1.93
2.92
4.27
5.65
6.62
6.88
6.29
5.00
3.30
1.61
0.25
-0.65
-1.08
-1.21
-1.19
-1.17
-1.16
-1.20
-1.22
-1.21
-1.21
-1.24
-1.40
-1.71
-2.19
-2.75
-3.31
-3.65
-3.52
-2.78
-1.44
0.28
1.97
3.20
3.65
3.24
2.11
0.70
-0.63
-1.57
-2.05
-2.22
-2.33
-2.56
-2.97
-3.39
-3.56
-3.29
-2.49
-1.30
0.01
1.11
1.78
1.91
1.52
0.71
-0.38
-1.51
-2.48
-3.12
-3.42
-3.45
-3.40
-3.39
-3.41
-3.36
-3.07
-2.50
-1.81
-1.27
-1.14
-1.48
-2.08
-2.57
-2.64
-2.11
-1.06
0.22
1.49
2.48
3.06
3.20
2.96
2.46
1.85
1.32
0.95
0.72
0.47
0.05
-0.60
-1.35
-1.94
-2.06
-1.48
-0.19
1.61
3.49
4.99
5.73
5.45
4.19
2.17
-0.09
-2.05
-3.18
-3.29
-2.56
-1.40
-0.36
0.18
0.12
-0.34
-0.91
-1.37
-1.69
-2.00
-2.38
-2.83
-3.13
-3.01
-2.33
-1.13
0.27
1.48
2.18
2.28
1.93
1.40
0.93
0.67
0.54
0.40
0.15
-0.29
-0.90
-1.62
-2.39
-3.10
-3.60
-3.65
-3.06
-1.71
0.20
2.26
3.89
4.57
4.02
2.39
0.12
-2.14
-3.82
-4.63
-4.62
-4.14
-3.59
-3.24
-3.14
-3.13
-2.97
-2.44
-1.56
-0.42
0.73
1.72
2.46
3.00
3.43
3.83
4.20
4.47
4.53
4.38
4.05
3.60
3.06
2.39
1.55
0.57
-0.34
-0.97
-1.14
-0.91
-0.55
-0.38
-0.56
-0.94
-1.12
-0.66
0.60
2.47
4.41
5.84
6.40
6.08
5.25
4.32
3.62
3.18
2.88
2.52
2.07
1.66
1.55
1.87
2.54
3.23
3.47
3.01
1.90
0.53
-0.57
-1.01
-0.76
-0.15
0.37
0.49
0.23
-0.09
-0.08
0.51
1.58
2.79
3.66
3.89
3.43
2.49
1.40
0.48
-0.02
0.03
0.64
1.72
3.05
4.28
5.01
4.91
3.88
2.14
0.15
-1.50
-2.37
-2.35
-1.65
-0.73
-0.01
0.29
0.25
0.10
0.08
0.27
0.54
0.66
0.41
-0.26
-1.25
-2.27
-3.03
-3.35
-3.23
-2.82
-2.37
-2.08
-2.12
-2.48
-3.11
-3.91
-4.79
-5.57
-6.02
-5.86
-4.78
-2.77
-0.04
2.82
5.07
6.11
5.71
4.11
1.87
-0.28
-1.86
-2.65
-2.81
-2.64
-2.44
-2.28
-2.10
-1.69
-0.94
0.04
0.97
1.55
1.58
1.12
0.39
-0.31
-0.76
-0.92
-0.92
-0.88
-0.80
-0.60
-0.15
0.51
1.18
1.53
1.29
0.41
-0.82
-1.87
-2.11
-1.10
1.17
4.23
7.25
9.33
9.84
8.61
6.04
2.87
-0.05
-2.09
-3.07
-3.16
-2.75
-2.20
-1.70
-1.28
-0.89
-0.50
-0.21
-0.11
-0.21
-0.47
-0.71
-0.84
-0.86
-0.86
-0.94
-1.15
-1.40
-1.50
-1.35
-0.95
-0.47
-0.13
-0.11
-0.49
-1.21
-2.06
-2.74
-2.90
-2.28
-0.80
1.34
3.65
5.50
6.25
5.56
3.53
0.63
-2.36
-4.72
-5.97
-6.00
-5.06
-3.61
-2.10
-0.88
-0.11
0.22
0.14
-0.29
-1.01
-1.94
-2.98
-3.98
-4.78
-5.28
-5.40
-5.19
-4.71
-4.06
-3.34
-2.58
-1.78
-0.98
-0.20
0.50
0.97
1.17
1.10
0.94
0.97
1.51
2.65
4.21
5.76
6.70
6.54
5.09
2.63
-0.17
-2.51
-3.77
-3.71
-2.53
-0.78
0.87
1.82
1.68
0.48
-1.49
-3.70
-5.56
-6.60
-6.61
-5.68
-4.16
-2.53
-1.23
-0.57
-0.50
-0.77
-1.00
-0.87
-0.27
0.67
1.64
2.35
2.73
3.02
3.62
4.80
6.49
8.26
9.44
9.48
8.16
5.73
2.79
-0.02
-2.18
-3.44
-3.82
-3.47
-2.54
-1.26
0.23
1.71
2.95
3.75
3.96
3.50
2.41
0.90
-0.70
-2.03
-2.80
-2.90
-2.41
-1.65
-0.94
-0.56
-0.60
-0.91
-1.22
-1.20
-0.65
0.50
2.08
3.80
5.36
6.44
6.86
6.55
5.51
3.89
1.90
-0.14
-1.86
-2.94
-3.32
-3.16
-2.75
-2.42
-2.37
-2.57
-2.85
-3.01
-2.97
-2.82
-2.73
-2.89
-3.38
-4.07
-4.68
-4.94
-4.63
-3.74
-2.46
-1.01
0.41
1.62
2.55
3.13
3.21
2.65
1.44
-0.23
-1.87
-2.91
-2.95
-1.97
-0.40
0.94
1.23
0.04
-2.46
-5.52
-8.23
-9.82
-9.99
-8.91
-6.98
-4.54
-1.80
1.11
3.98
6.36
7.70
7.66
6.25
3.94
1.52
-0.28
-1.11
-1.08
-0.65
-0.34
-0.51
-1.14
-1.97
-2.62
-2.82
-2.58
-2.03
-1.47
-1.05
-0.74
-0.31
0.54
1.87
3.43
4.70
5.07
4.18
2.10
-0.59
-3.12
-4.79
-5.31
-4.84
-3.81
-2.65
-1.54
-0.49
0.53
1.33
1.54
0.75
-1.11
-3.63
-5.95
-7.09
-6.55
-4.45
-1.65
0.75
1.86
1.44
-0.01
-1.63
-2.53
-2.30
-1.06
0.64
2.10
2.79
2.61
1.83
0.96
0.52
0.71
1.47
2.41
3.10
3.19
2.57
1.42
0.00
-1.31
-2.32
-2.82
-2.65
-1.70
0.04
2.36
4.72
6.37
6.65
5.26
2.45
-0.97
-3.95
-5.62
-5.69
-4.44
-2.68
-1.26
-0.75
-1.23
-2.37
-3.62
-4.46
-4.64
-4.09
-2.98
-1.57
-0.13
1.04
1.70
1.74
1.24
0.50
-0.00
0.17
1.24
3.03
4.98
6.37
6.59
5.45
3.22
0.51
-1.97
-3.68
-4.36
-4.07
-3.07
-1.66
-0.11
1.31
2.34
2.77
2.48
1.59
0.44
-0.55
-0.96
-0.64
0.22
1.25
2.05
2.39
2.33
2.07
1.92
2.08
2.59
3.31
4.01
4.44
4.39
3.86
3.01
2.15
1.68
1.93
3.09
5.00
7.21
9.03
9.79
9.08
6.90
3.73
0.36
-2.44
-4.13
-4.62
-4.15
-3.19
-2.17
-1.40
-0.93
-0.74
-0.69
-0.63
-0.46
-0.14
0.26
0.63
0.85
0.82
0.45
-0.25
-1.23
-2.33
-3.30
-3.92
-3.99
-3.57
-2.86
-2.19
-1.84
-1.93
-2.37
-2.93
-3.37
-3.42
-2.92
-1.79
-0.10
1.85
3.62
4.68
4.68
3.54
1.57
-0.68
-2.60
-3.74
-3.98
-3.44
-2.43
-1.21
0.03
1.13
1.99
2.45
2.40
1.83
0.93
0.00
-0.63
-0.85
-0.84
-0.97
-1.57
-2.72
-4.17
-5.35
-5.77
-5.11
-3.47
-1.34
0.68
1.98
2.27
1.63
0.48
-0.55
-0.83
-0.02
1.77
4.03
5.88
6.58
5.72
3.48
0.56
-2.10
-3.65
-3.67
-2.26
-0.02
2.32
4.07
4.80
4.40
3.08
1.24
-0.66
-2.16
-2.96
-2.98
-2.33
-1.37
-0.52
-0.18
-0.55
-1.55
-2.82
-3.85
-4.19
-3.63
-2.37
-0.87
0.26
0.58
0.04
-1.09
-2.31
-3.13
-3.18
-2.36
-0.75
1.38
3.61
5.43
6.39
6.18
4.82
2.66
0.29
-1.67
-2.72
-2.70
-1.77
-0.30
1.27
2.55
3.27
3.34
2.82
1.91
0.85
-0.08
-0.67
-0.79
-0.53
-0.12
0.11
-0.16
-1.09
-2.66
-4.51
-6.14
-7.01
-6.76
-5.34
-3.15
-0.83
0.87
1.36
0.60
-0.91
-2.34
-2.87
-2.10
-0.28
1.87
3.49
4.00
3.31
1.83
0.22
-0.94
-1.35
-1.14
-0.59
0.00
0.47
0.81
1.07
1.29
1.48
1.56
1.40
0.97
0.30
-0.43
-1.03
-1.37
-1.40
-1.18
-0.85
-0.60
-0.51
-0.56
-0.67
-0.66
-0.47
-0.13
0.27
0.65
1.08
1.79
3.01
4.79
6.94
8.88
9.98
9.76
8.14
5.55
2.72
0.42
-0.89
-1.13
-0.56
0.46
1.66
2.91
4.22
5.49
6.53
7.02
6.74
5.69
4.18
2.64
1.44
0.69
0.26
-0.11
-0.60
-1.17
-1.65
-1.83
-1.63
-1.16
-0.68
-0.42
-0.47
-0.72
-0.87
-0.61
0.16
1.33
2.57
3.48
3.75
3.28
2.14
0.56
-1.19
-2.88
-4.29
-5.22
-5.50
-5.02
-3.85
-2.20
-0.40
1.20
2.28
2.69
2.39
1.48
0.19
-1.20
-2.43
-3.31
-3.71
-3.63
-3.15
-2.43
-1.60
-0.80
-0.10
0.43
0.74
0.76
0.56
0.28
0.19
0.56
1.50
2.87
4.18
4.82
4.31
2.55
-0.04
-2.69
-4.62
-5.29
-4.63
-3.06
-1.23
0.21
0.89
0.77
0.11
-0.69
-1.30
-1.54
-1.41
-1.09
-0.81
-0.79
-1.15
-1.87
-2.75
-3.58
-4.15
-4.30
-4.05
-3.48
-2.76
-2.05
-1.51
-1.18
-1.08
-1.12
-1.06
-0.66
0.31
1.85
3.72
5.39
6.29
6.00
4.49
2.17
-0.27
-2.11
-2.91
-2.65
-1.74
-0.77
-0.24
-0.33
-0.85
-1.47
-1.83
-1.78
-1.34
-0.66
0.09
0.79
1.34
1.69
1.75
1.53
1.03
0.35
-0.34
-0.84
-1.02
-0.86
-0.46
-0.05
0.11
-0.10
-0.64
-1.18
-1.30
-0.60
1.01
3.22
5.36
6.71
6.79
5.56
3.47
1.20
-0.59
-1.59
-1.84
-1.67
-1.39
-1.15
-0.91
-0.53
-0.02
0.44
0.58
0.15
-0.83
-1.99
-2.88
-3.08
-2.42
-1.08
0.52
1.89
2.67
2.74
2.24
1.44
0.60
-0.08
-0.58
-1.00
-1.44
-1.89
-2.27
-2.35
-2.02
-1.24
-0.18
0.84
1.50
1.60
1.16
0.41
-0.37
-0.93
-1.21
-1.25
-1.20
-1.10
-0.90
-0.49
0.21
1.09
1.93
2.40
2.35
1.77
0.85
-0.07
-0.74
-1.06
-1.06
-0.87
-0.63
-0.40
-0.25
-0.21
-0.29
-0.49
-0.79
-1.09
-1.29
-1.28
-0.96
-0.27
0.86
2.49
4.59
6.91
8.99
10.17
9.93
8.07
4.96
1.44
-1.46
-2.97
-2.92
-1.81
-0.59
-0.12
-0.82
-2.50
-4.52
-6.14
-6.90
-6.81
-6.22
-5.53
-4.97
-4.46
-3.80
-2.87
-1.80
-0.93
-0.54
-0.69
-1.10
-1.36
-1.09
-0.25
0.89
1.94
2.64
3.03
3.39
4.01
4.88
5.72
5.97
5.24
3.48
1.15
-1.00
-2.15
-1.91
-0.42
1.66
3.47
4.38
4.21
3.26
2.11
1.39
1.41
2.13
3.18
4.06
4.36
3.88
2.70
1.07
-0.58
-1.82
-2.32
-1.91
-0.69
1.01
2.65
3.64
3.58
2.41
0.50
-1.47
-2.74
-2.80
-1.59
0.36
2.17
2.92
1.98
-0.62
-4.26
-7.87
-10.42
-11.20
-10.17
-7.82
-5.00
-2.56
-1.08
-0.81
-1.58
-3.00
-4.57
-5.71
-6.05
-5.39
-3.88
-1.91
-0.06
1.14
1.40
0.75
-0.44
-1.66
-2.42
-2.48
-1.87
-0.82
0.34
1.36
2.15
2.77
3.35
4.02
4.79
5.56
6.14
6.35
6.06
5.20
3.87
2.16
0.29
-1.54
-3.16
-4.36
-4.97
-4.83
-3.94
-2.45
-0.77
0.59
1.15
0.64
-0.75
-2.57
-4.20
-5.13
-5.13
-4.36
-3.24
-2.22
-1.68
-1.75
-2.30
-3.07
-3.70
-3.90
-3.55
-2.72
-1.62
-0.62
0.00
0.08
-0.34
-1.02
-1.58
-1.64
-1.01
0.27
1.86
3.29
4.09
4.00
3.05
1.59
0.12
-0.90
-1.20
-0.87
-0.19
0.44
0.74
0.64
0.26
-0.14
-0.29
-0.06
0.52
1.23
1.83
2.03
1.72
0.92
-0.17
-1.22
-1.89
-1.93
-1.32
-0.26
0.86
1.67
1.86
1.25
-0.03
-1.69
-3.28
-4.35
-4.59
-3.97
-2.72
-1.23
0.05
0.80
0.91
0.53
-0.02
-0.31
0.01
1.06
2.67
4.37
5.58
5.74
4.69
2.60
0.06
-2.26
-3.77
-4.20
-3.61
-2.37
-1.01
0.00
0.45
0.35
0.01
-0.23
-0.11
0.37
0.97
1.33
1.16
0.47
-0.53
-1.45
-2.03
-2.24
-2.26
-2.31
-2.56
-2.98
-3.41
-3.67
-3.64
-3.38
-3.04
-2.79
-2.73
-2.85
-3.09
-3.39
-3.72
-4.10
-4.50
-4.88
-5.05
-4.74
-3.70
-1.85
0.58
3.06
4.92
5.61
5.00
3.46
1.67
0.39
0.07
0.68
1.78
2.80
3.30
3.17
2.65
2.05
1.67
1.59
1.68
1.70
1.45
0.94
0.29
-0.29
-0.63
-0.69
-0.58
-0.54
-0.74
-1.23
-1.90
-2.59
-3.08
-3.29
-3.22
-2.92
-2.44
-1.80
-1.04
-0.16
0.77
1.69
2.58
3.48
4.42
5.41
6.40
7.28
7.91
8.19
8.02
7.32
5.99
3.98
1.41
-1.38
-3.86
-5.40
-5.53
-4.17
-1.68
1.16
3.47
4.53
4.06
2.28
-0.19
-2.60
-4.39
-5.32
-5.46
-5.10
-4.53
-3.97
-3.49
-3.10
-2.80
-2.57
-2.35
-1.98
-1.33
-0.40
0.64
1.50
1.93
1.91
1.71
1.84
2.72
4.43
6.61
8.45
9.11
8.12
5.59
2.23
-0.98
-3.19
-3.99
-3.57
-2.56
-1.68
-1.40
-1.77
-2.49
-3.16
-3.46
-3.35
-2.92
-2.38
-1.83
-1.35
-0.97
-0.71
-0.70
-0.97
-1.50
-2.06
-2.34
-2.02
-0.98
0.65
2.52
4.17
5.22
5.51
5.24
4.86
4.81
5.33
6.30
7.21
7.43
6.46
4.23
1.14
-2.00
-4.37
-5.47
-5.27
-4.19
-2.83
-1.70
-0.99
-0.61
-0.35
-0.10
0.13
0.17
-0.03
-0.34
-0.47
-0.14
0.70
1.77
2.56
2.64
1.78
0.24
-1.33
-2.19
-1.87
-0.39
1.70
3.54
4.46
4.19
3.10
1.90
1.37
1.90
3.34
5.08
6.29
6.38
5.14
2.95
0.48
-1.52
-2.53
-2.42
-1.47
-0.17
1.01
1.80
2.13
2.08
1.69
0.99
-0.02
-1.28
-2.64
-3.81
-4.47
-4.43
-3.68
-2.45
-1.08
0.05
0.72
0.86
0.53
-0.12
-0.94
-1.79
-2.43
-2.55
-1.86
-0.17
2.39
5.30
7.79
9.17
9.07
7.65
5.53
3.43
1.94
1.29
1.24
1.35
1.23
0.75
0.10
-0.44
-0.57
-0.19
0.51
1.22
1.57
1.30
0.38
-1.02
-2.63
-4.16
-5.35
-6.06
-6.24
-5.91
-5.21
-4.34
-3.52
-2.98
-2.87
-3.23
-3.95
-4.75
-5.30
-5.30
-4.65
-3.33
-1.53
0.46
2.30
3.67
4.40
4.48
4.07
3.43
2.79
2.28
1.86
1.42
0.85
0.14
-0.55
-0.97
-0.88
-0.24
0.79
1.91
2.76
3.12
2.93
2.37
1.71
1.18
0.87
0.70
0.51
0.21
-0.27
-0.85
-1.41
-1.82
-2.00
-1.96
-1.72
-1.37
-0.99
-0.72
-0.62
-0.69
-0.76
-0.57
0.14
1.40
2.96
4.30
4.82
4.22
2.56
0.30
-1.89
-3.43
-4.11
-4.03
-3.58
-3.07
-2.66
-2.27
-1.76
-1.02
-0.13
0.68
1.11
0.98
0.30
-0.65
-1.55
-2.17
-2.35
-2.17
-1.80
-1.43
-1.20
-1.20
-1.35
-1.59
-1.79
-1.89
-1.97
-2.08
-2.35
-2.80
-3.39
-3.94
-4.33
-4.42
-4.16
-3.57
-2.65
-1.44
-0.01
1.47
2.78
3.71
4.14
4.11
3.71
3.11
2.45
1.78
1.13
0.52
0.06
-0.08
0.29
1.24
2.62
4.00
4.88
4.79
3.57
1.53
-0.74
-2.52
-3.33
-3.08
-2.13
-1.01
-0.18
0.11
0.03
-0.10
0.03
0.57
1.40
2.26
2.87
3.12
3.03
2.83
2.81
3.17
3.97
5.08
6.23
7.14
7.60
7.50
6.97
6.21
5.42
4.72
3.99
3.03
1.67
-0.07
-1.87
-3.23
-3.73
-3.24
-2.02
-0.72
-0.04
-0.43
-1.85
-3.79
-5.52
-6.42
-6.28
-5.22
-3.65
-1.99
-0.55
0.48
1.00
0.95
0.32
-0.74
-1.85
-2.60
-2.64
-1.91
-0.67
0.62
1.52
1.89
1.89
1.88
2.19
2.90
3.76
4.27
3.99
2.73
0.79
-1.30
-2.90
-3.66
-3.59
-2.99
-2.28
-1.69
-1.24
-0.80
-0.31
0.20
0.50
0.39
-0.21
-1.20
-2.25
-3.03
-3.37
-3.27
-2.94
-2.67
-2.68
-2.96
-3.32
-3.43
-2.98
-1.88
-0.34
1.16
2.10
2.12
1.32
0.25
-0.29
0.37
2.32
5.01
7.34
8.23
7.07
4.11
0.33
-2.91
-4.54
-4.18
-2.18
0.50
2.84
4.12
4.07
2.96
1.32
-0.23
-1.30
-1.68
-1.46
-0.88
-0.24
0.16
0.11
-0.40
-1.17
-1.85
-2.08
-1.66
-0.61
0.86
2.37
3.61
4.34
4.42
3.81
2.57
0.90
-0.76
-1.81
-1.72
-0.28
2.18
4.84
6.72
7.05
5.60
2.84
-0.33
-2.92
-4.26
-4.25
-3.26
-1.98
-1.05
-0.84
-1.39
-2.48
-3.81
-5.12
-6.22
-7.01
-7.37
-7.20
-6.50
-5.41
-4.21
-3.18
-2.56
-2.36
-2.41
-2.41
-2.04
-1.18
0.11
1.57
2.87
3.65
3.78
3.36
2.77
2.46
2.80
3.88
5.48
7.06
8.03
7.95
6.71
4.57
2.05
-0.31
-2.07
-3.05
-3.28
-2.92
-2.15
-1.16
-0.18
0.55
0.82
0.52
-0.30
-1.44
-2.57
-3.42
-3.87
-4.01
-4.02
-4.08
-4.34
-4.75
-5.12
-5.16
-4.58
-3.30
-1.46
0.58
2.31
3.35
3.55
3.16
2.73
2.88
3.98
5.87
7.93
9.26
9.12
7.27
4.16
0.71
-2.04
-3.41
-3.34
-2.35
-1.19
-0.47
-0.41
-0.85
-1.51
-2.18
-2.83
-3.51
-4.25
-4.89
-5.14
-4.80
-3.86
-2.66
-1.71
-1.44
-1.99
-3.13
-4.34
-5.06
-5.01
-4.24
-3.19
-2.44
-2.40
-3.07
-4.00
-4.49
-3.97
-2.27
0.24
2.82
4.64
5.19
4.42
2.68
0.58
-1.36
-2.76
-3.53
-3.74
-3.60
-3.24
-2.76
-2.14
-1.31
-0.25
0.94
2.00
2.59
2.45
1.58
0.28
-0.93
-1.55
-1.36
-0.48
0.64
1.46
1.68
1.33
0.72
0.32
0.41
0.96
1.64
2.02
1.74
0.82
-0.39
-1.24
-1.10
0.34
2.90
5.83
8.14
8.92
7.82
5.11
1.60
-1.63
-3.70
-4.18
-3.17
-1.19
0.98
2.60
3.15
2.50
0.92
-1.11
-3.01
-4.37
-5.06
-5.27
-5.30
-5.43
-5.73
-6.12
-6.45
-6.50
-6.24
-5.63
-4.74
-3.72
-2.69
-1.81
-1.17
-0.84
-0.73
-0.76
-0.86
-0.93
-0.96
-0.89
-0.67
-0.14
0.72
1.79
2.80
3.44
3.55
3.22
2.86
2.93
3.83
5.60
7.84
9.88
10.99
10.67
8.80
5.80
2.31
-0.93
-3.42
-4.95
-5.69
-5.95
-6.02
-6.04
-5.93
-5.62
-5.08
-4.42
-3.77
-3.25
-2.89
-2.65
-2.51
-2.43
-2.48
-2.69
-3.04
-3.43
-3.70
-3.70
-3.31
-2.52
-1.45
-0.32
0.56
0.92
0.71
0.18
-0.13
0.33
1.81
4.08
6.41
8.00
8.22
7.00
4.80
2.38
0.38
-0.89
-1.50
-1.75
-1.87
-1.93
-1.89
-1.63
-1.22
-0.79
-0.63
-0.91
-1.63
-2.60
-3.45
-3.87
-3.71
-3.09
-2.23
-1.44
-0.86
-0.45
-0.05
0.42
0.92
1.29
1.37
1.27
1.35
2.09
3.74
6.08
8.35
9.55
8.95
6.49
2.90
-0.63
-3.00
-3.70
-3.01
-1.77
-0.89
-0.87
-1.62
-2.66
-3.43
-3.67
-3.55
-3.47
-3.80
-4.57
-5.50
-6.17
-6.26
-5.71
-4.77
-3.73
-2.80
-1.98
-1.10
0.02
1.38
2.84
4.21
5.37
6.42
7.54
8.85
10.16
11.03
10.87
9.31
6.51
3.21
0.43
-0.99
-0.77
0.59
2.15
2.95
2.53
1.08
-0.64
-1.73
-1.56
-0.18
1.85
3.61
4.29
3.57
1.70
-0.61
-2.52
-3.38
-3.06
-1.82
-0.24
1.10
1.80
1.76
1.14
0.32
-0.27
-0.22
0.73
2.50
4.75
6.81
8.00
7.83
6.23
3.64
0.80
-1.53
-2.88
-3.18
-2.71
-1.92
-1.17
-0.63
-0.31
-0.16
-0.22
-0.57
-1.32
-2.39
-3.56
-4.49
-4.83
-4.39
-3.29
-1.89
-0.63
0.09
0.11
-0.45
-1.21
-1.77
-1.77
-1.10
0.15
1.77
3.49
5.04
6.22
6.84
6.77
6.00
4.68
3.07
1.53
0.35
-0.25
-0.30
0.02
0.46
0.75
0.81
0.65
0.39
0.14
-0.04
-0.19
-0.46
-0.97
-1.77
-2.75
-3.68
-4.30
-4.44
-4.08
-3.38
-2.61
-1.99
-1.65
-1.55
-1.54
-1.47
-1.23
-0.76
-0.05
0.91
2.14
3.55
4.98
6.22
6.97
7.07
6.50
5.43
4.15
2.93
1.89
1.07
0.43
-0.04
-0.21
0.02
0.70
1.64
2.42
2.53
1.64
-0.18
-2.39
-4.22
-5.01
-4.49
-2.88
-0.80
1.03
2.16
2.45
2.08
1.44
0.84
0.48
0.42
0.53
0.61
0.52
0.10
-0.62
-1.51
-2.36
-2.94
-3.08
-2.74
-2.00
-1.00
-0.01
0.71
0.95
0.57
-0.41
-1.78
-3.19
-4.20
-4.48
-3.96
-2.79
-1.34
-0.04
0.78
0.99
0.63
-0.06
-0.86
-1.61
-2.23
-2.66
-2.89
-2.89
-2.68
-2.38
-2.20
-2.35
-2.99
-4.09
-5.35
-6.39
-6.80
-6.36
-5.13
-3.40
-1.56
0.01
1.13
1.86
2.41
3.10
4.09
5.33
6.58
7.59
8.23
8.63
8.99
9.46
10.03
10.40
10.17
9.02
6.91
4.19
1.50
-0.45
-1.17
-0.51
1.22
3.34
5.09
5.91
5.58
4.37
2.73
1.15
-0.02
-0.72
-1.03
-1.06
-0.91
-0.61
-0.20
0.24
0.58
0.70
0.53
0.09
-0.50
-1.15
-1.76
-2.31
-2.75
-3.07
-3.25
-3.33
-3.36
-3.42
-3.61
-3.97
-4.41
-4.68
-4.41
-3.29
-1.21
1.66
4.82
7.53
9.16
9.36
8.24
6.29
4.21
2.63
1.86
1.83
2.11
2.18
1.67
0.52
-0.94
-2.17
-2.71
-2.45
-1.74
-1.27
-1.67
-3.12
-5.28
-7.44
-8.87
-9.25
-8.74
-7.86
-7.15
-6.85
-6.79
-6.58
-5.83
-4.42
-2.52
-0.60
0.88
1.57
1.39
0.51
-0.73
-1.92
-2.75
-3.04
-2.69
-1.64
0.09
2.40
4.98
7.28
8.66
8.65
7.16
4.65
1.98
-0.05
-0.93
-0.69
0.19
1.12
1.70
1.81
1.61
1.31
1.04
0.81
0.54
0.17
-0.26
-0.71
-1.10
-1.45
-1.83
-2.31
-2.90
-3.51
-3.98
-4.14
-3.91
-3.35
-2.64
-2.04
-1.73
-1.80
-2.13
-2.43
-2.32
-1.44
0.31
2.71
5.21
7.07
7.65
6.67
4.35
1.42
-1.26
-2.98
-3.48
-3.00
-2.15
-1.56
-1.67
-2.47
-3.62
-4.64
-5.06
-4.70
-3.69
-2.43
-1.39
-0.89
-0.99
-1.45
-1.92
-2.09
-1.82
-1.17
-0.32
0.54
1.32
2.00
2.56
2.91
2.94
2.59
2.00
1.50
1.57
2.46
4.14
6.08
7.46
7.54
5.97
2.97
-0.62
-3.79
-5.72
-6.11
-5.23
-3.74
-2.34
-1.52
-1.40
-1.79
-2.31
-2.65
-2.65
-2.34
-1.84
-1.33
-0.87
-0.48
-0.13
0.18
0.42
0.56
0.57
0.51
0.50
0.60
0.78
0.88
0.76
0.46
0.27
0.62
1.80
3.80
6.16
8.08
8.80
7.86
5.36
1.94
-1.45
-3.98
-5.13
-4.90
-3.72
-2.23
-0.98
-0.29
-0.16
-0.38
-0.71
-1.01
-1.32
-1.67
-2.06
-2.37
-2.44
-2.25
-1.95
-1.81
-2.14
-2.97
-4.05
-4.87
-4.90
-3.83
-1.81
0.69
3.03
4.67
5.44
5.55
5.42
5.47
5.85
6.35
6.53
5.93
4.35
2.00
-0.60
-2.82
-4.21
-4.64
-4.29
-3.55
-2.70
-1.97
-1.45
-1.17
-1.17
-1.47
-2.02
-2.67
-3.17
-3.26
-2.86
-2.04
-1.03
-0.15
0.34
0.32
-0.12
-0.73
-1.18
-1.24
-0.77
0.10
1.09
1.88
2.30
2.37
2.29
2.37
2.80
3.57
4.45
4.97
4.72
3.52
1.48
-0.95
-3.14
-4.53
-4.87
-4.18
-2.85
-1.38
-0.08
0.80
1.22
1.16
0.62
-0.37
-1.68
-3.01
-4.01
-4.36
-3.95
-2.91
-1.63
-0.50
0.16
0.30
0.05
-0.35
-0.71
-0.93
-1.01
-0.95
-0.78
-0.45
0.12
0.94
1.88
2.77
3.32
3.36
2.87
1.91
0.69
-0.55
-1.56
-2.15
-2.24
-1.91
-1.36
-0.82
-0.44
-0.21
-0.00
0.34
0.91
1.58
2.11
2.26
1.93
1.22
0.36
-0.39
-0.92
-1.21
-1.39
-1.58
-1.88
-2.30
-2.79
-3.27
-3.66
-3.95
-4.14
-4.26
-4.31
-4.27
-4.01
-3.36
-2.15
-0.32
1.93
4.21
5.99
6.82
6.50
5.20
3.37
1.51
-0.00
-1.05
-1.76
-2.32
-2.81
-3.14
-3.18
-2.80
-2.08
-1.21
-0.47
-0.04
0.05
-0.09
-0.25
-0.32
-0.28
-0.23
-0.34
-0.73
-1.46
-2.43
-3.46
-4.31
-4.82
-4.92
-4.67
-4.23
-3.73
-3.25
-2.78
-2.19
-1.31
0.06
2.00
4.39
6.83
8.71
9.41
8.57
6.27
3.13
0.06
-2.11
-2.98
-2.80
-2.21
-1.90
-2.27
-3.23
-4.34
-5.05
-5.04
-4.33
-3.27
-2.24
-1.60
-1.42
-1.70
-2.30
-3.07
-3.84
-4.43
-4.62
-4.21
-3.14
-1.54
0.28
1.82
2.64
2.43
1.27
-0.46
-2.12
-3.05
-2.82
-1.34
1.13
4.03
6.68
8.50
9.10
8.44
6.75
4.50
2.16
0.15
-1.30
-2.19
-2.62
-2.77
-2.79
-2.76
-2.76
-2.82
-2.95
-3.16
-3.40
-3.67
-4.04
-4.60
-5.35
-6.14
-6.63
-6.45
-5.36
-3.36
-0.77
1.94
4.24
5.75
6.24
5.72
4.41
2.72
1.26
0.69
1.45
3.52
6.31
8.82
10.07
9.54
7.34
4.20
1.10
-1.19
-2.37
-2.64
-2.49
-2.26
-2.03
-1.65
-0.88
0.33
1.68
2.75
3.11
2.64
1.55
0.34
-0.54
-0.79
-0.48
0.06
0.42
0.31
-0.29
-1.24
-2.23
-3.02
-3.38
-3.21
-2.44
-1.04
0.93
3.27
5.56
7.29
7.97
7.35
5.60
3.20
0.90
-0.70
-1.32
-1.11
-0.53
-0.12
-0.15
-0.46
-0.62
-0.15
1.11
2.84
4.34
4.89
4.10
2.19
-0.17
-2.09
-2.93
-2.52
-1.23
0.26
1.29
1.48
0.79
-0.47
-1.87
-2.94
-3.25
-2.58
-0.86
1.62
4.29
6.36
7.08
6.09
3.61
0.47
-2.27
-3.66
-3.38
-1.74
0.53
2.61
4.03
4.71
4.92
4.94
4.90
4.63
3.90
2.54
0.67
-1.29
-2.86
-3.64
-3.50
-2.59
-1.25
0.10
1.15
1.69
