1680590320.00
64.000000
-0.00
-0.00
-0.00
-0.00
-0.00
-0.00
-0.00
-0.00
-0.00
-0.00
0.00
0.01
0.01
-0.00
-0.03
-0.05
-0.05
0.00
0.13
0.36
0.66
1.01
1.37
1.72
2.06
2.40
2.79
3.24
3.80
4.42
5.06
5.66
6.20
6.68
7.15
7.68
8.31
9.14
10.09
11.04
11.88
12.56
13.14
13.76
14.65
15.96
17.91
20.32
22.90
25.38
27.58
29.57
31.68
34.32
37.81
42.54
48.15
54.10
59.83
64.97
69.58
74.14
79.34
85.71
93.76
103.00
112.62
121.73
129.77
136.75
143.30
150.75
157.77
166.64
177.95
191.79
206.97
220.57
228.25
225.36
208.53
176.87
132.76
80.05
23.07
-34.94
-92.44
-149.16
-205.23
-260.37
-313.74
-363.87
-409.83
-450.91
-486.50
-515.74
-537.23
-549.22
-549.96
-538.36
-514.20
-478.67
-433.89
-382.47
-327.03
-269.83
-212.58
-156.57
-102.87
-52.36
-6.05
35.20
70.76
100.43
124.41
143.25
157.65
168.30
175.71
180.22
182.04
181.41
178.64
174.18
168.50
162.04
155.08
147.76
140.10
132.15
124.03
115.94
108.15
100.84
94.00
87.42
80.80
73.86
66.53
59.05
51.91
45.63
40.56
36.65
33.40
30.07
25.96
20.80
14.89
9.06
4.35
1.50
0.57
0.82
1.02
-0.10
-3.14
-7.75
-12.78
-16.71
-18.27
-17.08
-13.72
-9.57
-6.59
-6.74
-11.22
-19.70
-29.50
-35.62
-32.13
-14.48
18.59
63.71
113.52
158.63
190.22
202.32
192.95
164.33
122.65
76.89
36.12
8.27
-2.15
4.73
24.62
50.99
77.25
97.98
109.28
107.99
91.97
60.99
18.27
-29.36
-73.10
-105.90
-124.08
-129.10
-126.32
-121.93
-120.14
-122.06
-126.35
-130.15
-132.58
-133.74
-134.31
-134.76
-134.72
-134.02
-130.87
-124.00
-113.06
-98.72
-82.03
-64.20
-46.23
-28.72
-11.55
4.87
19.97
33.10
43.57
51.04
55.56
57.54
57.72
56.79
55.28
53.42
51.08
48.05
44.42
40.52
36.87
33.86
31.61
29.81
27.86
25.18
21.50
17.14
12.83
9.38
7.27
6.30
5.67
4.29
1.35
-3.29
-8.89
-14.17
-18.01
-19.82
-19.86
-19.06
-18.57
-19.38
-22.30
-27.96
-36.45
-46.71
-55.90
-59.75
-54.03
-36.81
-10.18
19.91
45.70
60.82
62.63
53.08
37.09
20.06
5.64
-4.93
-12.07
-16.51
-18.28
-16.91
-11.83
-3.05
8.67
22.11
35.68
48.07
57.45
63.86
67.42
68.49
67.53
65.17
62.35
60.42
60.68
63.71
68.24
70.59
65.79
49.51
20.21
-19.64
-63.76
-103.80
-131.70
-141.97
-133.17
-107.90
-72.02
-33.05
1.93
27.93
43.06
48.40
47.04
42.41
37.22
32.94
30.16
29.22
30.19
32.76
36.11
39.04
40.56
40.37
38.93
37.23
36.42
37.07
39.02
41.81
44.66
47.02
48.53
49.06
48.73
48.41
49.46
53.08
59.14
65.00
66.07
57.26
35.92
3.00
-36.11
-74.24
-105.62
-127.83
-141.41
-147.70
-146.68
-135.93
-114.39
-83.25
-47.55
-14.81
8.57
20.67
24.98
27.81
33.97
43.47
51.17
49.97
34.89
6.51
-29.18
-63.74
-90.11
-104.90
-108.49
-103.18
-90.99
-72.96
-49.80
-23.20
3.82
27.01
43.42
52.10
54.08
51.46
46.01
39.28
32.40
26.63
23.45
24.17
29.49
38.69
49.13
56.53
55.64
42.01
13.84
-26.39
-71.51
-111.43
-136.34
-140.27
-123.31
-91.44
-53.89
-19.55
6.05
21.67
29.30
31.99
31.95
30.07
26.46
21.52
16.51
13.48
13.92
17.81
23.50
28.43
30.58
29.25
25.53
21.61
19.67
20.80
24.64
29.66
33.99
36.35
36.63
35.76
35.22
36.24
39.18
43.49
48.21
52.26
54.92
56.34
57.00
57.86
60.13
64.89
72.41
81.40
88.90
91.11
84.93
69.29
45.88
18.26
-9.65
-34.97
-56.50
-74.23
-88.40
-98.91
-105.47
-107.94
-107.16
-104.74
-102.37
-101.07
-100.80
-100.67
-99.56
-97.15
-92.76
-86.28
-78.21
-68.95
-59.01
-48.79
-38.58
-28.12
-17.95
-8.46
-0.05
6.91
12.30
16.11
18.58
19.92
20.50
20.54
20.26
19.70
18.88
17.89
16.85
15.94
15.24
14.71
14.09
13.16
11.75
9.84
7.69
5.73
4.33
3.62
3.38
2.99
1.82
-0.53
-3.99
-7.94
-11.48
-13.83
-14.68
-14.45
-14.17
-14.93
-17.48
-21.77
-26.92
-31.61
-34.78
-35.97
-35.60
-34.71
-34.41
-35.59
-38.88
-44.65
-52.78
-61.91
-68.97
-69.65
-59.86
-37.93
-6.10
29.77
62.29
85.58
97.36
99.37
95.60
89.99
84.75
80.21
75.81
71.35
67.55
65.19
64.62
64.97
64.62
62.37
58.14
53.59
51.03
51.83
55.19
57.69
54.49
41.51
17.42
-15.68
-52.83
-87.82
-114.71
-128.92
-127.86
-111.46
-82.45
-46.06
-9.05
22.37
44.33
56.37
60.86
61.28
60.38
59.30
58.23
56.90
55.79
55.87
57.82
61.57
66.40
71.41
75.72
78.31
77.88
72.95
62.34
45.95
25.18
2.63
-18.83
-37.03
-50.85
-60.14
-65.32
-66.81
-65.22
-61.57
-57.63
-55.25
-56.38
-62.16
-72.06
-83.24
-90.89
-89.61
-75.73
-49.54
-16.32
15.24
36.28
41.39
31.05
11.11
-10.11
-25.55
-31.64
-29.66
-23.39
-16.71
-11.96
-9.51
-8.68
-9.16
-11.44
-15.95
-21.82
-25.99
-23.48
-10.83
11.25
37.19
58.24
66.64
59.58
40.63
17.77
-0.42
-9.45
-9.99
-6.08
-1.93
0.47
1.67
3.23
5.96
9.15
11.03
10.24
6.50
0.88
-4.81
-9.13
-11.26
-11.58
-11.17
-11.30
-12.60
-14.81
-16.86
-17.44
-15.60
-11.15
-4.82
2.40
8.93
13.88
17.09
19.01
20.28
21.45
22.70
23.75
24.06
23.14
20.89
17.33
13.09
8.82
5.10
2.34
0.75
0.32
1.02
2.76
5.40
8.69
12.30
15.79
18.72
20.66
21.25
20.38
18.10
14.52
9.95
4.70
-0.88
-6.41
-10.95
-14.72
-17.60
-19.58
-20.74
-21.24
-21.20
-20.79
-20.10
-19.17
-18.14
-16.97
-15.74
-14.56
-13.54
-12.72
-12.15
-11.68
-11.17
-10.54
-9.64
-8.61
-7.67
-7.34
-7.59
-8.39
-9.48
-10.42
-10.90
-10.71
-10.09
-9.58
-9.79
-11.10
-13.49
-16.44
-19.09
-20.73
-21.04
-20.44
-19.85
-20.36
-22.64
-26.64
-31.55
-36.03
-39.14
-40.38
-40.24
-39.76
-40.09
-42.08
-46.33
-53.16
-62.32
-72.42
-80.54
-82.68
-75.19
-56.71
-29.51
0.95
27.94
46.35
54.53
54.41
49.83
44.27
39.38
34.89
29.88
24.02
18.02
13.13
10.22
9.02
8.36
6.80
3.26
-2.26
-8.83
-15.05
-19.66
-22.05
-22.38
-21.32
-19.68
-17.95
-16.00
-13.22
-8.81
-2.26
6.32
16.20
26.25
35.22
42.20
46.73
48.88
49.10
47.81
45.33
41.77
37.12
31.37
24.61
17.22
9.79
3.13
-2.21
-5.90
-7.90
-8.43
-7.87
-6.68
-5.24
-3.81
-2.14
-0.35
1.31
2.50
2.75
1.64
-1.00
-4.76
-8.78
-11.21
-10.91
-7.35
-0.77
7.76
16.75
24.83
31.29
36.47
42.19
49.48
58.69
69.18
79.50
87.91
93.40
96.10
93.29
88.64
85.09
84.06
85.66
89.32
94.16
98.77
100.56
96.01
82.28
57.29
22.32
-17.70
-56.00
-87.02
-108.97
-124.27
-137.36
-149.83
-160.51
-165.14
-158.92
-139.88
-110.76
-77.62
-49.67
-32.73
-27.01
-29.08
-33.49
-36.11
-35.73
-33.74
-32.46
-33.37
-35.73
-36.97
-35.11
-29.06
-18.87
-6.28
6.64
18.15
27.27
34.17
40.09
45.80
52.19
59.68
68.04
76.59
84.27
89.91
91.19
89.37
85.53
81.24
77.89
76.36
77.14
80.24
84.94
89.72
93.25
90.75
78.44
54.70
21.24
-16.71
-52.12
-78.94
-94.05
-98.23
-95.78
-91.19
-87.15
-83.49
-77.82
-66.52
-48.85
-26.54
-3.62
14.63
24.16
23.20
12.86
-3.44
-20.97
-35.32
-43.11
-42.27
-32.66
-15.86
4.86
25.12
40.84
49.62
51.07
47.08
40.02
32.06
24.83
19.30
15.69
14.16
14.98
17.72
21.79
25.40
26.93
25.83
22.67
17.79
11.39
3.49
-6.96
-18.12
-28.31
-34.20
-30.99
-14.58
14.82
52.21
89.22
115.56
124.40
113.39
86.08
51.05
21.11
5.57
4.84
12.50
15.44
10.89
-0.42
-17.19
-39.54
-65.24
-95.31
-131.29
-162.64
-180.86
-181.81
-168.69
-147.68
-123.51
-99.35
-77.45
-59.24
-44.40
-32.79
-27.75
-26.68
-27.12
-26.49
-23.74
-18.77
-12.57
-5.93
-0.88
8.76
22.35
36.65
49.36
54.69
53.13
45.32
31.51
10.39
-20.22
-59.09
-105.77
-150.96
-187.54
-211.40
-221.94
-218.33
-198.65
-161.34
-108.76
-48.06
11.13
58.74
89.39
103.23
105.24
101.76
97.44
93.63
89.48
84.27
77.48
70.14
63.70
59.40
57.60
57.67
57.99
57.02
54.10
48.91
42.18
35.23
29.69
26.92
27.33
30.05
33.39
35.63
35.38
32.44
27.98
24.30
24.03
29.27
40.45
56.42
74.44
90.49
99.97
98.94
85.84
62.44
34.05
8.21
-7.26
-7.16
8.44
33.72
58.67
73.35
71.87
54.77
28.13
0.91
-19.24
-29.22
-29.42
-24.38
-18.67
-14.62
-10.25
-3.49
5.88
15.44
20.86
18.70
8.33
-6.89
-20.80
-27.60
-24.60
-12.73
3.87
19.24
28.37
28.53
19.92
5.44
-11.41
-26.90
-36.96
-34.88
-16.97
16.09
58.26
99.98
132.40
149.65
151.44
143.11
133.66
131.54
140.87
159.29
176.35
189.04
198.67
207.44
218.49
229.85
237.58
238.44
231.70
219.38
205.77
193.91
184.91
177.95
167.07
146.52
113.44
69.15
17.89
-34.87
-85.44
-132.06
-174.61
-219.64
-272.42
-333.97
-400.32
-465.11
-522.63
-570.20
-607.70
-636.86
-667.31
-706.29
-755.14
-808.61
-858.48
-897.59
-921.97
-930.31
-878.77
-746.31
-542.36
-304.78
-76.38
115.93
264.26
372.59
449.57
503.10
532.57
538.10
523.69
497.57
469.44
445.84
429.33
419.75
414.05
403.39
381.06
345.25
299.19
247.88
194.37
138.24
86.85
45.11
12.92
-11.68
-30.74
-44.78
-53.10
-55.23
-51.57
-42.98
-31.93
-22.20
-16.41
-14.96
-16.19
-17.71
-17.95
-16.49
-13.62
-10.99
-10.38
-12.72
-17.52
-23.23
-28.18
-31.61
-33.75
-35.42
-38.08
-42.32
-48.04
-54.20
-59.55
-63.11
-64.90
-65.72
-66.67
-69.07
-73.69
-81.29
-91.79
-103.64
-113.25
-115.55
-105.56
-80.76
-44.55
-1.53
40.69
74.96
97.43
108.46
111.30
109.68
105.97
100.58
93.13
83.09
70.99
58.18
46.05
35.08
24.63
13.67
1.35
-11.90
-24.85
-35.63
-42.38
-44.28
-40.89
-32.80
-21.30
-7.86
6.33
20.26
33.04
43.76
51.55
55.59
55.16
49.96
40.14
26.35
9.47
-9.63
-30.18
-51.10
-71.08
-88.71
-102.57
-111.61
-115.60
-115.04
-111.46
-106.87
-102.44
-98.42
-93.99
-87.61
-77.90
-64.43
-47.77
-29.62
-11.88
5.12
22.58
43.34
71.18
109.99
160.09
221.60
293.81
369.09
438.00
488.83
510.10
494.50
442.37
362.42
269.54
179.24
102.74
45.23
5.62
-20.25
-36.59
-45.93
-49.53
-48.42
-44.69
-41.38
-40.62
-43.16
-47.86
-52.50
-54.94
-54.37
-51.52
-48.44
-47.42
-49.12
-53.91
-60.76
-67.84
-73.45
-76.66
-77.50
-76.75
-75.08
-72.68
-69.32
-64.46
-57.68
-48.92
-38.55
-26.81
-14.55
-2.13
10.52
23.36
36.07
47.70
56.85
62.09
62.54
57.78
48.42
35.29
19.15
0.05
-22.48
-48.97
-77.80
-108.15
-139.51
-170.98
-200.66
-224.97
-239.01
-237.94
-219.31
-185.09
-141.98
-99.30
-65.32
-44.37
-35.79
-35.61
-39.00
-42.56
-44.99
-46.20
-46.17
-43.75
-37.65
-25.87
-8.13
14.08
38.20
61.33
81.61
97.75
109.30
116.11
117.96
114.07
103.45
85.39
58.84
26.20
-9.52
-45.10
-77.56
-104.70
-125.44
-139.55
-147.28
-149.69
-146.23
-136.66
-120.87
-99.01
-71.71
-40.21
-6.22
28.43
60.46
88.32
110.89
127.68
138.72
144.44
145.50
142.70
136.95
129.11
120.41
111.50
102.78
94.46
86.60
79.19
72.16
65.40
58.85
52.78
47.22
42.14
37.49
33.21
29.26
25.52
21.99
18.63
15.58
12.86
10.48
8.40
6.63
5.12
3.76
2.57
1.43
0.44
-0.41
-1.09
-1.58
-1.85
-1.51
-0.91
-0.16
0.62
1.46
2.35
3.28
4.27
5.28
6.22
6.84
7.26
6.93
5.63
3.32
0.14
-3.59
-7.37
-10.77
-13.53
-15.50
-16.78
-17.49
-17.72
-17.47
-16.61
-15.03
-12.81
-10.25
-7.88
-6.29
-5.82
-6.41
-7.51
-8.26
-7.81
-5.70
-2.04
2.48
6.85
10.37
12.82
14.59
16.40
19.01
22.75
27.69
33.64
40.20
46.56
51.23
52.26
47.94
37.86
23.50
7.85
-5.88
-15.73
-21.84
-26.11
-30.73
-36.75
-43.37
-48.52
-50.15
-47.51
-41.46
-33.93
-26.79
-20.80
-15.40
-9.16
-0.64
10.83
24.68
39.12
51.93
61.16
65.72
65.57
61.67
55.75
50.20
47.49
49.43
56.38
66.35
75.18
77.51
68.61
46.07
10.53
-34.74
-85.16
-136.14
-183.81
-225.19
-258.04
-280.88
-293.25
-296.00
-291.12
-281.01
-267.41
-250.83
-230.66
-205.91
-176.37
-143.13
-108.42
-74.77
-43.85
-15.92
9.99
35.43
61.59
88.65
115.69
141.24
163.95
182.94
197.83
208.47
214.69
216.28
213.23
206.06
195.90
184.24
172.56
161.89
152.77
145.34
139.32
133.95
127.65
118.13
102.77
79.63
48.33
10.51
-30.79
-72.36
-112.03
-149.36
-185.10
-220.03
-253.53
-282.87
-303.74
-311.87
-305.00
-284.23
-254.00
-220.56
-189.74
-164.89
-146.07
-130.70
-115.14
-96.18
-71.96
-42.20
-7.89
28.95
65.44
98.13
123.73
140.06
146.93
146.22
141.00
134.29
127.93
122.36
117.17
111.88
106.53
101.42
96.62
91.70
85.98
79.24
72.30
66.94
65.17
68.11
75.29
84.72
93.68
99.89
102.21
100.70
96.27
89.99
82.72
75.04
67.34
59.96
53.25
47.52
42.98
39.85
38.38
38.82
41.39
46.05
52.31
59.38
66.48
73.15
79.37
85.36
91.12
96.17
99.48
99.76
95.99
87.73
75.27
59.50
41.70
23.22
5.60
-9.64
-21.22
-28.20
-30.46
-28.71
-24.32
-18.79
-13.32
-8.59
-5.12
-3.83
-6.50
-15.79
-34.39
-63.65
-102.38
-146.66
-190.58
-228.17
-255.24
-270.15
-273.75
-268.33
-256.74
-241.70
-225.77
-211.19
-199.63
-191.65
-186.27
-181.17
-173.33
-160.11
-140.29
-114.33
-84.29
-53.03
-23.55
1.73
21.34
34.99
43.49
48.38
51.37
53.87
56.58
59.56
62.45
64.69
66.05
66.69
67.06
67.85
69.67
72.86
77.34
82.58
87.67
91.53
93.19
92.13
88.57
83.47
78.36
74.93
74.38
76.91
81.45
85.93
87.77
84.86
76.20
62.25
44.83
26.59
10.10
-2.79
-11.47
-16.62
-19.91
-23.36
-28.84
-37.36
-48.84
-62.16
-75.52
-87.14
-95.98
-102.29
-107.60
-113.97
-122.87
-134.12
-145.45
-153.23
-153.90
-145.55
-128.69
-105.86
-80.42
-55.17
-31.57
-9.96
9.83
27.74
43.37
56.43
67.04
76.01
84.41
92.96
101.66
109.73
115.96
119.29
119.10
115.44
108.89
100.46
91.43
83.30
77.69
76.00
78.96
86.32
96.68
107.78
117.20
123.05
124.46
121.82
116.52
110.44
105.47
102.85
102.80
104.17
104.52
100.80
90.32
71.86
46.24
16.19
-14.52
-42.20
-64.11
-78.87
-86.28
-86.98
-82.06
-72.95
-61.21
-48.52
-36.27
-25.36
-16.08
-8.26
-1.63
3.87
7.84
9.57
8.39
4.08
-2.77
-10.85
-18.55
-24.65
-28.76
-31.54
-34.15
-37.66
-42.28
-47.29
-51.39
-53.39
-52.91
-50.47
-47.10
-43.74
-40.65
-37.31
-32.97
-27.23
-20.53
-14.06
-9.21
-6.81
-6.68
-7.69
-8.40
-7.76
-5.62
-2.63
0.32
2.60
4.17
5.49
7.09
9.18
11.49
13.36
13.97
12.72
9.49
4.70
-0.79
-5.94
-9.99
-12.71
-14.48
-16.01
-17.90
-20.19
-22.31
-23.39
-22.87
-20.77
-17.75
-14.73
-12.46
-11.34
-11.41
-12.42
-14.05
-15.76
-16.82
-16.42
-13.97
-9.37
-3.14
3.75
10.25
15.58
19.37
21.55
22.25
21.67
20.09
17.87
15.40
12.98
10.70
8.46
6.07
3.46
0.61
-2.36
-5.35
-8.21
-10.69
-12.48
-13.20
-12.78
-11.55
-10.24
-9.64
-10.24
-11.87
-13.76
-14.84
-14.21
-11.46
-6.90
-1.24
4.57
9.75
13.75
16.30
17.28
16.71
14.71
11.47
7.28
2.48
-2.59
-7.63
-12.36
-16.48
-19.59
-21.19
-20.85
-18.32
-13.83
-8.05
-1.90
3.66
8.00
10.94
12.71
13.70
14.32
14.78
15.10
15.20
14.99
14.50
13.93
13.51
13.43
13.77
14.48
15.43
16.44
17.30
17.90
18.26
18.37
18.18
17.64
16.80
15.80
14.89
14.22
13.91
14.10
14.61
14.95
14.67
13.72
12.58
12.00
12.61
14.65
18.20
22.53
26.30
28.37
28.66
28.25
28.76
31.70
37.83
47.58
59.71
71.73
80.98
85.96
86.86
85.08
82.54
81.09
82.83
87.87
93.90
97.04
93.48
80.59
57.25
24.25
-21.56
-75.46
-126.87
-165.57
-187.97
-196.80
-197.10
-193.07
-186.86
-179.36
-170.01
-159.37
-149.36
-142.43
-140.66
-144.06
-152.75
-166.95
-186.27
-207.74
-226.64
-237.49
-235.91
-219.28
-188.52
-148.23
-104.36
-61.32
-22.02
11.44
37.56
54.92
64.33
67.66
67.49
66.64
67.43
70.95
76.23
80.60
81.27
79.77
79.12
81.65
87.63
95.92
105.62
116.95
130.71
147.30
169.77
199.54
235.35
274.09
313.30
352.96
394.84
440.75
467.33
458.58
413.19
345.48
272.53
202.86
136.85
72.35
9.14
-49.86
-96.09
-123.47
-131.62
-126.17
-115.76
-106.82
-100.93
-96.21
-90.66
-80.43
-65.44
-48.48
-33.34
-23.34
-18.54
-15.24
-8.73
3.21
22.00
43.67
61.85
70.70
65.60
44.94
11.87
-27.96
-69.68
-108.37
-144.02
-178.31
-200.22
-201.96
-183.36
-150.66
-112.38
-87.14
-75.03
-75.27
-87.53
-112.24
-142.89
-176.30
-208.10
-232.96
-246.41
-244.63
-229.10
-203.81
-173.30
-142.37
-114.77
-90.95
-69.51
-49.45
-29.96
-13.16
-1.11
5.85
8.59
8.38
7.32
7.12
8.28
11.06
14.46
17.88
21.60
25.93
30.44
34.65
37.92
39.56
39.59
37.98
35.17
31.89
28.66
25.33
21.61
17.31
12.52
7.96
4.69
3.83
6.10
11.38
18.44
25.47
30.79
33.39
33.34
31.54
29.16
27.14
25.83
25.07
24.46
23.66
22.42
20.58
17.98
14.57
10.52
6.34
2.77
0.54
-0.03
0.78
2.31
3.77
4.53
4.38
3.44
1.94
0.16
-1.66
-3.20
-4.04
-3.85
-2.58
-0.62
1.20
1.98
1.08
-1.51
-5.18
-8.93
-11.85
-13.45
-13.79
-13.26
-12.37
-11.52
-10.96
-10.83
-11.16
-11.85
-12.51
-12.46
-10.96
-7.61
-2.51
3.53
9.31
13.70
15.96
15.99
14.20
11.19
7.60
3.94
0.62
-2.14
-4.24
-5.89
-7.41
-9.15
-11.17
-13.12
-14.40
-14.35
-12.75
-9.87
-6.45
-3.30
-0.99
0.35
1.03
1.44
1.87
2.35
2.68
2.49
1.41
-0.74
-3.93
-7.72
-11.36
-13.86
-14.25
-11.93
-6.92
0.04
7.83
15.15
21.02
24.85
26.56
26.33
24.60
21.86
18.65
15.46
12.60
10.20
8.13
6.12
3.89
1.42
-1.00
-2.90
-3.68
-2.88
-0.33
3.75
8.80
13.98
18.37
21.19
21.94
20.64
17.74
14.04
10.43
7.62
5.95
5.33
5.36
5.49
5.31
4.70
3.73
2.72
2.04
2.01
2.85
4.59
7.08
9.94
12.60
14.44
15.03
14.29
12.54
10.35
8.38
7.02
6.36
6.21
6.24
6.23
6.10
5.83
5.49
5.00
4.21
2.96
1.16
-1.10
-3.59
-6.00
-8.13
-9.86
-11.18
-12.18
-12.89
-13.41
-13.84
-14.40
-15.28
-16.50
-17.83
-18.76
-18.72
-17.26
-14.32
-10.26
-5.67
-1.19
2.68
5.70
7.78
8.98
9.40
9.20
8.56
7.70
6.86
6.23
6.01
6.21
6.80
7.61
8.41
9.04
9.42
9.57
9.58
9.55
9.46
9.25
8.78
7.98
6.82
5.40
3.84
2.28
0.83
-0.44
-1.54
-2.45
-3.13
-3.50
-3.39
-2.57
-0.94
1.46
4.28
7.00
9.06
10.03
9.78
8.51
6.64
4.68
2.99
1.76
0.94
0.32
-0.40
-1.54
-3.32
-5.86
-8.98
-12.21
-14.86
-16.22
-15.82
-13.64
-10.19
-6.19
-2.45
0.52
2.52
3.63
4.04
3.96
3.53
2.90
2.19
1.51
0.98
0.66
0.58
0.75
1.17
1.78
2.51
3.26
4.00
4.71
5.36
5.90
6.23
6.29
6.07
5.70
5.35
5.08
4.84
4.38
3.47
2.04
0.21
-1.68
-3.31
-4.50
-5.30
-5.89
-6.41
-6.90
-7.25
-7.34
-7.10
-6.65
-6.19
-5.96
-6.07
-6.56
-7.40
-8.51
-9.86
-11.31
-12.56
-13.15
-12.56
-10.40
-6.68
-1.87
3.22
7.67
10.80
12.34
12.46
11.60
10.27
8.87
7.69
6.86
6.42
6.28
6.33
6.40
6.35
6.15
5.84
5.54
5.36
5.37
5.59
5.97
6.45
6.92
7.26
7.32
6.97
6.11
4.82
3.26
1.70
0.41
-0.40
-0.63
-0.37
0.18
0.72
0.97
0.72
-0.08
-1.32
-2.81
-4.31
-5.66
-6.75
-7.56
-8.14
-8.57
-9.02
-9.67
-10.68
-12.05
-13.53
-14.59
-14.61
-13.09
-9.91
-5.45
-0.42
4.25
7.89
10.15
11.09
10.98
10.21
9.11
7.90
6.75
5.68
4.67
3.71
2.80
2.05
1.60
1.62
2.13
2.98
3.87
4.49
4.70
4.54
4.14
3.67
3.23
2.84
2.50
2.31
2.40
2.90
3.72
4.62
5.15
4.99
4.04
2.53
0.88
-0.48
-1.29
-1.57
-1.52
-1.45
-1.63
-2.18
-3.14
-4.39
-5.78
-7.10
-8.18
-8.92
-9.41
-9.84
-10.43
-11.22
-11.96
-12.18
-11.34
-9.18
-5.84
-1.86
1.97
5.00
6.92
7.80
7.96
7.76
7.43
7.10
6.82
6.71
6.87
7.34
8.05
8.85
9.52
9.94
10.11
10.15
10.22
10.48
10.98
11.65
12.24
12.38
11.75
10.24
8.04
5.65
3.62
2.33
1.77
1.65
1.60
1.35
0.96
0.61
0.51
0.72
1.19
1.81
2.44
2.98
3.13
2.46
0.60
-2.68
-7.14
-12.23
-17.17
-21.31
-24.32
-26.15
-27.00
-27.11
-26.73
-26.09
-25.43
-24.81
-24.07
-22.83
-20.62
-17.18
-12.71
-7.87
-3.52
-0.41
1.16
1.40
0.83
-0.00
-0.70
-1.14
-1.34
-1.28
-0.97
-0.35
0.54
1.56
2.52
3.20
3.47
3.39
3.11
2.81
2.58
2.40
2.18
1.87
1.42
0.92
0.51
0.35
0.49
0.92
1.59
2.36
3.15
3.87
4.48
4.95
5.25
5.35
5.24
4.99
4.72
4.57
4.59
4.73
4.81
4.56
3.82
2.61
1.14
-0.23
-1.18
-1.54
-1.42
-1.14
-1.14
-1.84
-3.43
-5.85
-8.70
-11.33
-13.02
-13.23
-11.78
-8.92
-5.29
-1.66
1.35
3.38
4.44
4.81
4.81
4.66
4.47
4.19
3.78
3.25
2.79
2.64
3.07
4.21
5.92
7.88
9.65
10.89
11.50
11.56
11.26
10.77
10.15
9.37
8.43
7.35
6.23
5.21
4.38
3.81
3.51
3.49
3.68
3.98
4.22
4.21
3.84
3.11
2.10
0.97
-0.17
-1.28
-2.34
-3.39
-4.46
-5.61
-6.94
-8.50
-10.23
-11.87
-12.96
-12.97
-11.55
-8.72
-4.98
-1.08
2.21
4.43
5.52
5.68
5.29
4.67
4.04
3.48
3.08
2.88
2.91
3.13
3.46
3.79
4.03
4.18
4.26
4.30
4.23
3.99
3.48
2.64
1.52
0.21
-1.09
-2.21
-3.08
-3.72
-4.21
-4.63
-4.94
-5.11
-5.18
-5.30
-5.63
-6.22
-6.87
-7.13
-6.59
-5.11
-2.98
-0.76
0.93
1.86
2.18
2.27
2.38
2.42
2.01
0.78
-1.37
-4.06
-6.58
-8.14
-8.19
-6.57
-3.59
0.09
3.71
6.56
8.17
8.48
7.75
6.47
5.15
4.12
3.48
3.15
3.00
2.93
2.93
3.06
3.37
3.84
4.38
4.86
5.18
5.30
5.19
4.91
4.47
3.90
3.22
2.49
1.77
1.13
0.60
0.16
-0.22
-0.53
-0.68
-0.54
-0.10
0.49
0.97
1.07
0.66
-0.14
-1.02
-1.70
-1.98
-1.91
-1.75
-1.75
-2.06
-2.68
-3.40
-4.07
-4.63
-5.08
-5.47
-5.77
-5.94
-5.90
-5.72
-5.68
-6.11
-7.21
-8.81
-10.28
-10.77
-9.67
-6.83
-2.81
1.45
5.00
7.25
8.12
7.93
7.20
6.37
5.72
5.37
5.32
5.51
5.83
6.21
6.51
6.66
6.60
6.29
5.74
4.95
4.04
3.16
2.47
2.07
1.91
1.83
1.68
1.36
0.89
0.49
0.35
0.59
1.17
1.93
2.67
3.27
3.67
3.81
3.72
3.35
2.73
1.98
1.33
1.06
1.31
2.03
2.91
3.58
3.71
3.23
2.29
1.18
0.13
-0.75
-1.57
-2.53
-3.75
-5.30
-7.06
-8.82
-10.39
-11.59
-12.40
-12.83
-13.03
-13.13
-13.31
-13.72
-14.36
-15.15
-15.81
-15.91
-15.04
-12.95
-9.66
-5.53
-1.07
3.14
6.67
9.28
10.90
11.62
11.60
11.08
10.25
9.34
8.47
7.68
6.97
6.36
5.90
5.70
5.76
6.01
6.24
6.31
6.12
5.79
5.49
5.34
5.34
5.31
5.08
4.54
3.79
3.02
2.44
2.15
2.11
2.21
2.34
2.46
2.54
2.55
2.42
2.08
1.55
0.90
0.34
0.09
0.33
1.07
2.19
3.43
4.51
5.27
5.61
5.58
5.27
4.75
3.96
2.82
1.25
-0.62
-2.47
-3.81
-4.14
-3.24
-1.25
1.32
3.79
5.54
6.34
6.31
5.82
5.31
5.02
4.95
4.96
4.89
4.69
4.37
4.04
3.74
3.53
3.43
3.39
3.33
3.15
2.76
2.15
1.45
0.83
0.45
0.34
0.38
0.32
-0.05
-0.79
-1.78
-2.77
-3.48
-3.69
-3.39
-2.71
-1.86
-1.10
-0.60
-0.45
-0.65
-1.19
-2.06
-3.21
-4.57
-6.01
-7.34
-8.46
-9.40
-10.36
-11.61
-13.27
-15.17
-16.82
-17.52
-16.67
-14.02
-9.85
-4.84
0.08
4.11
6.79
8.08
8.28
7.87
7.29
6.89
6.78
6.92
7.16
7.31
7.18
6.70
5.90
4.92
3.94
3.15
2.65
2.46
2.49
2.64
2.73
2.65
2.36
1.88
1.32
0.82
0.44
0.19
-0.00
-0.19
-0.36
-0.51
-0.57
-0.56
-0.49
-0.43
-0.43
-0.47
-0.54
-0.63
-0.84
-1.25
-1.95
-2.94
-4.05
-5.08
-5.85
-6.27
-6.45
-6.63
-7.11
-8.09
-9.52
-11.08
-12.17
-12.24
-10.94
-8.35
-4.98
-1.49
1.46
3.53
4.68
5.15
5.20
5.13
5.12
5.30
5.74
6.42
7.21
7.87
8.17
7.92
7.13
5.85
4.21
2.36
0.37
-1.63
-3.49
-5.06
-6.25
-7.00
-7.38
-7.47
-7.36
-7.09
-6.69
-6.13
-5.47
-4.76
-4.08
-3.48
-3.03
-2.76
-2.75
-3.04
-3.62
-4.36
-5.06
-5.55
-5.77
-5.86
-5.98
-6.33
-6.87
-7.40
-7.66
-7.53
-7.04
-6.47
-6.15
-6.29
-6.98
-8.15
-9.66
-11.30
-12.78
-13.71
-13.67
-12.28
-9.44
-5.41
-0.79
3.67
7.34
9.84
11.15
11.48
11.14
10.46
9.70
9.12
8.91
9.07
9.49
9.93
10.11
9.83
8.99
7.61
5.82
3.83
1.95
0.66
0.61
2.30
5.76
10.49
15.52
19.86
22.82
24.20
24.34
23.76
22.88
21.79
20.43
18.99
18.11
18.51
20.65
24.47
29.38
34.33
37.97
39.25
38.16
35.74
33.45
32.51
33.44
35.98
39.14
41.16
40.38
36.28
29.79
22.67
16.89
14.27
16.20
22.80
32.03
39.91
42.01
34.70
15.94
-14.31
-53.95
-97.51
-134.72
-155.93
-158.55
-147.23
-128.64
-107.55
-86.36
-66.31
-48.21
-33.15
-22.52
-16.96
-15.33
-15.09
-13.72
-10.16
-5.16
-0.21
3.15
3.87
2.24
-0.02
-0.70
1.47
5.83
9.71
10.85
7.63
-0.61
-13.58
-29.93
-47.41
-63.09
-72.18
-71.83
-60.59
-39.73
-13.54
12.40
33.47
47.77
56.53
62.66
67.96
71.81
71.16
62.33
44.53
21.87
2.42
-5.08
4.55
29.24
60.77
87.95
101.69
98.47
81.25
56.89
32.55
13.12
-0.43
-9.66
-16.90
-23.80
-30.79
-37.22
-42.67
-47.84
-52.16
-56.47
-61.73
-67.89
-73.54
-78.11
-78.69
-74.92
-70.42
-70.40
-79.53
-99.55
-128.68
-162.88
-197.48
-228.97
-251.56
-263.15
-264.36
-259.29
-254.61
-257.22
-271.02
-294.14
-318.71
-334.36
-333.52
-314.49
-282.38
-246.01
-213.20
-187.17
-166.20
-145.89
-122.99
-97.45
-71.36
-46.98
-25.01
-3.88
19.33
47.17
80.55
118.13
156.68
193.01
225.07
252.75
277.67
302.29
328.85
358.83
392.80
430.42
470.56
510.90
547.66
576.04
591.43
591.08
575.14
546.61
509.62
467.61
421.91
371.73
315.48
252.16
182.10
106.60
27.49
-52.90
-130.97
-201.03
-255.54
-286.84
-289.63
-262.77
-209.71
-137.15
-53.16
34.31
118.13
191.95
250.45
290.00
309.44
310.48
297.02
273.94
245.89
216.65
188.86
164.04
142.10
121.13
97.49
67.04
27.15
-21.57
-74.78
-125.92
-168.73
-199.82
-219.88
-233.05
-244.74
-259.15
-277.51
-297.88
-316.25
-328.22
-330.62
-322.37
-304.20
-278.07
-246.40
-211.77
-176.95
-144.89
-118.32
-98.97
-86.85
-80.05
-75.45
-70.07
-62.29
-52.28
-41.48
-31.54
-23.55
-17.96
-14.92
-14.89
-18.45
-25.81
-35.94
-46.40
-53.84
-55.16
-48.65
-34.48
-14.77
7.37
28.74
46.87
60.42
69.08
73.28
73.84
71.80
68.19
63.95
59.72
55.58
50.85
44.32
34.73
21.33
4.50
-14.38
-33.20
-49.97
-63.42
-73.37
-80.77
-87.22
-94.58
-104.35
-117.20
-132.43
-147.64
-159.05
-162.32
-154.05
-133.06
-101.02
-61.83
-20.24
19.77
55.94
87.67
115.35
139.47
160.10
176.97
189.73
198.29
202.94
204.24
202.74
198.92
193.08
185.32
175.64
164.10
150.81
135.93
119.50
101.44
81.56
59.92
37.01
14.08
-7.06
-24.51
-36.74
-43.27
-44.99
-44.10
-43.45
-45.70
-52.37
-63.31
-76.94
-90.95
-103.35
-113.13
-120.25
-125.04
-127.60
-127.60
-124.40
-117.84
-108.51
-97.66
-86.72
-76.69
-67.89
-60.01
-52.70
-45.75
-39.45
-34.40
-31.13
-29.82
-30.20
-31.59
-33.21
-34.45
-34.94
-34.67
-33.69
-32.08
-29.73
-26.45
-22.16
-16.96
-11.18
-5.32
0.12
4.77
8.50
11.25
13.07
13.96
13.85
12.65
10.35
7.14
3.55
0.36
-1.67
-2.17
-1.42
-0.36
-0.28
-2.20
-6.44
-12.34
-18.58
-23.76
-27.08
-28.74
-29.76
-31.40
-34.40
-38.59
-42.93
-46.08
-47.10
-45.82
-42.89
-39.37
-36.28
-34.33
-33.91
-35.03
-37.15
-38.80
-37.29
-29.34
-12.36
13.86
46.29
79.28
106.55
123.73
129.89
127.40
120.22
111.83
103.81
95.99
87.55
78.24
68.87
60.87
55.24
51.88
49.70
47.24
43.48
38.44
33.02
28.59
26.28
26.35
28.01
29.61
29.32
25.86
19.08
10.05
0.62
-7.40
-12.96
-16.10
-17.68
-18.89
-20.56
-22.86
-25.40
-27.46
-28.60
-28.82
-28.66
-28.89
-30.17
-32.64
-35.79
-38.64
-40.14
-39.68
-37.38
-33.97
-30.51
-27.77
-25.92
-24.49
-22.63
-19.66
-15.30
-9.84
-3.92
1.73
6.61
10.63
14.01
17.04
19.83
22.13
23.32
22.86
20.52
16.71
12.39
8.70
6.44
5.78
6.20
6.82
6.95
6.41
5.58
4.96
4.82
4.97
4.92
4.23
2.81
0.85
-1.26
-3.33
-5.41
-7.69
-10.23
-12.82
-14.97
-16.27
-16.63
-16.34
-15.94
-15.82
-16.10
-16.53
-16.74
-16.44
-15.60
-14.48
-13.41
-12.65
-12.07
-11.31
-9.88
-7.49
-4.18
-0.43
3.13
6.00
7.97
9.19
10.00
10.64
11.20
11.57
11.57
11.19
10.65
10.27
10.39
11.17
12.46
13.94
15.16
15.78
15.62
14.82
13.64
12.37
11.18
9.92
8.27
5.86
2.55
-1.49
-5.71
-9.52
-12.57
-14.84
-16.74
-18.66
-20.80
-23.01
-24.92
-26.25
-26.99
-27.30
-27.38
-27.25
-26.70
-25.52
-23.70
-21.59
-19.59
-17.94
-16.32
-13.97
-10.07
-4.24
3.13
10.92
17.79
22.78
25.67
26.98
27.52
27.93
28.34
28.48
27.94
26.57
24.58
22.39
20.40
18.63
16.89
14.85
12.28
9.23
6.00
2.96
0.42
-1.48
-2.85
-3.92
-5.07
-6.57
-8.55
-10.97
-13.59
-16.04
-17.80
-18.32
-17.17
-14.19
-9.66
-4.35
0.66
4.34
6.03
5.72
3.94
1.43
-1.21
-3.71
-6.13
-8.58
-10.95
-12.79
-13.44
-12.36
-9.32
-4.63
1.02
6.78
11.91
16.06
19.25
21.78
24.00
26.12
28.07
29.58
30.44
30.59
30.16
29.47
28.80
28.29
27.87
27.31
26.36
24.89
22.94
20.65
18.19
15.66
13.09
10.45
7.77
5.09
2.55
0.27
-1.72
-3.42
-4.87
-6.10
-7.02
-7.56
-7.71
-7.57
-7.34
-7.29
-7.57
-8.25
-9.24
-10.24
-10.92
-10.94
-10.12
-8.47
-6.24
-3.77
-1.49
0.26
1.37
1.98
2.34
2.65
3.00
3.21
3.12
2.56
1.62
0.56
-0.29
-0.69
-0.57
-0.09
0.50
0.98
1.21
1.17
0.93
0.58
0.25
0.03
-0.00
0.12
0.26
0.20
-0.27
-1.30
-2.87
-4.82
-6.80
-8.48
-9.64
-10.26
-10.49
-10.61
-10.75
-10.93
-11.02
-10.85
-10.31
-9.55
-8.82
-8.34
-8.14
-7.96
-7.37
-6.04
-3.98
-1.54
0.66
2.13
2.71
2.61
2.36
2.39
2.89
3.71
4.50
4.95
4.96
4.60
4.03
3.45
2.98
2.69
2.60
2.68
2.78
2.70
2.18
1.01
-0.83
-3.09
-5.35
-7.14
-8.15
-8.33
-7.89
-7.22
-6.61
-6.34
-6.46
-6.93
-7.65
-8.54
-9.55
-10.56
-11.42
-11.94
-12.03
-11.66
-10.95
-10.08
-9.16
-8.20
-7.10
-5.69
-3.95
-1.95
0.03
1.72
2.95
3.69
4.07
4.17
4.11
3.94
3.76
3.78
4.22
5.22
6.78
8.70
10.70
12.47
13.86
14.77
15.18
15.10
14.53
13.57
12.33
10.94
9.53
8.18
6.90
5.72
4.62
3.61
2.69
1.91
1.28
0.84
0.57
0.34
-0.08
-0.98
-2.51
-4.62
-7.01
-9.28
-11.00
-11.95
-12.07
-11.45
-10.31
-8.83
-7.25
-5.75
-4.44
-3.32
-2.38
-1.55
-0.83
-0.28
0.04
0.13
0.06
-0.07
-0.19
-0.34
-0.61
-1.00
-1.36
-1.45
-1.02
0.01
1.47
2.98
4.13
4.65
4.58
4.13
3.56
2.99
2.35
1.46
0.13
-1.61
-3.58
-5.41
-6.68
-7.14
-6.74
-5.66
-4.18
-2.60
-1.11
0.23
1.45
2.63
3.84
5.09
6.26
7.23
7.91
8.28
8.38
8.30
8.08
7.72
7.17
6.33
5.18
3.81
2.43
1.32
0.67
0.51
0.73
1.07
1.30
1.31
1.13
0.95
0.95
1.22
1.70
2.29
2.84
3.31
3.66
3.88
3.99
3.93
3.71
3.32
2.79
2.19
1.51
0.71
-0.29
-1.59
-3.15
-4.81
-6.26
-7.10
-7.01
-5.89
-3.84
-1.28
1.29
3.43
4.90
5.70
5.96
5.84
5.44
4.81
4.02
3.16
2.34
1.64
1.06
0.52
-0.14
-1.01
-2.00
-2.95
-3.70
-4.13
-4.30
-4.41
-4.69
-5.34
-6.42
-7.83
-9.39
-10.84
-11.88
-12.25
-11.79
-10.48
-8.48
-6.10
-3.71
-1.72
-0.35
0.36
0.54
0.37
0.00
-0.53
-1.20
-1.98
-2.71
-3.16
-3.14
-2.59
-1.66
-0.60
0.34
1.05
1.55
1.99
2.48
3.08
3.74
4.38
4.89
5.20
5.21
4.89
4.28
3.53
2.80
2.25
2.00
2.02
2.19
2.34
2.38
2.25
1.98
1.58
1.09
0.54
-0.04
-0.63
-1.15
-1.51
-1.57
-1.31
-0.80
-0.18
0.31
0.53
0.34
-0.16
-0.87
-1.66
-2.42
-3.16
-3.86
-4.54
-5.11
-5.47
-5.47
-5.12
-4.48
-3.73
-3.11
-2.75
-2.71
-2.92
-3.21
-3.42
-3.41
-3.09
-2.34
-1.11
0.71
3.08
5.78
8.45
10.74
12.36
13.22
13.51
13.44
13.29
13.19
13.12
13.01
12.74
12.23
11.47
10.52
9.44
8.34
7.34
6.55
6.07
5.91
6.01
6.16
6.16
5.88
5.40
5.01
5.05
5.68
6.71
7.60
7.76
6.75
4.57
1.67
-1.21
-3.35
-4.33
-4.19
-3.41
-2.64
-2.52
-3.38
-5.14
-7.36
-9.42
-10.70
-10.83
-9.81
-8.01
-6.01
-4.49
-3.98
-4.71
-6.61
-9.29
-12.24
-14.99
-17.33
-19.39
-21.49
-23.96
-26.98
-30.36
-33.61
-36.09
-37.16
-36.53
-34.26
-30.77
-26.66
-22.48
-18.67
-15.41
-12.77
-10.81
-9.61
-9.23
-9.73
-10.96
-12.61
-14.23
-15.29
-15.40
-14.45
-12.71
-10.62
-8.75
-7.55
-7.23
-7.74
-8.86
-10.28
-11.76
-13.12
-14.24
-15.11
-15.71
-16.17
-16.65
-17.44
-18.77
-20.68
-22.90
-24.65
-24.93
-22.82
-17.83
-10.28
-1.19
7.97
15.86
21.64
25.21
26.91
27.32
26.97
26.10
24.86
23.31
21.51
19.48
17.24
14.67
11.74
8.57
5.43
2.75
0.93
0.14
0.28
1.12
2.29
3.60
4.94
6.21
7.32
8.15
8.47
8.23
7.40
5.99
4.08
1.70
-1.08
-3.99
-6.69
-8.73
-9.64
-9.17
-7.32
-4.32
-0.61
3.25
6.83
9.84
12.29
14.41
16.41
18.34
20.08
21.45
22.39
23.09
23.89
25.13
26.85
28.81
30.56
31.75
32.15
31.64
30.20
27.82
24.65
21.10
17.76
15.21
13.63
12.73
11.85
10.36
7.94
4.77
1.37
-1.76
-4.32
-6.31
-7.91
-9.31
-10.54
-11.51
-11.95
-11.47
-9.65
-6.21
-1.38
4.14
9.12
12.34
13.02
11.28
8.14
5.06
3.29
3.43
5.33
8.31
11.56
14.55
17.09
19.24
21.16
22.90
24.46
25.78
26.85
27.75
28.58
29.39
30.09
30.46
30.20
29.01
26.70
23.07
17.93
11.07
2.44
-7.76
-18.81
-29.66
-39.08
-46.13
-50.43
-52.15
-51.87
-50.20
-47.54
-44.09
-40.09
-35.87
-31.95
-28.85
-26.83
-25.78
-25.29
-24.79
-23.87
-22.36
-20.30
-17.78
-14.94
-11.87
-8.69
-5.71
-3.17
-1.29
-0.00
0.87
1.62
2.39
3.14
3.69
3.88
3.70
3.28
2.84
2.54
2.42
2.43
2.52
2.71
3.00
3.47
4.10
4.80
5.44
5.87
5.97
5.71
5.16
4.44
3.78
3.36
3.27
3.48
3.79
3.91
3.53
2.54
1.03
-0.70
-2.25
-3.29
-3.70
-3.64
-3.47
-3.60
-4.30
-5.54
-7.01
-8.24
-8.81
-8.51
-7.33
-5.53
-3.43
-1.38
0.30
1.52
2.33
2.90
3.55
4.45
5.60
6.83
7.80
8.23
8.06
7.50
6.86
6.46
6.42
6.61
6.79
6.76
6.43
5.90
5.26
4.54
3.72
2.77
1.68
0.55
-0.40
-0.99
-1.04
-0.51
0.51
1.84
3.18
4.21
4.71
4.63
4.15
3.53
3.02
2.69
2.42
2.01
1.35
0.49
-0.38
-1.02
-1.35
-1.39
-1.30
-1.27
-1.41
-1.71
-2.12
-2.50
-2.86
-3.17
-3.49
-3.86
-4.33
-4.83
-5.30
-5.66
-5.84
-5.84
-5.64
-5.23
-4.54
-3.46
-1.90
0.05
2.21
4.30
6.04
7.30
8.09
8.54
8.75
8.81
8.64
8.20
7.43
6.42
5.29
4.26
3.43
2.89
2.58
2.45
2.39
2.37
2.31
2.19
1.98
1.69
1.35
1.03
0.80
0.69
0.66
0.62
0.49
0.23
-0.19
-0.67
-1.14
-1.53
-1.79
-1.94
-2.00
-1.99
-1.89
-1.72
-1.52
-1.33
-1.26
-1.35
-1.62
-1.98
-2.32
-2.57
-2.83
-3.19
-3.83
-4.79
-5.93
-6.95
-7.49
-7.34
-6.45
-5.03
-3.36
-1.74
-0.35
0.76
1.50
1.78
1.53
0.66
-0.72
-2.38
-3.97
-5.17
-5.83
-5.98
-5.79
-5.43
-4.97
-4.37
-3.57
-2.57
-1.48
-0.47
0.26
0.70
0.92
1.10
1.40
1.88
2.46
2.99
3.36
3.52
3.55
3.46
3.25
2.88
2.26
1.31
0.07
-1.36
-2.79
-3.95
-4.70
-4.95
-4.77
-4.29
-3.74
-3.27
-2.94
-2.76
-2.65
-2.54
-2.41
-2.28
-2.13
-1.96
-1.78
-1.60
-1.46
-1.37
-1.27
-1.01
-0.49
0.25
1.05
1.71
2.01
1.92
1.54
1.08
0.76
0.70
0.83
1.07
1.32
1.59
1.88
2.24
2.63
2.95
3.09
3.03
2.85
2.68
2.63
2.72
2.84
2.86
2.69
2.37
2.03
1.80
1.70
1.70
1.69
1.54
1.24
0.84
0.32
-0.26
-0.99
-1.89
-2.95
-4.04
-5.08
-5.97
-6.72
-7.38
-7.97
-8.47
-8.80
-8.87
-8.60
-8.01
-7.10
-5.96
-4.60
-3.14
-1.70
-0.41
0.66
1.47
2.02
2.37
2.47
2.29
1.82
1.14
0.45
-0.01
-0.12
0.12
0.60
1.08
1.40
1.51
1.45
1.32
1.26
1.30
1.43
1.61
1.74
1.75
1.63
1.42
1.20
0.99
0.77
0.39
-0.28
-1.28
-2.52
-3.73
-4.62
-4.99
-4.79
-4.14
-3.28
-2.37
-1.57
-0.91
-0.46
-0.27
-0.40
-0.84
-1.52
-2.37
-3.30
-4.26
-5.25
-6.24
-7.19
-8.05
-8.75
-9.20
-9.23
-8.61
-7.01
-4.27
-0.44
4.09
8.67
12.62
15.42
16.86
17.04
16.28
14.96
13.40
11.88
10.58
9.62
9.09
9.01
9.29
9.73
10.10
10.12
9.64
8.63
7.27
5.86
4.70
4.03
3.85
3.98
4.14
4.10
3.75
3.18
2.59
2.10
1.76
1.56
1.43
1.33
1.33
1.45
1.66
1.87
1.94
1.79
1.46
1.08
0.81
0.65
0.50
0.18
-0.41
-1.26
-2.23
-3.11
-3.76
-4.19
-4.52
-4.95
-5.64
-6.66
-7.95
-9.36
-10.64
-11.56
-11.94
-11.70
-10.87
-9.58
-8.03
-6.41
-4.92
-3.62
-2.53
-1.69
-1.04
-0.53
-0.09
0.29
0.67
1.04
1.39
1.79
2.21
2.67
3.11
3.46
3.69
3.82
3.95
4.17
4.58
5.10
5.60
5.89
5.83
5.46
4.84
4.11
3.33
2.58
1.86
1.12
0.35
-0.47
-1.31
-2.12
-2.81
-3.32
-3.60
-3.67
-3.55
-3.37
-3.22
-3.18
-3.30
-3.56
-3.92
-4.29
-4.59
-4.72
-4.68
-4.55
-4.48
-4.58
-4.89
-5.28
-5.55
-5.46
-4.83
-3.59
-1.85
0.22
2.42
4.54
6.37
7.75
8.60
8.87
8.62
7.95
7.00
5.84
4.58
3.29
2.06
0.92
-0.03
-0.78
-1.31
-1.60
-1.65
-1.41
-0.93
-0.24
0.57
1.38
2.04
2.46
2.58
2.35
1.77
0.92
-0.12
-1.16
-2.07
-2.76
-3.29
-3.78
-4.39
-5.23
-6.24
-7.27
-8.15
-8.80
-9.24
-9.58
-9.83
-9.94
-9.74
-8.99
-7.68
-5.93
-4.02
-2.22
-0.71
0.43
1.27
1.86
2.22
2.36
2.25
1.97
1.58
1.17
0.80
0.52
0.37
0.39
0.62
1.09
1.80
2.71
3.75
4.88
6.04
7.12
8.00
8.56
8.76
8.61
8.19
7.64
7.06
6.46
5.84
5.12
4.31
3.42
2.54
1.79
1.24
0.95
0.91
0.98
1.04
0.95
0.65
0.14
-0.54
-1.31
-2.13
-2.93
-3.76
-4.66
-5.71
-6.99
-8.50
-10.08
-11.44
-12.26
-12.24
-11.32
-9.66
-7.59
-5.49
-3.64
-2.15
-0.98
0.01
0.88
1.64
2.24
2.62
2.78
2.80
2.85
3.07
3.51
4.08
4.67
5.16
5.51
5.74
5.92
6.08
6.18
6.17
5.96
5.57
4.96
4.17
3.18
2.08
1.00
0.10
-0.47
-0.68
-0.58
-0.36
-0.21
-0.19
-0.30
-0.45
-0.53
-0.57
-0.68
-1.02
-1.66
-2.57
-3.62
-4.65
-5.57
-6.33
-6.93
-7.35
-7.61
-7.64
-7.48
-7.20
-6.94
-6.83
-6.94
-7.20
-7.46
-7.55
-7.30
-6.58
-5.32
-3.59
-1.52
0.64
2.65
4.30
5.45
6.08
6.26
6.09
5.68
5.10
4.45
3.88
3.50
3.38
3.50
3.77
4.10
4.39
4.63
4.82
4.98
5.11
5.20
5.24
5.23
5.16
4.96
4.58
3.99
3.25
2.53
2.05
1.92
2.10
2.34
2.35
1.95
1.18
0.26
-0.59
-1.19
-1.56
-1.83
-2.14
-2.57
-3.11
-3.71
-4.36
-5.07
-5.84
-6.59
-7.17
-7.42
-7.22
-6.52
-5.39
-3.93
-2.25
-0.50
1.14
2.49
3.42
3.85
3.85
3.50
2.92
2.17
1.31
0.35
-0.57
-1.27
-1.61
-1.59
-1.31
-0.98
-0.74
-0.59
-0.40
-0.01
0.72
1.76
2.95
4.12
5.11
5.82
6.23
6.36
6.23
5.87
5.34
4.67
3.95
3.22
2.51
1.83
1.24
0.75
0.29
-0.26
-1.02
-2.04
-3.25
-4.37
-5.16
-5.44
-5.23
-4.71
-4.12
-3.64
-3.32
-3.04
-2.67
-2.10
-1.32
-0.43
0.41
1.01
1.30
1.28
0.98
0.55
0.13
-0.20
-0.45
-0.67
-0.93
-1.26
-1.63
-2.02
-2.40
-2.79
-3.26
-3.83
-4.46
-5.02
-5.30
-5.13
-4.43
-3.31
-2.04
-0.95
-0.28
-0.20
-0.66
-1.44
-2.27
-2.91
-3.18
-3.20
-3.21
-3.49
-4.30
-5.71
-7.61
-9.72
-11.68
-13.14
-13.90
-13.86
-13.08
-11.67
-9.83
-7.72
-5.46
-3.18
-0.96
1.04
2.79
4.29
5.66
7.04
8.51
10.05
11.51
12.74
13.59
14.10
14.36
14.47
14.45
14.26
13.82
13.14
12.31
11.38
10.38
9.26
7.90
6.23
4.26
2.18
0.19
-1.48
-2.72
-3.59
-4.21
-4.75
-5.28
-5.81
-6.31
-6.77
-7.21
-7.64
-8.00
-8.17
-7.89
-7.00
-5.54
-3.77
-2.09
-0.84
-0.11
0.34
0.88
1.87
3.43
5.35
7.31
8.86
9.78
10.08
9.96
9.71
9.48
9.31
9.06
8.55
7.74
6.69
5.61
4.71
4.15
3.89
3.77
3.62
3.30
2.80
2.18
1.50
0.78
0.02
-0.74
-1.49
-2.22
-2.93
-3.71
-4.63
-5.71
-6.87
-7.96
-8.79
-9.24
-9.28
-8.92
-8.24
-7.28
-6.05
-4.60
-3.03
-1.46
-0.07
1.01
1.73
2.16
2.43
2.73
3.23
4.03
5.10
6.32
7.53
8.51
9.07
9.16
8.79
8.15
7.43
6.83
6.39
6.09
5.77
5.27
4.53
3.59
2.57
1.57
0.72
0.03
-0.49
-0.84
-1.07
-1.21
-1.33
-1.53
-1.99
-2.78
-3.99
-5.54
-7.28
-8.99
-10.40
-11.31
-11.61
-11.26
-10.36
-9.08
-7.60
-6.08
-4.65
-3.32
-2.07
-0.88
0.32
1.46
2.48
3.30
3.83
4.04
3.94
3.63
3.23
2.94
2.86
3.03
3.36
3.67
3.81
3.77
3.57
3.38
3.31
3.44
3.69
4.02
4.36
4.72
5.11
5.49
5.81
6.00
6.03
5.89
5.62
5.20
4.66
3.98
3.23
2.54
2.02
1.73
1.53
1.25
0.68
-0.19
-1.25
-2.23
-2.87
-3.14
-3.22
-3.38
-3.89
-4.81
-5.98
-7.07
-7.78
-7.88
-7.36
-6.31
-4.92
-3.42
-2.01
-0.83
0.06
0.65
0.99
1.13
1.17
1.16
1.15
1.20
1.40
1.76
2.27
2.81
3.23
3.43
3.35
3.09
2.77
2.53
2.43
2.46
2.55
2.59
2.49
2.24
1.82
1.31
0.79
0.35
-0.03
-0.39
-0.82
-1.42
-2.16
-2.97
-3.69
-4.27
-4.68
-4.96
-5.16
-5.28
-5.31
-5.28
-5.29
-5.51
-6.07
-6.94
-7.94
-8.71
-8.92
-8.36
-7.13
-5.54
-4.02
-3.03
-2.91
-3.79
-5.56
-7.83
-10.04
-11.52
-11.78
-10.64
-8.35
-5.51
-2.84
-0.86
0.34
1.14
2.24
4.31
7.75
12.49
18.02
23.53
28.16
31.23
32.44
31.87
29.87
27.01
23.92
21.07
18.73
16.90
15.37
13.91
12.30
10.54
8.78
7.33
6.46
6.30
6.77
7.53
8.10
7.94
6.59
3.90
0.10
-4.24
-8.33
-11.44
-13.10
-13.25
-12.14
-10.22
-7.99
-5.89
-4.22
-3.06
-2.37
-1.97
-1.63
-1.15
-0.51
0.18
0.65
0.62
-0.09
-1.50
-3.40
-5.43
-7.20
-8.36
-8.56
-7.69
-5.81
-3.32
-0.97
0.34
-0.12
-2.47
-6.10
-9.81
-12.28
-12.77
-11.39
-9.01
-6.67
-5.09
-4.31
-3.91
-3.34
-2.41
-1.36
-0.68
-0.82
-1.90
-3.57
-5.34
-6.70
-7.40
-7.48
-7.18
-6.80
-6.53
-6.42
-6.37
-6.30
-6.07
-5.68
-5.16
-4.57
-3.98
-3.43
-2.92
-2.42
-1.90
-1.29
-0.58
0.21
1.00
1.68
2.11
2.18
1.83
1.06
-0.05
-1.31
-2.42
-3.09
-3.15
-2.64
-1.82
-1.12
-0.88
-1.24
-2.04
-2.83
-3.10
-2.47
-0.87
1.40
3.75
5.43
5.88
4.97
3.12
1.15
-0.05
-0.02
1.10
2.63
3.77
4.02
3.49
2.75
2.47
3.01
4.17
5.41
6.19
6.30
5.96
5.66
5.79
6.39
7.15
7.57
7.26
6.16
4.50
2.81
1.41
0.49
-0.02
-0.27
-0.42
-0.52
-0.51
-0.46
-0.44
-0.65
-1.22
-2.17
-3.32
-4.36
-5.08
-5.37
-5.33
-5.13
-4.93
-4.76
-4.59
-4.40
-4.24
-4.29
-4.71
-5.62
-6.90
-8.28
-9.43
-10.12
-10.37
-10.30
-10.07
-9.71
-9.14
-8.17
-6.72
-4.88
-2.91
-1.09
0.37
1.43
2.13
2.50
2.50
2.13
1.45
0.62
-0.03
-0.30
-0.04
0.70
1.80
3.07
4.37
5.59
6.61
7.33
7.66
7.62
7.28
6.81
6.29
5.76
5.14
4.42
3.69
3.16
3.05
3.47
4.29
5.16
5.67
5.59
4.99
4.21
3.62
3.44
3.59
3.75
3.60
2.97
1.95
0.72
-0.54
-1.85
-3.23
-4.72
-6.13
-7.12
-7.34
-6.62
-5.19
-3.50
-2.05
-1.00
-0.23
0.63
1.87
3.50
5.21
6.54
7.20
7.17
6.68
6.03
5.40
4.77
3.98
2.93
1.71
0.55
-0.30
-0.66
-0.60
-0.26
0.13
0.42
0.52
0.46
0.30
0.15
0.14
0.31
0.73
1.35
2.04
2.66
3.03
3.09
2.80
2.22
1.47
0.66
-0.09
-0.76
-1.33
-1.87
-2.40
-2.95
-3.51
-4.06
-4.54
-4.90
-5.13
-5.29
-5.46
-5.77
-6.28
-6.96
-7.68
-8.26
-8.53
-8.39
-7.80
-6.82
-5.53
-3.97
-2.25
-0.47
1.17
2.57
3.66
4.53
5.27
6.00
6.72
7.23
7.31
6.80
5.73
4.27
2.77
1.54
0.76
0.37
0.14
-0.19
-0.78
-1.56
-2.34
-2.87
-3.04
-2.87
-2.55
-2.28
-2.17
-2.28
-2.51
-2.82
-3.13
-3.45
-3.76
-4.04
-4.18
-4.06
-3.68
-3.09
-2.42
-1.85
-1.49
-1.39
-1.54
-1.89
-2.36
-2.92
-3.53
-4.19
-4.94
-5.75
-6.52
-7.05
-7.09
-6.45
-5.09
-3.14
-0.89
1.26
3.09
4.44
5.35
5.90
6.17
6.22
6.11
5.91
5.65
5.37
5.08
4.73
4.30
3.84
3.40
3.07
2.97
3.05
3.24
3.40
3.40
3.19
2.81
2.37
2.01
1.80
1.74
1.72
1.61
1.35
0.94
0.47
0.03
-0.33
-0.67
-1.03
-1.45
-1.92
-2.44
-2.90
-3.24
-3.44
-3.53
-3.58
-3.72
-4.02
-4.53
-5.26
-6.14
-7.03
-7.79
-8.29
-8.39
-7.97
-6.94
-5.31
-3.21
-0.89
1.34
3.19
4.44
5.05
5.11
4.81
4.31
3.70
2.98
2.09
1.05
-0.01
-0.93
-1.54
-1.75
-1.56
-1.11
-0.52
0.09
0.64
1.03
1.24
1.23
1.03
0.75
0.48
0.28
0.11
-0.12
-0.53
-1.06
-1.61
-2.00
-2.10
-1.90
-1.51
-1.08
-0.75
-0.55
-0.42
-0.32
-0.26
-0.30
-0.49
-0.89
-1.47
-2.21
-3.08
-4.07
-5.13
-6.09
-6.71
-6.79
-6.28
-5.24
-3.86
-2.30
-0.60
1.33
3.54
5.93
8.08
9.44
9.52
8.11
5.40
1.91
-1.70
-4.84
-7.21
-8.82
-9.84
-10.47
-10.82
-10.87
-10.53
-9.82
-8.84
-7.81
-6.91
-6.22
-5.68
-5.14
-4.52
-3.78
-3.04
-2.44
-2.08
-1.94
-1.99
-2.10
-2.18
-2.25
-2.33
-2.52
-2.83
-3.25
-3.76
-4.35
-5.04
-5.88
-6.88
-7.95
-8.93
-9.54
-9.58
-8.99
-7.92
-6.68
-5.53
-4.57
-3.74
-2.88
-1.87
-0.72
0.50
1.72
2.88
4.09
5.39
6.76
7.99
8.77
8.83
8.06
6.66
4.88
3.07
1.43
0.02
-1.24
-2.50
-3.82
-5.16
-6.24
-6.84
-6.71
-5.70
-3.78
-1.05
2.27
5.87
9.40
12.56
15.13
17.08
18.44
19.33
19.90
20.16
20.11
19.73
19.03
18.13
17.19
16.28
15.37
14.36
13.10
11.56
9.79
8.00
6.33
4.93
3.82
2.93
2.27
1.85
1.63
1.50
1.21
0.44
-0.97
-2.90
-5.00
-6.73
-7.65
-7.55
-6.53
-4.87
-2.89
-0.77
1.41
3.65
5.93
8.10
9.98
11.35
12.03
11.87
10.85
9.07
6.78
4.38
2.31
0.90
0.30
0.38
0.89
1.62
2.36
3.09
3.81
4.45
4.89
5.02
4.76
4.21
3.52
2.90
2.40
1.96
1.42
0.66
-0.32
-1.34
-2.24
-2.87
-3.25
-3.47
-3.74
-4.18
-4.84
-5.71
-6.71
-7.75
-8.74
-9.59
-10.25
-10.81
-11.42
-12.29
-13.47
-14.88
-16.17
-16.95
-16.83
-15.64
-13.55
-10.89
-8.14
-5.58
-3.38
-1.49
0.19
1.74
3.18
4.44
5.48
6.30
6.96
7.54
8.04
8.39
8.46
8.10
7.22
5.81
3.99
1.93
-0.09
-1.82
-3.04
-3.70
-3.90
-3.84
-3.74
-3.77
-4.01
-4.44
-5.01
-5.62
-6.29
-7.00
-7.70
-8.34
-8.83
-9.17
-9.38
-9.56
-9.79
-10.21
-10.89
-11.86
-13.08
-14.43
-15.67
-16.63
-17.12
-17.02
-16.34
-15.16
-13.60
-11.77
-9.78
-7.69
-5.56
-3.46
-1.47
0.30
1.79
2.94
3.79
4.46
5.07
5.69
6.28
6.71
6.86
6.71
6.39
6.05
5.86
5.86
5.99
6.18
6.39
6.60
6.90
7.29
7.72
8.12
8.40
8.57
8.71
8.86
9.01
9.01
8.77
8.18
7.27
6.10
4.78
3.37
1.91
0.44
-1.04
-2.45
-3.77
-4.99
-6.18
-7.41
-8.69
-9.95
-11.07
-11.90
-12.34
-12.31
-11.80
-10.86
-9.55
-7.94
-6.10
-4.18
-2.34
-0.75
0.46
1.27
1.77
2.11
2.46
2.94
3.57
4.32
5.05
5.68
6.08
6.26
6.21
6.06
5.96
6.01
6.25
6.55
6.79
6.88
6.86
6.83
6.99
7.39
8.04
8.79
9.44
9.81
9.81
9.44
8.77
7.88
6.87
5.79
4.68
3.54
2.40
1.25
0.14
-0.91
-1.90
-2.84
-3.79
-4.76
-5.83
-6.97
-8.19
-9.51
-10.97
-12.62
-14.43
-16.26
-17.80
-18.68
-18.58
-17.35
-15.11
-12.15
-8.84
-5.49
-2.32
0.59
3.18
5.42
7.26
8.62
9.58
10.20
10.62
10.92
11.12
11.20
11.12
10.95
10.76
10.69
10.78
11.04
11.38
11.70
11.83
11.65
11.14
10.33
9.36
8.36
7.45
6.68
6.04
5.47
5.01
4.73
4.68
4.91
5.30
5.69
5.92
5.82
5.37
4.61
3.66
2.64
1.65
0.68
-0.25
-1.18
-2.11
-2.99
-3.81
-4.53
-5.23
-6.00
-7.04
-8.45
-10.23
-12.21
-14.08
-15.50
-16.21
-16.09
-15.16
-13.58
-11.51
-9.12
-6.63
-4.24
-2.17
-0.62
0.33
0.72
0.73
0.64
0.66
0.93
1.47
2.21
3.01
3.75
4.32
4.65
4.76
4.72
4.64
4.63
4.80
5.17
5.69
6.24
6.69
6.92
6.86
6.44
5.70
4.72
3.64
2.65
1.86
1.35
1.06
0.86
0.65
0.40
0.12
-0.13
-0.32
-0.49
-0.75
-1.29
-2.29
-3.83
-5.84
-8.12
-10.38
-12.31
-13.64
-14.19
-13.88
-12.74
-10.89
-8.54
-5.95
-3.39
-1.11
0.77
2.22
3.35
4.23
4.95
5.48
5.80
5.90
5.87
5.85
5.98
6.42
7.13
8.05
9.01
9.90
10.65
11.26
11.69
11.91
11.85
11.48
10.85
10.13
9.46
9.01
8.80
8.77
8.79
8.71
8.35
7.58
6.35
4.68
2.72
0.73
-1.12
-2.67
-3.90
-4.89
-5.77
-6.66
-7.59
-8.56
-9.55
-10.51
-11.33
-11.92
-12.24
-12.35
-12.37
-12.53
-12.90
-13.38
-13.72
-13.60
-12.76
-11.14
-8.91
-6.31
-3.66
-1.17
1.01
2.81
4.17
5.14
5.76
6.13
6.34
6.48
6.54
6.52
6.45
6.29
6.12
6.00
6.04
6.35
7.01
7.99
9.12
10.19
10.95
11.24
11.02
10.41
9.60
8.79
8.13
7.69
7.44
7.27
7.11
6.85
6.46
5.97
5.40
4.83
4.39
4.05
3.78
3.41
2.76
1.63
0.00
-2.05
-4.28
-6.42
-8.27
-9.71
-10.67
-11.20
-11.34
-11.18
-10.91
-10.80
-11.08
-11.90
-13.15
-14.49
-15.52
-15.88
-15.36
-14.03
-12.08
-9.72
-7.12
-4.37
-1.53
1.22
3.71
5.78
7.33
8.38
9.08
9.56
9.92
10.16
10.17
9.89
9.28
8.46
7.68
7.19
7.14
7.57
8.36
9.23
9.93
10.24
10.07
9.49
8.69
7.87
7.16
6.62
6.16
5.66
5.03
4.21
3.19
2.05
0.84
-0.31
-1.31
-2.12
-2.71
-3.12
-3.47
-3.86
-4.36
-4.92
-5.42
-5.73
-5.80
-5.63
-5.37
-5.24
-5.49
-6.26
-7.54
-9.17
-10.77
-11.96
-12.37
-11.78
-10.20
-7.79
-4.84
-1.68
1.39
4.11
6.29
7.85
8.75
9.06
8.91
8.44
7.76
6.91
5.90
4.76
3.48
2.16
0.92
-0.07
-0.70
-0.88
-0.58
0.19
1.36
2.74
4.11
5.24
5.97
6.20
6.02
5.56
4.94
4.21
3.32
2.21
0.84
-0.73
-2.41
-4.07
-5.58
-6.89
-7.94
-8.79
-9.53
-10.24
-11.03
-11.96
-12.91
-13.70
-14.10
-13.85
-12.89
-11.25
-9.13
-6.79
-4.46
-2.38
-0.63
0.73
1.83
2.74
3.58
4.44
5.24
5.88
6.23
6.29
6.14
6.00
6.00
6.23
6.67
7.18
7.65
7.97
8.12
8.10
7.94
7.66
7.31
6.92
6.46
5.86
5.00
3.88
2.52
1.04
-0.43
-1.79
-3.02
-4.20
-5.36
-6.55
-7.76
-8.88
-9.86
-10.68
-11.34
-11.94
-12.59
-13.36
-14.27
-15.27
-16.19
-16.84
-16.98
-16.48
-15.27
-13.43
-11.09
-8.43
-5.62
-2.80
-0.14
2.21
4.07
5.34
6.02
6.25
6.24
6.18
6.18
6.21
6.18
6.02
5.76
5.54
5.53
5.79
6.30
6.96
7.60
8.12
8.45
8.58
8.54
8.33
7.98
7.49
6.88
6.11
5.16
3.96
2.56
1.07
-0.33
-1.45
-2.15
-2.41
-2.31
-2.00
-1.69
-1.53
-1.68
-2.18
-3.01
-4.02
-5.10
-6.18
-7.28
-8.51
-9.95
-11.60
-13.27
-14.68
-15.52
-15.57
-14.75
-13.08
-10.69
-7.76
-4.56
-1.36
1.57
4.02
5.87
7.13
7.92
8.34
8.51
8.42
8.06
7.48
6.75
6.03
5.52
5.34
5.47
5.82
6.28
6.72
7.17
7.62
8.11
8.57
8.83
8.74
8.20
7.25
6.01
4.70
3.54
2.61
1.87
1.22
0.50
-0.39
-1.43
-2.50
-3.37
-3.88
-3.95
-3.72
-3.50
-3.61
-4.33
-5.68
-7.41
-9.13
-10.42
-11.01
-10.82
-9.93
-8.49
-6.72
-4.77
-2.88
-1.26
-0.12
0.41
0.41
0.08
-0.35
-0.65
-0.76
-0.72
-0.65
-0.59
-0.54
-0.47
-0.35
-0.17
0.09
0.50
1.09
1.92
2.96
4.11
5.14
5.93
6.36
6.42
6.19
5.76
5.23
4.73
4.34
4.13
4.10
4.18
4.22
4.04
3.46
2.44
1.00
-0.77
-2.75
-4.85
-7.01
-9.20
-11.25
-12.97
-14.09
-14.39
-13.84
-12.56
-10.84
-8.88
-6.84
-4.75
-2.64
-0.57
1.26
2.70
3.64
4.11
4.29
4.38
4.58
4.98
5.52
6.09
6.51
6.71
6.70
6.56
6.46
6.55
6.87
7.34
7.83
8.18
8.32
8.28
8.13
7.88
7.45
6.81
5.86
4.69
3.46
2.39
1.59
1.12
0.84
0.59
0.28
-0.16
-0.72
-1.33
-1.98
-2.67
-3.37
-4.04
-4.66
-5.25
-5.92
-6.79
-7.97
-9.44
-11.03
-12.50
-13.57
-14.00
-13.77
-12.91
-11.51
-9.76
-7.82
-5.85
-4.03
-2.54
-1.48
-0.92
-0.76
-0.77
-0.69
-0.30
0.51
1.63
2.91
4.20
5.42
6.63
7.91
9.23
10.50
11.56
12.26
12.50
12.35
11.93
11.36
10.73
10.09
9.51
9.04
8.68
8.41
8.14
7.73
7.13
6.35
5.44
4.52
3.62
2.68
1.69
0.59
-0.59
-1.81
-2.98
-4.13
-5.21
-6.19
-7.02
-7.63
-7.99
-8.21
-8.53
-9.21
-10.46
-12.29
-14.42
-16.39
-17.72
-18.05
-17.29
-15.61
-13.32
-10.81
-8.32
-5.96
-3.83
-1.91
-0.29
0.98
1.90
2.52
3.02
3.54
4.18
4.86
5.46
5.84
5.92
5.80
5.68
5.76
6.14
6.86
7.85
8.97
10.07
10.98
11.53
11.68
11.43
10.88
10.12
9.22
8.19
7.01
5.66
4.24
2.85
1.63
0.61
-0.32
-1.28
-2.39
-3.64
-4.99
-6.39
-7.80
-9.29
-10.82
-12.28
-13.40
-13.87
-13.47
-12.22
-10.28
-8.01
-5.70
-3.60
-1.77
-0.22
1.11
2.28
3.32
4.30
5.16
5.79
6.12
6.10
5.80
5.34
4.84
4.43
4.16
4.08
4.18
4.51
5.05
5.72
6.46
7.13
7.67
8.02
8.20
8.21
8.12
7.91
7.62
7.22
6.73
6.07
5.23
4.21
3.07
1.93
0.78
-0.38
-1.61
-3.02
-4.65
-6.44
-8.29
-10.03
-11.53
-12.75
-13.67
-14.37
-14.89
-15.28
-15.54
-15.63
-15.44
-14.86
-13.77
-12.10
-9.85
-7.12
-4.15
-1.22
1.42
3.62
5.33
6.60
7.52
8.19
8.65
8.92
9.02
8.93
8.72
8.40
8.00
7.56
7.12
6.78
6.60
6.70
7.05
7.53
8.01
8.35
8.46
8.28
7.88
7.32
6.73
6.18
5.70
5.30
4.96
4.60
4.11
3.48
2.67
1.75
0.77
-0.25
-1.25
-2.28
-3.36
-4.49
-5.64
-6.78
-7.86
-8.81
-9.62
-10.30
-10.93
-11.59
-12.34
-13.19
-14.07
-14.82
-15.18
-14.90
-13.72
-11.52
-8.34
-4.48
-0.41
3.29
6.17
8.01
8.84
8.96
8.73
8.47
8.32
8.29
8.26
8.15
7.90
7.57
7.34
7.31
7.56
8.02
8.49
8.72
8.54
7.93
6.99
5.92
4.99
4.33
3.96
3.73
3.45
2.93
2.12
1.09
-0.03
-1.03
-1.81
-2.36
-2.77
-3.12
-3.50
-3.91
-4.33
-4.73
-5.13
-5.54
-6.08
-6.82
-7.82
-9.12
-10.70
-12.43
-14.17
-15.68
-16.71
-17.06
-16.65
-15.57
-13.95
-11.97
-9.78
-7.51
-5.25
-3.06
-0.99
0.95
2.72
4.28
5.53
6.37
6.70
6.59
6.19
5.80
5.68
5.96
6.57
7.29
7.85
8.06
7.85
7.32
6.61
5.91
5.33
4.90
4.58
4.28
3.87
3.24
2.30
1.04
-0.47
-2.05
-3.52
-4.77
-5.72
-6.40
-6.87
-7.25
-7.63
-8.11
-8.72
-9.39
-9.95
-10.16
-9.84
-8.88
-7.37
-5.52
-3.60
-1.85
-0.42
0.64
1.42
2.01
2.52
3.01
3.54
4.13
4.76
5.39
5.97
6.47
6.83
7.06
7.17
7.14
6.98
6.65
6.18
5.61
5.02
4.54
4.25
4.12
4.06
3.95
3.73
3.42
3.14
3.01
3.02
3.10
3.05
2.64
1.79
0.56
-0.86
-2.21
-3.35
-4.28
-5.07
-5.86
-6.76
-7.78
-8.83
-9.82
-10.70
-11.50
-12.29
-13.13
-14.02
-14.84
-15.41
-15.53
-15.01
-13.80
-11.93
-9.61
-7.05
-4.52
-2.20
-0.15
1.65
3.27
4.75
6.09
7.16
7.92
8.31
8.40
8.30
8.15
8.04
7.98
8.01
8.12
8.36
8.74
9.31
9.97
10.62
11.13
11.35
11.27
10.90
10.30
9.55
8.72
7.85
6.98
6.14
5.38
4.72
4.15
3.63
3.11
2.60
2.13
1.65
1.15
0.53
-0.29
-1.32
-2.56
-3.85
-5.09
-6.18
-7.04
-7.62
-7.93
-8.00
-7.90
-7.79
-7.89
-8.42
-9.47
-10.96
-12.64
-14.16
-15.20
-15.55
-15.12
-13.90
-11.98
-9.50
-6.59
-3.52
-0.57
1.96
3.91
5.27
6.20
6.89
7.51
8.14
8.76
9.31
9.76
10.14
10.47
10.80
11.15
11.50
11.89
12.34
12.90
13.51
14.09
14.46
14.44
13.93
12.95
11.61
10.07
8.48
7.01
5.72
4.63
3.63
2.66
1.66
0.59
-0.46
-1.42
-2.20
-2.83
-3.37
-4.00
-4.73
-5.55
-6.32
-6.92
-7.27
-7.36
-7.31
-7.23
-7.29
-7.61
-8.27
-9.27
-10.54
-11.85
-12.87
-13.32
-13.00
-11.90
-10.19
-8.12
-5.97
-3.95
-2.21
-0.87
0.04
0.45
0.40
0.01
-0.54
-1.05
-1.33
-1.34
-1.15
-0.89
-0.68
-0.53
-0.39
-0.09
0.44
1.19
2.05
2.90
3.61
4.15
4.50
4.63
4.51
4.13
3.51
2.82
2.21
1.85
1.75
1.80
1.78
1.50
0.90
0.12
-0.61
-1.01
-0.93
-0.47
0.08
0.35
0.02
-0.99
-2.55
-4.35
-6.06
-7.40
-8.22
-8.46
-8.13
-7.23
-5.88
-4.23
-2.47
-0.85
0.44
1.29
1.70
1.77
1.67
1.60
1.70
1.97
2.38
2.79
3.11
3.32
3.43
3.45
3.41
3.32
3.17
3.00
2.79
2.55
2.30
2.09
2.00
2.13
2.58
3.36
4.31
5.24
5.89
6.14
6.04
5.76
5.51
5.42
5.52
5.69
5.78
5.65
5.30
4.75
4.10
3.38
2.55
1.52
0.23
-1.27
-2.86
-4.33
-5.52
-6.35
-6.88
-7.27
-7.62
-8.09
-8.72
-9.63
-10.94
-12.72
-14.89
-17.10
-18.85
-19.66
-19.23
-17.57
-15.02
-12.01
-8.98
-6.20
-3.81
-1.79
-0.16
1.10
2.00
2.60
3.01
3.37
3.77
4.27
4.86
5.40
5.78
5.92
5.86
5.69
5.56
5.58
5.73
5.95
6.08
6.13
6.10
6.06
6.06
6.08
5.98
5.63
5.00
4.12
3.19
2.32
1.51
0.68
-0.27
-1.29
-2.22
-2.78
-2.83
-2.37
-1.67
-1.08
-0.83
-1.02
-1.63
-2.52
-3.58
-4.76
-6.06
-7.46
-8.95
-10.37
-11.61
-12.49
-12.82
-12.49
-11.47
-9.82
-7.67
-5.26
-2.76
-0.38
1.72
3.41
4.57
5.13
5.16
4.88
4.56
4.44
4.64
5.09
5.64
6.09
6.33
6.42
6.49
6.67
7.05
7.57
8.09
8.48
8.62
8.54
8.32
8.04
7.78
7.58
7.39
7.18
6.94
6.68
6.50
6.38
6.27
6.10
5.79
5.32
4.69
3.92
3.02
2.02
0.92
-0.29
-1.57
-2.88
-4.15
-5.31
-6.30
-7.09
-7.64
-7.94
-8.01
-7.93
-7.93
-8.19
-8.92
-10.18
-11.86
-13.63
-15.10
-15.94
-15.95
-15.16
-13.69
-11.75
-9.54
-7.14
-4.69
-2.27
-0.01
1.97
3.64
4.95
5.95
6.68
7.19
7.53
7.71
7.79
7.77
7.67
7.51
7.33
7.15
7.00
6.84
6.64
6.35
5.90
5.28
4.52
3.74
3.05
2.59
2.42
2.45
2.50
2.31
1.71
0.71
-0.49
-1.61
-2.41
-2.78
-2.81
-2.64
-2.46
-2.43
-2.66
-3.23
-4.16
-5.38
-6.75
-8.08
-9.16
-9.84
-10.06
-9.82
-9.14
-8.03
-6.54
-4.75
-2.82
-0.91
0.82
2.23
3.31
4.05
4.54
4.89
5.20
5.51
5.74
5.73
5.30
4.45
3.30
2.14
1.27
0.89
1.03
1.56
2.36
3.34
4.44
5.65
6.83
7.82
8.41
8.49
8.04
7.14
5.97
4.74
3.58
2.55
1.63
0.67
-0.43
-1.71
-3.09
-4.45
-5.64
-6.61
-7.37
-8.03
-8.69
-9.38
-10.16
-11.00
-11.94
-12.93
-13.88
-14.56
-14.75
-14.26
-13.04
-11.22
-9.00
-6.61
-4.20
-1.91
0.23
2.11
3.62
4.68
5.28
5.52
5.57
5.62
5.78
6.12
6.64
7.29
7.95
8.49
8.79
8.73
8.26
7.46
6.52
5.68
5.12
4.89
4.89
4.98
5.05
5.06
5.11
5.31
5.67
6.04
6.22
5.97
5.25
4.15
2.95
1.88
1.07
0.47
-0.11
-0.79
-1.61
-2.42
-3.02
-3.28
-3.22
-3.05
-3.03
-3.37
-4.17
-5.44
-7.03
-8.86
-10.79
-12.71
-14.51
-16.02
-16.99
-17.20
-16.51
-14.89
-12.56
-9.86
-7.12
-4.67
-2.60
-0.91
0.48
1.62
2.55
3.30
3.93
4.53
5.16
5.82
6.42
6.82
6.98
6.95
6.94
7.14
7.66
8.45
9.34
10.19
10.89
11.47
12.01
12.54
12.98
13.19
13.03
12.42
11.44
10.26
9.10
8.09
7.28
6.59
5.95
5.31
4.70
4.16
3.71
3.37
3.11
2.93
2.77
2.59
2.27
1.68
0.76
-0.47
-1.91
-3.38
-4.76
-5.98
-7.07
-8.14
-9.24
-10.39
-11.49
-12.45
-13.11
-13.29
-12.90
-11.91
-10.41
-8.65
-6.83
-5.18
-3.80
-2.71
-1.84
-1.14
-0.49
0.19
0.96
1.91
3.02
4.24
5.47
6.58
7.43
7.90
7.94
7.54
6.74
5.72
4.66
3.80
3.30
3.15
3.23
3.38
3.45
3.35
3.13
2.81
2.50
2.18
1.85
1.47
0.98
0.38
-0.31
-1.10
-1.97
-2.81
-3.56
-4.07
-4.32
-4.39
-4.53
-5.00
-5.99
-7.56
-9.50
-11.46
-13.04
-13.94
-14.03
-13.29
-11.88
-9.95
-7.67
-5.26
-2.85
-0.60
1.38
2.96
4.13
4.89
5.37
5.70
6.03
6.43
6.90
7.42
7.95
8.43
8.79
9.02
9.09
9.04
8.96
8.88
8.84
8.81
8.77
8.66
8.48
8.24
7.91
7.46
6.81
5.91
4.81
3.62
2.49
1.59
0.97
0.59
0.32
-0.06
-0.70
-1.61
-2.73
-3.86
-4.89
-5.83
-6.85
-8.12
-9.81
-11.90
-14.22
-16.51
-18.40
-19.59
-19.83
-19.07
-17.34
-14.90
-12.08
-9.21
-6.57
-4.30
-2.45
-0.98
0.11
0.86
1.36
1.75
2.18
2.79
3.64
4.73
5.99
7.34
8.67
9.93
11.07
12.05
12.80
13.31
13.53
13.47
13.17
12.63
11.95
11.18
10.38
9.56
8.71
7.78
6.70
5.49
4.11
2.62
1.06
-0.54
-2.11
-3.55
-4.76
-5.63
-6.12
-6.29
-6.28
-6.34
-6.59
-7.08
-7.76
-8.50
-9.19
-9.83
-10.52
-11.37
-12.44
-13.60
-14.65
-15.31
-15.37
-14.69
-13.31
-11.29
-8.78
-5.93
-2.94
0.00
2.65
4.81
6.36
7.30
7.75
7.91
7.92
7.87
7.73
7.48
7.09
6.66
6.38
6.46
7.04
8.06
9.37
10.65
11.64
12.11
12.00
11.42
10.51
9.45
8.31
7.15
5.98
4.77
3.61
2.58
1.79
1.28
0.99
0.78
0.53
0.15
-0.34
-0.88
-1.47
-2.19
-3.17
-4.44
-6.00
-7.69
-9.26
-10.60
-11.70
-12.76
-14.01
-15.59
-17.39
-19.12
-20.39
-20.82
-20.26
-18.71
-16.47
-13.87
-11.20
-8.59
-6.12
-3.72
-1.38
0.83
2.79
4.34
5.44
6.13
6.59
7.01
7.48
8.00
8.43
8.67
8.68
8.47
8.13
7.72
7.22
6.62
5.90
5.08
4.27
3.57
3.10
2.84
2.78
2.83
2.91
2.92
2.77
2.40
1.74
0.81
-0.34
-1.59
-2.85
-4.05
-5.17
-6.21
-7.22
-8.23
-9.16
-9.93
-10.36
-10.29
-9.60
-8.28
-6.44
-4.32
-2.18
-0.32
1.07
1.95
2.39
2.60
2.81
3.15
3.66
4.27
4.92
5.48
5.90
6.22
6.50
6.76
7.03
7.31
7.54
7.73
7.83
7.88
7.89
7.84
7.70
7.43
7.01
6.43
5.70
4.85
3.98
3.14
2.36
1.65
1.00
0.37
-0.27
-0.89
-1.50
-2.02
-2.40
-2.61
-2.70
-2.71
-2.75
-2.90
-3.22
-3.82
-4.72
-5.91
-7.39
-9.09
-10.92
-12.76
-14.46
-15.75
-16.44
-16.34
-15.40
-13.69
-11.44
-8.94
-6.44
-4.09
-1.93
0.07
1.96
3.70
5.25
6.55
7.58
8.34
8.83
9.05
8.98
8.64
8.04
7.30
6.57
5.98
5.60
5.49
5.66
6.09
6.72
7.54
8.40
9.20
9.80
10.13
10.17
9.96
9.54
9.02
8.51
8.08
7.69
7.22
6.55
5.58
4.33
2.89
1.43
0.14
-0.87
-1.59
-2.10
-2.50
-2.86
-3.26
-3.74
-4.33
-5.06
-5.89
-6.78
-7.70
-8.66
-9.68
-10.75
-11.86
-12.95
-13.96
-14.84
-15.50
-15.87
-15.86
-15.39
-14.39
-12.85
-10.81
-8.42
-5.87
-3.36
-1.09
0.78
2.19
3.18
3.84
4.35
4.88
5.52
6.24
6.98
7.64
8.17
8.64
9.20
9.98
11.04
12.35
13.75
15.03
15.97
16.45
16.38
15.81
14.88
13.76
12.66
11.69
10.87
10.09
9.15
7.92
6.34
4.49
2.52
0.62
-1.07
-2.47
-3.57
-4.44
-5.16
-5.81
-6.45
-7.10
-7.85
-8.76
-9.91
-11.35
-13.03
-14.79
-16.34
-17.31
-17.45
-16.67
-15.10
-13.04
-10.81
-8.67
-6.75
-5.10
-3.72
-2.60
-1.72
-1.00
-0.38
0.23
0.80
1.29
1.56
1.55
1.33
1.10
1.05
1.38
2.07
2.99
3.97
4.88
5.68
6.41
7.06
7.57
7.80
7.63
7.05
6.13
5.12
4.21
3.54
3.08
2.71
2.28
1.64
0.70
-0.57
-2.07
-3.73
-5.50
-7.35
-9.28
-11.23
-13.08
-14.61
-15.59
-15.83
-15.27
-13.96
-12.09
-9.81
-7.32
-4.81
-2.46
-0.46
1.05
2.07
2.78
3.42
4.19
5.11
6.08
6.91
7.51
7.82
7.95
8.06
8.22
8.43
8.60
8.67
8.61
8.43
8.09
7.55
6.77
5.73
4.55
3.34
2.28
1.42
0.78
0.26
-0.19
-0.59
-0.97
-1.32
-1.71
-2.24
-2.97
-3.94
-5.06
-6.16
-7.09
-7.80
-8.33
-8.83
-9.44
-10.21
-11.09
-11.92
-12.48
-12.65
-12.36
-11.55
-10.21
-8.36
-6.03
-3.32
-0.39
2.50
5.13
7.28
8.87
9.91
10.42
10.48
10.11
9.35
8.26
6.95
5.62
4.50
3.82
3.69
4.12
4.96
6.01
7.04
7.89
8.49
8.86
9.10
9.24
9.28
9.11
8.65
7.93
7.10
6.38
5.98
5.95
6.12
6.19
5.91
5.09
3.80
2.22
0.58
-1.00
-2.47
-3.86
-5.24
-6.56
-7.82
-8.96
-9.99
-10.94
-11.94
-13.05
-14.27
-15.53
-16.63
-17.36
-17.52
-17.00
-15.88
-14.29
-12.51
-10.70
-8.94
-7.20
-5.44
-3.60
-1.76
-0.09
1.29
2.31
3.05
3.67
4.33
5.05
5.80
6.53
7.13
7.62
8.05
8.50
8.95
9.36
9.63
9.65
9.42
8.99
8.50
8.02
7.60
7.24
6.83
6.35
5.81
5.30
4.88
4.62
4.48
4.48
4.56
4.65
4.70
4.59
4.15
3.20
1.71
-0.20
-2.25
-4.15
-5.69
-6.81
-7.66
-8.41
-9.26
-10.25
-11.36
-12.44
-13.38
-14.05
-14.34
-14.14
-13.41
-12.21
-10.62
-8.87
-7.06
-5.28
-3.52
-1.75
0.03
1.78
3.41
4.86
6.04
6.99
7.69
8.11
8.22
7.97
7.42
6.69
6.00
5.51
5.34
5.51
5.92
6.43
6.85
7.08
7.05
6.78
6.38
5.99
5.76
5.72
5.78
5.72
5.33
4.51
3.32
1.86
0.35
-1.10
-2.43
-3.65
-4.84
-6.07
-7.38
-8.89
-10.60
-12.49
-14.41
-16.06
-17.04
-17.05
-15.88
-13.63
-10.61
-7.28
-4.06
-1.29
0.92
2.62
3.90
4.89
5.63
6.13
6.39
6.46
6.37
6.19
6.01
5.90
5.91
6.07
6.35
6.72
7.14
7.51
7.76
7.81
7.68
7.41
7.06
6.72
6.40
6.06
5.63
5.05
4.26
3.25
2.05
0.69
-0.77
-2.30
-3.83
-5.23
-6.40
-7.25
-7.81
-8.18
-8.55
-9.06
-9.83
-10.84
-11.99
-13.13
-14.11
-14.77
-15.01
-14.65
-13.66
-12.00
-9.74
-7.03
-4.09
-1.14
1.58
3.90
5.77
7.19
8.25
9.03
9.61
10.01
10.21
10.15
9.79
9.15
8.22
7.10
5.93
4.94
4.33
4.29
4.85
5.91
7.25
8.56
9.61
10.22
10.35
10.02
9.33
8.36
7.24
6.09
5.00
4.08
3.32
2.70
2.17
1.65
1.10
0.50
-0.12
-0.73
-1.27
-1.76
-2.28
-2.98
-4.00
-5.43
-7.30
-9.53
-12.03
-14.67
-17.35
-19.83
-21.83
-23.00
-23.06
-21.90
-19.65
-16.66
-13.33
-10.03
-6.96
-4.22
-1.79
0.42
2.44
4.31
5.99
7.44
8.60
9.44
9.95
10.17
10.11
9.82
9.37
8.88
8.49
8.32
8.38
8.60
8.88
9.14
9.38
9.73
10.28
11.05
11.89
12.56
12.81
12.53
11.79
10.83
9.86
9.09
8.52
8.02
7.45
6.69
5.69
4.48
3.13
1.60
-0.10
-2.02
-4.10
-6.26
-8.34
-10.23
-11.84
-13.15
-14.19
-14.97
-15.54
-16.01
-16.46
-16.96
-17.49
-17.94
-18.12
-17.83
-16.91
-15.31
-13.17
-10.59
-7.76
-4.84
-2.00
0.55
2.68
4.32
5.40
5.97
6.15
6.12
6.03
6.04
6.20
6.55
7.01
7.46
7.83
8.13
8.41
8.74
9.21
9.76
10.30
10.65
10.72
10.53
10.17
9.69
9.11
8.47
7.76
7.08
6.54
6.23
6.12
6.10
5.90
5.35
4.39
3.08
1.55
-0.04
-1.65
-3.23
-4.75
-6.20
-7.55
-8.80
-10.05
-11.35
-12.74
-14.24
-15.76
-17.13
-18.18
-18.69
-18.49
-17.53
-15.83
-13.52
-10.84
-8.05
-5.42
-3.19
-1.38
0.06
1.30
2.57
4.04
5.76
7.57
9.21
10.42
11.03
11.05
10.57
9.77
8.82
7.87
7.04
6.39
5.93
5.58
5.18
4.66
4.04
3.44
3.05
3.00
3.26
3.62
3.85
3.79
3.36
2.67
1.78
0.69
-0.61
-2.16
-3.94
-5.85
-7.69
-9.34
-10.70
-11.82
-12.78
-13.66
-14.44
-14.97
-15.03
-14.32
-12.74
-10.38
-7.56
-4.68
-2.13
-0.05
1.54
2.78
3.79
4.60
5.14
5.37
5.27
5.01
4.75
4.66
4.76
4.98
5.18
5.31
5.45
5.70
6.20
6.91
7.71
8.38
8.77
8.85
8.67
8.37
8.00
7.61
7.16
6.60
5.86
4.93
3.77
2.43
0.98
-0.46
-1.83
-3.10
-4.34
-5.60
-6.88
-8.08
-9.13
-9.93
-10.49
-10.95
-11.44
-12.10
-12.90
-13.75
-14.48
-14.90
-14.86
-14.21
-12.93
-11.07
-8.80
-6.41
-4.16
-2.24
-0.60
0.90
2.48
4.23
6.11
7.92
9.43
10.53
11.22
11.61
11.86
12.03
12.14
12.22
12.22
12.19
12.16
12.21
12.37
12.60
12.80
12.77
12.38
11.54
10.35
8.93
7.51
6.21
5.05
3.92
2.71
1.37
-0.12
-1.63
-3.09
-4.42
-5.59
-6.62
-7.55
-8.40
-9.18
-9.93
-10.67
-11.50
-12.52
-13.75
-15.12
-16.41
-17.35
-17.69
-17.31
-16.23
-14.60
-12.55
-10.17
-7.59
-4.85
-2.13
0.31
2.25
3.65
4.62
5.38
6.15
6.93
7.61
8.00
7.99
7.64
7.10
6.54
6.04
5.58
5.16
4.84
4.79
5.18
6.07
7.42
8.96
10.43
11.61
12.37
12.73
12.72
12.42
11.85
10.98
9.75
8.22
6.45
4.50
2.50
0.49
-1.49
-3.37
-5.10
-6.57
-7.63
-8.29
-8.58
-8.61
-8.54
-8.51
-8.61
-8.94
-9.56
-10.53
-11.80
-13.18
-14.33
-14.89
-14.62
-13.48
-11.68
-9.50
-7.23
-5.01
-2.87
-0.75
1.32
3.25
4.90
6.14
6.91
7.22
7.10
6.61
5.83
4.85
3.78
2.75
1.87
1.26
0.98
1.05
1.45
2.15
3.02
3.93
4.72
5.31
5.63
5.69
5.48
4.99
4.26
3.34
2.40
1.59
1.00
0.61
0.29
-0.13
-0.86
-2.03
-3.66
-5.69
-7.93
-10.18
-12.21
-13.79
-14.72
-14.90
-14.26
-12.80
-10.56
-7.64
-4.30
-0.77
2.60
5.57
7.96
9.75
10.98
11.72
12.03
11.96
11.58
10.94
10.21
9.53
9.07
8.88
8.91
9.03
9.10
9.03
8.82
8.51
8.11
7.66
7.13
6.49
5.76
4.94
4.07
3.12
2.04
0.82
-0.53
-1.98
-3.44
-4.80
-6.04
-7.09
-7.92
-8.53
-8.97
-9.42
-10.02
-11.02
-12.51
-14.33
-16.13
-17.50
-18.04
-17.58
-16.19
-14.12
-11.71
-9.27
-6.93
-4.82
-2.91
-1.21
0.31
1.61
2.67
3.46
4.00
4.39
4.78
5.32
6.01
6.80
7.55
8.18
8.73
9.35
10.25
11.44
12.84
14.18
15.18
15.69
15.73
15.45
15.00
14.44
13.74
12.85
11.75
10.49
9.13
7.76
6.39
4.97
3.50
1.96
0.34
-1.29
-2.93
-4.57
-6.19
-7.75
-9.18
-10.42
-11.44
-12.32
-13.18
-14.20
-15.49
-17.08
-18.81
-20.41
-21.55
-21.89
-21.13
-19.17
-16.07
-12.09
-7.67
-3.27
0.66
3.83
6.11
7.59
8.44
8.87
9.04
9.01
8.79
8.42
7.94
7.49
7.21
7.22
7.56
8.21
9.10
10.20
11.46
12.81
14.14
15.28
16.00
16.15
15.75
14.90
13.81
12.63
11.48
10.40
9.36
8.27
7.01
5.45
3.53
1.37
-0.81
-2.71
-4.18
-5.24
-6.09
-6.96
-7.99
-9.10
-10.08
-10.70
-10.85
-10.61
-10.20
-9.84
-9.75
-10.06
-10.83
-12.07
-13.78
-15.84
-17.98
-19.79
-20.87
-20.91
-19.78
-17.65
-14.85
-11.77
-8.73
-5.92
-3.38
-1.14
0.78
2.33
3.50
4.34
4.97
5.62
6.43
7.48
8.67
9.81
10.66
11.05
10.95
10.51
9.98
9.47
9.07
8.71
8.36
7.97
7.59
7.33
7.30
7.52
7.87
8.21
8.34
8.19
7.78
7.25
6.80
6.53
6.38
6.14
5.57
4.58
3.23
1.75
0.41
-0.66
-1.52
-2.30
-3.18
-4.16
-5.18
-6.15
-6.96
-7.62
-8.17
-8.66
-9.15
-9.77
-10.60
-11.72
-13.03
-14.34
-15.35
-15.77
-15.43
-14.28
-12.44
-10.14
-7.59
-5.00
-2.54
-0.31
1.58
3.15
4.42
5.52
6.54
7.52
8.43
9.22
9.74
9.91
9.69
9.06
8.15
7.07
5.97
5.01
4.33
3.95
3.83
3.86
3.90
3.85
3.65
3.31
2.91
2.51
2.15
1.82
1.50
1.15
0.78
0.41
0.07
-0.25
-0.62
-1.11
-1.83
-2.80
-3.98
-5.22
-6.44
-7.60
-8.74
-9.93
-11.17
-12.41
-13.53
-14.34
-14.70
-14.56
-13.96
-12.98
-11.66
-10.05
-8.16
-6.07
-3.82
-1.51
0.81
3.07
5.18
7.03
8.51
9.51
10.06
10.23
10.14
9.96
9.82
9.82
10.06
10.58
11.37
12.33
13.25
13.91
14.21
14.12
13.69
13.05
12.22
11.17
9.84
8.22
6.45
4.69
3.11
1.81
0.77
-0.06
-0.74
-1.32
-1.79
-2.15
-2.36
-2.43
-2.41
-2.39
-2.50
-2.86
-3.52
-4.44
-5.53
-6.63
-7.65
-8.56
-9.48
-10.53
-11.82
-13.31
-14.91
-16.42
-17.60
-18.20
-18.05
-17.07
-15.31
-12.91
-10.11
-7.15
-4.19
-1.37
1.25
3.57
5.53
7.05
8.13
8.87
9.35
9.71
9.96
10.00
9.71
9.05
8.09
7.06
6.22
5.66
5.43
5.36
5.32
5.24
5.21
5.34
5.74
6.41
7.19
7.94
8.46
8.73
8.78
8.69
8.50
8.17
7.65
6.84
5.75
4.44
2.99
1.56
0.23
-0.94
-1.93
-2.77
-3.50
-4.15
-4.81
-5.52
-6.29
-7.20
-8.23
-9.39
-10.64
-11.91
-13.18
-14.44
-15.71
-16.97
-18.15
-19.07
-19.55
-19.30
-18.17
-16.15
-13.41
-10.27
-6.99
-3.83
-0.88
1.78
4.08
5.95
7.29
8.04
8.29
8.20
7.95
7.71
7.47
7.21
6.93
6.67
6.54
6.61
6.92
7.39
7.93
8.50
9.05
9.53
9.93
10.17
10.14
9.85
9.33
8.67
8.01
7.36
6.70
6.00
5.30
4.57
3.89
3.27
2.64
1.94
1.13
0.21
-0.73
-1.51
-2.11
-2.54
-2.88
-3.28
-3.80
-4.44
-5.21
-6.07
-7.09
-8.31
-9.72
-11.25
-12.82
-14.26
-15.49
-16.42
-16.92
-16.85
-16.12
-14.66
-12.56
-10.12
-7.57
-5.23
-3.19
-1.50
-0.18
0.69
1.09
0.99
0.50
-0.15
-0.76
-1.20
-1.34
-1.19
-0.77
-0.07
0.88
2.06
3.42
4.86
6.27
7.61
8.73
9.56
10.01
10.09
9.84
9.38
8.80
8.14
7.41
6.53
5.53
4.42
3.24
2.03
0.83
-0.38
-1.57
-2.66
-3.58
-4.18
-4.38
-4.23
-3.88
-3.53
-3.44
-3.80
-4.67
-6.03
-7.69
-9.40
-10.90
-11.90
-12.26
-11.96
-11.08
-9.74
-8.14
-6.45
-4.84
-3.46
-2.36
-1.51
-0.85
-0.20
0.50
1.23
1.90
2.39
2.65
2.74
2.76
2.83
3.06
3.51
4.15
4.95
5.82
6.65
7.35
7.83
8.01
7.93
7.54
6.87
5.96
4.94
3.95
3.15
2.61
2.27
2.01
1.62
1.02
0.24
-0.68
-1.63
-2.54
-3.42
-4.30
-5.25
-6.31
-7.49
-8.79
-10.21
-11.66
-13.02
-14.10
-14.70
-14.61
-13.74
-12.06
-9.68
-6.88
-3.97
-1.21
1.19
3.11
4.58
5.62
6.30
6.69
6.88
6.95
7.01
7.03
7.04
7.03
6.94
6.87
6.87
7.00
7.28
7.69
8.11
8.51
8.87
9.17
9.39
9.53
9.47
9.12
8.48
7.55
6.47
5.41
4.43
3.58
2.79
1.94
1.02
0.10
-0.71
-1.31
-1.65
-1.83
-1.95
-2.15
-2.46
-2.92
-3.51
-4.25
-5.08
-5.93
-6.66
-7.17
-7.55
-7.94
-8.53
-9.44
-10.63
-11.85
-12.87
-13.51
-13.71
-13.53
-13.05
-12.29
-11.24
-9.92
-8.33
-6.51
-4.47
-2.20
0.28
2.83
5.21
7.10
8.24
8.56
8.19
7.33
6.21
4.98
3.75
2.63
1.76
1.34
1.45
2.05
2.98
3.99
4.79
5.28
5.43
5.33
5.19
5.15
5.30
5.62
6.03
6.34
6.48
6.38
6.04
5.56
5.01
4.41
3.75
2.99
2.07
0.99
-0.27
-1.69
-3.21
-4.72
-6.04
-7.05
-7.71
-8.08
-8.28
-8.49
-8.88
-9.52
-10.44
-11.55
-12.65
-13.54
-13.95
-13.69
-12.68
-10.97
-8.69
-6.11
-3.46
-0.93
1.31
3.25
4.90
6.33
7.55
8.55
9.29
9.68
9.69
9.37
8.82
8.15
7.52
7.00
6.61
6.32
6.13
6.00
5.89
5.75
5.53
5.22
4.86
4.49
4.15
3.85
3.56
3.22
2.85
2.44
2.05
1.75
1.49
1.19
0.71
-0.02
-1.04
-2.24
-3.52
-4.72
-5.78
-6.68
-7.42
-8.09
-8.77
-9.59
-10.63
-11.82
-13.01
-13.90
-14.18
-13.61
-12.12
-9.87
-7.16
-4.38
-1.82
0.36
2.17
3.68
5.02
6.23
7.28
8.16
8.83
9.26
9.43
9.33
8.92
8.22
7.28
6.22
5.18
4.28
3.57
3.08
2.85
2.93
3.32
3.96
4.66
5.20
5.41
5.11
4.39
3.36
2.25
1.13
0.06
-0.98
-1.99
-2.97
-3.93
-4.82
-5.64
-6.39
-7.05
-7.60
-8.06
-8.50
-9.03
-9.79
-10.78
-11.87
-12.80
-13.28
-13.08
-12.21
-10.77
-9.01
-7.10
-5.21
-3.40
-1.67
-0.01
1.54
2.95
4.13
5.06
5.71
6.10
6.29
6.39
6.56
6.89
7.45
8.25
9.22
10.24
11.15
11.78
11.97
11.67
10.87
9.66
8.27
6.94
5.89
5.27
5.12
5.36
5.80
6.29
6.72
7.02
7.19
7.20
7.00
6.57
5.92
5.04
4.01
2.89
1.69
0.36
-1.12
-2.76
-4.49
-6.18
-7.66
-8.82
-9.65
-10.28
-10.89
-11.70
-12.76
-13.97
-15.06
-15.66
-15.49
-14.45
-12.68
-10.45
-8.12
-5.93
-3.94
-2.16
-0.49
1.14
2.70
4.12
5.36
6.44
7.38
8.28
9.13
9.92
10.52
10.85
10.83
10.43
9.74
8.91
8.12
7.55
7.34
7.42
7.67
7.87
7.86
7.63
7.25
6.85
6.44
6.07
5.69
5.30
4.98
4.77
4.68
4.58
4.27
3.57
2.43
0.98
-0.63
-2.21
-3.63
-4.84
-5.87
-6.73
-7.43
-7.90
-8.16
-8.23
-8.28
-8.51
-9.12
-10.23
-11.79
-13.58
-15.27
-16.53
-17.14
-16.96
-16.00
-14.35
-12.17
-9.63
-6.91
-4.17
-1.50
1.01
3.37
5.52
7.37
8.85
9.97
10.72
11.15
11.29
11.19
10.87
10.41
9.94
9.66
9.70
10.06
10.55
10.90
10.88
10.33
9.32
7.96
6.38
4.67
2.92
1.25
-0.20
-1.24
-1.80
-1.92
-1.86
-1.87
-2.21
-2.93
-3.89
-4.86
-5.67
-6.26
-6.67
-7.04
-7.49
-8.05
-8.69
-9.38
-10.12
-10.99
-12.03
-13.23
-14.45
-15.36
-15.57
-14.80
-12.96
-10.25
-7.11
-3.96
-1.12
1.28
3.30
5.00
6.34
7.23
7.54
7.26
6.53
5.63
4.77
4.12
3.65
3.30
3.00
2.73
2.56
2.60
2.95
3.58
4.37
5.17
5.80
6.18
6.30
6.18
5.89
5.49
4.98
4.36
3.62
2.75
1.77
0.63
-0.69
-2.17
-3.74
-5.27
-6.60
-7.67
-8.45
-9.01
-9.48
-9.97
-10.48
-10.97
-11.24
-11.06
-10.32
-9.00
-7.17
-4.98
-2.64
-0.35
1.72
3.44
4.72
5.50
5.81
5.79
5.66
5.59
5.70
5.97
6.32
6.61
6.67
6.46
6.04
5.60
5.34
5.38
5.67
6.12
6.58
6.96
7.26
7.53
7.76
7.87
7.69
7.11
6.09
4.81
3.50
2.40
1.66
1.26
1.10
1.07
1.05
0.91
0.59
0.02
-0.85
-1.98
-3.31
-4.71
-6.07
-7.38
-8.75
-10.30
-12.08
-14.02
-15.88
-17.30
-17.95
-17.58
-16.22
-14.06
-11.42
-8.65
-6.07
-3.85
-2.10
-0.76
0.23
0.96
1.61
2.30
3.06
3.94
4.87
5.72
6.41
6.85
7.07
7.20
7.39
7.83
8.63
9.81
11.22
12.69
13.97
14.84
15.22
15.11
14.59
13.81
12.84
11.72
10.49
9.21
7.95
6.85
5.95
5.25
4.62
3.88
2.95
1.81
0.60
-0.54
-1.51
-2.38
-3.29
-4.38
-5.69
-7.14
-8.58
-9.90
-11.07
-12.18
-13.36
-14.63
-15.96
-17.16
-18.03
-18.36
-18.02
-16.92
-15.06
-12.59
-9.69
-6.63
-3.62
-0.81
1.71
3.90
5.76
7.23
8.25
8.81
8.90
8.63
8.07
7.33
6.48
5.65
4.94
4.48
4.36
4.53
4.93
5.42
5.93
6.42
6.92
7.44
7.91
8.25
8.32
7.96
7.15
5.94
4.51
3.08
1.81
0.83
0.11
-0.51
-1.16
-1.93
-2.78
-3.58
-4.21
-4.62
-4.86
-5.13
-5.62
-6.49
-7.82
-9.55
-11.46
-13.27
-14.58
-15.07
-14.58
-13.08
-10.82
-8.05
-5.15
-2.37
0.12
2.25
4.00
5.39
6.41
7.12
7.59
7.90
8.12
8.27
8.29
8.14
7.84
7.47
7.18
7.06
7.06
7.07
6.91
6.50
5.88
5.14
4.40
3.64
2.83
1.93
0.90
-0.12
-1.06
-1.88
-2.62
-3.34
-4.11
-4.92
-5.75
-6.52
-7.16
-7.65
-7.98
-8.19
-8.37
-8.64
-9.12
-9.87
-10.82
-11.80
-12.58
-12.94
-12.71
-11.82
-10.30
-8.23
-5.72
-2.95
-0.09
2.67
5.20
7.39
9.16
10.49
11.39
11.94
12.20
12.25
12.10
11.73
11.16
10.48
9.88
9.59
9.73
10.22
10.84
11.36
11.62
11.64
11.53
11.37
11.16
10.72
9.87
8.54
6.82
5.01
3.37
2.05
1.02
0.08
-0.91
-2.04
-3.30
-4.52
-5.58
-6.34
-6.78
-6.94
-6.91
-6.82
-6.81
-7.04
-7.65
-8.70
-10.18
-12.00
-13.95
-15.83
-17.33
-18.18
-18.17
-17.28
-15.63
-13.53
-11.29
-9.07
-6.98
-4.98
-2.99
-1.01
0.91
2.62
3.99
5.02
5.80
6.43
7.07
7.78
8.55
9.35
10.13
10.82
11.40
11.88
12.22
12.38
12.37
12.16
11.78
11.25
10.63
10.01
9.50
9.17
9.05
9.08
9.11
8.95
8.43
7.54
6.39
5.16
4.01
3.00
2.05
1.04
-0.17
-1.60
-3.12
-4.57
-5.88
-7.03
-8.09
-9.09
-10.03
-10.89
-11.61
-12.25
-12.93
-13.81
-14.94
-16.20
-17.32
-17.87
-17.55
-16.24
-14.03
-11.20
-8.10
-4.99
-2.08
0.47
2.57
4.20
5.33
5.99
6.23
6.20
6.02
5.76
5.49
5.29
5.19
5.22
5.34
5.50
5.69
5.90
6.14
6.41
6.74
7.08
7.39
7.65
7.85
8.03
8.22
8.41
8.50
8.41
8.03
7.26
6.11
4.52
2.58
0.38
-1.91
-4.17
-6.33
-8.42
-10.50
-12.64
-14.86
-17.07
-19.16
-20.95
-22.30
-23.06
-23.08
-22.26
-20.56
-18.03
-14.87
-11.31
-7.61
-4.01
-0.72
2.13
4.52
6.48
8.13
9.59
10.87
11.87
12.48
12.54
12.09
11.29
10.37
9.56
8.98
8.64
8.54
8.65
8.94
9.32
9.70
9.89
9.75
9.25
8.47
7.58
6.71
5.83
4.82
3.56
2.01
0.28
-1.42
-2.91
-4.13
-5.10
-5.87
-6.48
-6.88
-6.99
-6.82
-6.52
-6.34
-6.49
-7.09
-8.11
-9.43
-10.88
-12.37
-13.80
-15.02
-15.87
-16.12
-15.58
-14.21
-12.07
-9.35
-6.29
-3.19
-0.28
2.24
4.26
5.80
6.85
7.56
8.09
8.55
8.96
9.29
9.44
9.34
9.00
8.52
8.03
7.72
7.71
8.01
8.54
9.13
9.58
9.81
9.78
9.54
9.22
8.91
8.72
8.61
8.54
8.40
8.14
7.73
7.15
6.40
5.44
4.33
3.12
1.87
0.66
-0.46
-1.45
-2.35
-3.16
-3.96
-4.75
-5.61
-6.60
-7.70
-8.83
-9.85
-10.61
-11.05
-11.32
-11.62
-12.27
-13.40
-14.94
-16.60
-17.93
-18.53
-18.16
-16.91
-14.99
-12.72
-10.35
-7.93
-5.49
-3.00
-0.50
1.84
3.80
5.20
5.97
6.25
6.28
6.24
6.31
6.51
6.71
6.86
6.97
7.14
7.52
8.22
9.22
10.40
11.56
12.49
13.11
13.43
13.51
13.42
13.14
12.53
11.49
9.94
7.94
5.72
3.59
1.75
0.36
-0.60
-1.27
-1.79
-2.29
-2.83
-3.40
-4.01
-4.62
-5.14
-5.60
-6.09
-6.73
-7.72
-9.22
-11.22
-13.60
-16.13
-18.44
-20.17
-20.99
-20.64
-18.98
-16.08
-12.22
-7.87
-3.64
0.03
2.85
4.80
6.07
6.86
7.28
7.34
7.01
6.26
5.26
4.17
3.27
2.68
2.46
2.54
2.90
3.49
4.26
5.17
6.13
7.02
7.71
8.12
8.25
8.12
7.74
7.15
6.32
5.32
4.19
3.02
1.84
0.66
-0.58
-1.95
-3.47
-5.04
-6.52
-7.72
-8.62
-9.34
-10.09
-11.08
-12.40
-13.98
-15.57
-16.89
-17.69
-17.84
-17.32
-16.20
-14.54
-12.48
-10.12
-7.65
-5.20
-2.86
-0.69
1.37
3.28
5.08
6.68
8.03
9.09
9.80
10.19
10.23
9.96
9.49
8.96
8.55
8.39
8.54
8.94
9.47
10.05
10.62
11.16
11.61
11.86
11.74
11.13
10.02
8.54
6.91
5.35
4.05
3.04
2.26
1.62
1.04
0.49
0.01
-0.39
-0.78
-1.28
-2.00
-3.04
-4.39
-5.98
-7.67
-9.39
-11.02
-12.57
-14.06
-15.46
-16.71
-17.68
-18.23
-18.16
-17.35
-15.76
-13.49
-10.76
-7.85
-5.06
-2.60
-0.64
0.81
1.76
2.32
2.59
2.70
2.74
2.73
2.72
2.72
2.75
2.83
3.03
3.46
4.23
5.43
7.02
8.85
10.73
12.35
13.55
14.24
14.43
14.22
13.67
12.85
11.86
10.84
9.88
9.08
8.53
8.20
8.00
7.80
7.50
7.07
6.54
5.96
5.34
4.64
3.80
2.73
1.39
-0.16
-1.75
-3.19
-4.34
-5.19
-5.83
-6.43
-7.11
-7.94
-8.86
-9.77
-10.58
-11.27
-11.90
-12.58
-13.44
-14.45
-15.48
-16.23
-16.38
-15.70
-14.14
-11.86
-9.09
-6.19
-3.44
-0.98
1.12
2.85
4.31
5.55
6.61
7.49
8.16
8.59
8.76
8.69
8.44
8.11
7.76
7.38
6.96
6.53
6.20
6.10
6.32
6.85
7.58
8.37
9.07
9.66
10.14
10.53
10.77
10.71
10.22
9.27
7.97
6.55
5.29
4.39
3.86
3.66
3.65
3.69
3.60
3.27
2.65
1.74
0.54
-0.90
-2.52
-4.27
-6.06
-7.79
-9.40
-10.83
-12.11
-13.34
-14.58
-15.88
-17.15
-18.23
-18.89
-18.92
-18.17
-16.61
-14.36
-11.65
-8.78
-6.00
-3.47
-1.20
0.89
2.91
4.82
6.54
7.89
8.66
8.76
8.19
7.08
5.59
3.86
2.04
0.27
-1.24
-2.30
-2.75
-2.50
-1.60
-0.21
1.48
3.30
5.14
6.90
8.48
9.70
10.36
10.37
9.72
8.57
7.16
5.67
4.14
2.46
0.50
-1.80
-4.32
-6.82
-9.06
-10.94
-12.56
-14.10
-15.79
-17.67
-19.54
-20.98
-21.52
-20.77
-18.65
-15.37
-11.34
-7.09
-3.04
0.64
3.83
6.49
8.53
9.80
10.19
9.81
8.90
7.86
7.05
6.67
6.73
7.13
7.67
8.21
8.71
9.18
9.66
10.17
10.62
10.92
11.05
11.00
10.87
10.75
10.66
10.58
10.41
10.02
9.36
8.42
7.25
5.93
4.53
3.05
1.47
-0.20
-1.95
-3.70
-5.27
-6.57
-7.49
-8.05
-8.36
-8.59
-8.85
-9.25
-9.84
-10.64
-11.67
-12.92
-14.35
-15.83
-17.13
-17.92
-17.95
-17.10
-15.35
-12.85
-9.83
-6.52
-3.22
-0.12
2.56
4.72
6.34
7.49
8.23
8.64
8.72
8.53
8.13
7.66
7.24
7.00
6.98
7.18
7.58
8.18
9.00
9.96
10.88
11.58
11.90
11.77
11.28
10.61
9.93
9.38
8.97
8.63
8.24
7.73
6.98
5.95
4.62
3.03
1.29
-0.41
-1.95
-3.15
-3.99
-4.56
-4.94
-5.24
-5.56
-5.93
-6.35
-6.79
-7.21
-7.66
-8.20
-8.91
-9.93
-11.30
-13.04
-15.01
-16.95
-18.52
-19.41
-19.42
-18.53
-16.82
-14.49
-11.77
-8.89
-6.05
-3.41
-1.07
0.93
2.63
4.09
5.37
6.43
7.21
7.67
7.78
7.62
7.37
7.15
7.03
7.02
7.10
7.23
7.40
7.63
7.91
8.28
8.72
9.23
9.76
10.21
10.49
10.47
10.10
9.42
8.57
7.70
6.92
6.21
5.43
4.40
2.98
1.13
-1.00
-3.19
-5.27
-7.15
-8.86
-10.56
-12.31
-14.13
-15.93
-17.55
-18.86
-19.75
-20.08
-19.70
-18.49
-16.36
-13.41
-9.93
-6.29
-2.90
0.01
2.37
4.27
5.79
7.02
7.98
8.65
8.98
8.95
8.59
7.98
7.26
6.54
5.92
5.50
5.32
5.44
5.86
6.54
7.33
8.04
8.50
8.59
8.30
7.74
7.06
6.30
5.50
4.67
3.84
3.13
2.55
2.05
1.43
0.46
-0.95
-2.81
-4.90
-6.96
-8.78
-10.33
-11.68
-13.01
-14.44
-15.99
-17.54
-18.86
-19.63
-19.58
-18.55
-16.52
-13.63
-10.22
-6.66
-3.25
-0.24
2.30
4.40
6.13
7.58
8.80
9.79
10.53
11.05
11.35
11.47
11.46
11.29
10.98
10.50
9.90
9.35
9.02
8.96
9.23
9.66
10.03
10.19
10.05
9.72
9.39
9.20
9.08
8.94
8.63
8.03
7.21
6.24
5.18
4.01
2.70
1.20
-0.46
-2.14
-3.81
-5.42
-7.00
-8.62
-10.26
-11.90
-13.46
-14.94
-16.40
-17.95
-19.55
-21.09
-22.32
-22.89
-22.50
-20.97
-18.35
-14.86
-10.87
-6.74
-2.82
0.64
3.50
5.70
7.23
8.10
8.43
8.40
8.21
7.98
7.70
7.35
6.81
6.09
5.34
4.79
4.68
5.15
6.15
7.53
9.08
10.62
12.02
13.18
14.07
14.67
15.03
15.17
15.14
14.90
14.41
13.56
12.28
10.61
8.64
6.51
4.40
2.45
0.73
-0.75
-2.01
-3.11
-4.11
-5.04
-5.89
-6.64
-7.22
-7.58
-7.71
-7.64
-7.46
-7.31
-7.36
-7.81
-8.77
-10.33
-12.48
-15.07
-17.84
-20.45
-22.48
-23.49
-23.16
-21.31
-18.05
-13.74
-8.90
-4.11
0.18
3.72
6.44
8.43
9.78
10.57
10.78
10.43
9.62
8.58
7.54
6.69
6.15
5.93
5.94
6.11
6.38
6.75
7.26
7.94
8.80
9.79
10.84
11.85
12.65
13.10
13.07
12.52
11.44
9.91
8.07
6.07
4.05
2.01
-0.07
-2.19
-4.33
-6.40
-8.28
-9.89
-11.23
-12.37
-13.39
-14.37
-15.28
-16.12
-16.89
-17.59
-18.13
-18.30
-17.80
-16.36
-13.92
-10.64
-6.94
-3.25
0.09
2.97
5.40
7.46
9.17
10.42
11.13
11.25
10.89
10.26
9.52
8.78
7.97
6.99
5.76
4.35
2.98
1.98
1.59
1.91
2.80
3.94
5.04
5.81
6.19
6.23
5.99
5.61
5.07
4.43
3.62
2.66
1.57
0.36
-0.92
-2.30
-3.72
-5.17
-6.57
-7.89
-9.17
-10.46
-11.89
-13.50
-15.35
-17.34
-19.38
-21.23
-22.66
-23.38
-23.12
-21.68
-19.02
-15.31
-10.87
-6.18
-1.65
2.41
5.78
8.43
10.36
11.70
12.58
13.15
13.55
13.89
14.20
14.42
14.47
14.23
13.73
13.06
12.40
11.90
11.73
11.88
12.28
12.78
13.13
13.13
12.68
11.81
10.68
9.56
8.65
8.04
7.66
7.29
6.74
5.93
4.91
3.82
2.81
1.87
0.94
-0.18
-1.56
-3.25
-5.14
-7.04
-8.82
-10.41
-11.81
-13.05
-14.22
-15.42
-16.67
-18.08
-19.64
-21.28
-22.76
-23.70
-23.72
-22.53
-20.11
-16.75
-12.96
-9.22
-5.91
-3.09
-0.61
1.74
4.12
6.51
8.84
10.97
12.80
14.29
15.41
16.10
16.34
16.13
15.54
14.75
13.99
13.44
13.21
13.31
13.66
14.10
14.51
14.73
14.66
14.22
13.41
12.25
10.80
9.21
7.55
5.91
4.35
2.90
1.57
0.44
-0.45
-1.06
-1.40
-1.59
-1.76
-2.13
-2.86
-4.07
-5.72
-7.67
-9.71
-11.61
-13.24
-14.57
-15.67
-16.66
-17.65
-18.75
-20.02
-21.42
-22.79
-23.80
-24.01
-23.01
-20.62
-16.99
-12.53
-7.88
-3.62
-0.06
2.69
4.76
6.37
7.63
8.60
9.29
9.73
9.97
10.14
10.30
10.50
10.69
10.81
10.78
10.61
10.41
10.23
10.16
10.18
10.23
10.22
10.13
9.97
9.78
9.57
9.34
9.09
8.79
8.40
7.91
7.30
6.62
5.94
5.34
4.87
4.51
4.10
3.51
2.59
1.28
-0.29
-1.97
-3.63
-5.28
-6.99
-8.88
-11.01
-13.35
-15.80
-18.20
-20.37
-22.07
-23.14
-23.39
-22.63
-20.79
-17.93
-14.30
-10.26
-6.24
-2.57
0.55
3.05
5.00
6.48
7.51
8.08
8.14
7.67
6.79
5.74
4.76
4.03
3.65
3.57
3.73
4.07
4.58
5.24
6.00
6.77
7.39
7.75
7.85
7.72
7.46
7.15
6.81
6.42
5.97
5.49
4.96
4.37
3.66
2.80
1.72
0.44
-1.00
-2.44
-3.80
-5.09
-6.39
-7.87
-9.66
-11.82
-14.22
-16.63
-18.69
-20.07
-20.53
-19.98
-18.44
-16.05
-13.00
-9.54
-5.91
-2.35
0.99
3.97
6.52
8.56
10.06
10.93
11.27
11.22
10.97
10.68
10.38
10.04
9.54
8.90
8.30
7.98
8.15
8.81
9.82
10.90
11.81
12.42
12.76
12.85
12.69
12.13
11.16
9.81
8.26
6.77
5.49
4.47
3.66
2.96
2.31
1.71
1.16
0.59
-0.14
-1.19
-2.66
-4.47
-6.49
-8.49
-10.29
-11.82
-13.05
-14.08
-15.05
-16.13
-17.41
-18.79
-20.06
-20.96
-21.14
-20.37
-18.57
-15.89
-12.57
-8.93
-5.26
-1.83
1.19
3.64
5.48
6.68
7.28
7.35
7.02
6.49
5.96
5.58
5.44
5.52
5.78
6.13
6.58
7.18
7.94
8.83
9.74
10.52
11.02
11.22
11.20
11.07
10.86
10.53
10.04
9.38
8.67
8.10
7.85
7.92
8.20
8.43
8.36
7.88
7.07
6.07
5.01
3.97
2.90
1.70
0.31
-1.25
-2.84
-4.33
-5.65
-6.82
-7.92
-9.01
-10.11
-11.14
-12.10
-13.04
-14.11
-15.44
-17.08
-18.83
-20.27
-20.93
-20.41
-18.61
-15.72
-12.16
-8.47
-5.04
-2.08
0.40
2.53
4.47
6.25
7.88
9.33
10.49
11.34
11.85
12.00
11.81
11.29
10.52
9.61
8.73
8.05
7.74
7.87
8.39
9.11
9.76
10.07
9.87
9.19
8.22
7.18
6.28
5.58
5.09
4.71
4.41
4.17
4.00
3.83
3.58
3.09
2.22
0.92
-0.80
-2.89
-5.20
-7.56
-9.80
-11.78
-13.42
-14.76
-15.89
-16.98
-18.12
-19.31
-20.48
-21.46
-22.08
-22.08
-21.27
-19.51
-16.84
-13.49
-9.83
-6.25
-3.03
-0.29
2.03
4.02
5.76
7.24
8.42
9.26
9.80
10.10
10.29
10.43
10.51
10.47
10.33
10.02
9.60
9.14
8.67
8.18
7.61
6.88
5.94
4.80
3.48
2.03
0.56
-0.86
-2.12
-3.21
-4.19
-5.14
-6.11
-7.11
-8.04
-8.75
-9.12
-9.13
-8.85
-8.47
-8.18
-8.12
-8.39
-9.00
-9.86
-10.88
-11.80
-12.34
-12.28
-11.44
-9.80
-7.44
-4.62
-1.65
1.07
3.24
4.68
5.42
5.62
5.51
5.27
4.94
4.48
3.85
3.06
2.22
1.49
1.08
1.11
1.64
2.65
4.12
5.96
8.02
10.11
11.97
13.38
14.12
14.11
13.42
12.20
10.64
8.94
7.19
5.41
3.65
1.94
0.41
-0.84
-1.73
-2.28
-2.58
-2.78
-3.01
-3.36
-3.89
-4.60
-5.57
-6.85
-8.51
-10.53
-12.78
-15.07
-17.15
-18.73
-19.62
-19.71
-18.94
-17.37
-15.08
-12.21
-8.96
-5.57
-2.28
0.66
3.05
4.82
6.06
6.88
7.42
7.81
8.11
8.29
8.39
8.39
8.27
8.08
7.84
7.60
7.40
7.31
7.32
7.41
7.59
7.87
8.32
8.96
9.75
10.51
11.01
11.05
10.54
9.59
8.32
6.89
5.38
3.85
2.31
0.83
-0.50
-1.56
-2.28
-2.65
-2.70
-2.55
-2.41
-2.49
-3.00
-4.04
-5.56
-7.39
-9.33
-11.22
-12.98
-14.65
-16.28
-17.84
-19.25
-20.30
-20.74
-20.37
-19.01
-16.66
-13.51
-9.92
-6.32
-3.11
-0.49
1.53
3.08
4.33
5.36
6.17
6.69
6.88
6.82
6.64
6.50
6.57
6.96
7.67
8.68
9.90
11.18
12.38
13.38
14.10
14.52
14.69
14.63
14.40
14.03
13.46
12.60
11.40
9.84
8.01
6.08
4.24
2.67
1.45
0.53
-0.21
-0.89
-1.63
-2.40
-3.18
-3.86
-4.37
-4.71
-4.93
-5.11
-5.39
-5.89
-6.72
-7.98
-9.65
-11.63
-13.81
-16.01
-17.95
-19.33
-19.80
-19.17
-17.34
-14.49
-11.02
-7.36
-3.88
-0.77
1.99
4.51
6.81
8.85
10.44
11.42
11.69
11.32
10.50
9.48
8.53
7.79
7.27
6.87
6.47
6.02
5.62
5.37
5.38
5.62
5.97
6.21
6.19
5.87
5.32
4.68
4.02
3.34
2.57
1.65
0.47
-0.91
-2.42
-3.95
-5.41
-6.80
-8.23
-9.78
-11.57
-13.65
-15.94
-18.30
-20.51
-22.29
-23.39
-23.58
-22.68
-20.67
-17.68
-13.97
-9.88
-5.75
-1.78
1.85
5.06
7.79
9.96
11.53
12.55
13.08
13.26
13.29
13.26
13.24
13.21
13.13
12.99
12.79
12.55
12.30
12.15
12.13
12.24
12.41
12.49
12.32
11.81
10.93
9.73
8.38
7.02
5.80
4.79
3.98
3.31
2.69
2.05
1.39
0.71
0.09
-0.42
-0.82
-1.22
-1.75
-2.54
-3.66
-5.10
-6.79
-8.60
-10.40
-12.15
-13.84
-15.52
-17.23
-18.97
-20.67
-22.15
-23.18
-23.51
-22.92
-21.36
-18.89
-15.65
-11.88
-7.78
-3.59
0.44
4.08
7.12
9.44
10.99
11.81
12.03
11.82
11.38
10.87
10.49
10.31
10.38
10.61
10.91
11.17
11.41
11.67
11.98
12.37
12.77
13.09
13.27
13.24
12.93
12.33
11.39
10.16
8.81
7.50
6.38
5.48
4.70
3.88
3.01
2.17
1.55
1.29
1.39
1.66
1.90
1.91
1.62
1.09
0.34
-0.63
-1.90
-3.50
-5.41
-7.45
-9.45
-11.21
-12.66
-13.80
-14.74
-15.60
-16.53
-17.61
-18.82
-20.02
-20.97
-21.41
-21.13
-20.00
-18.01
-15.29
-12.03
-8.48
-4.94
-1.66
1.10
3.18
4.56
5.38
5.76
5.94
6.03
6.10
6.13
6.14
6.08
5.98
5.90
5.95
6.23
6.81
7.72
8.89
10.21
11.58
12.89
14.08
15.17
16.15
16.95
17.45
17.55
17.11
16.15
14.81
13.30
11.82
10.54
9.49
8.55
7.61
6.55
5.30
3.86
2.22
0.33
-1.76
-3.96
-6.20
-8.30
-10.21
-11.86
-13.33
-14.67
-15.97
-17.36
-18.88
-20.55
-22.26
-23.79
-24.81
-24.96
-24.07
-22.13
-19.39
-16.18
-12.80
-9.44
-6.20
-3.21
-0.62
1.40
2.80
3.66
4.20
4.65
5.20
5.79
6.30
6.58
6.53
6.23
5.84
5.53
5.45
5.63
6.01
6.45
6.80
6.91
6.76
6.38
5.90
5.41
4.98
4.57
4.18
3.76
3.32
2.86
2.34
1.72
0.90
-0.17
-1.53
-3.09
-4.73
-6.33
-7.81
-9.20
-10.65
-12.31
-14.25
-16.41
-18.50
-20.09
-20.77
-20.24
-18.52
-15.87
-12.66
-9.21
-5.75
-2.38
0.85
3.86
6.54
8.71
10.31
11.27
11.73
11.75
11.42
10.77
9.79
8.57
7.25
6.09
5.32
5.19
5.79
7.10
8.93
10.95
12.89
14.52
15.68
16.32
16.42
16.01
15.09
13.72
11.97
9.99
7.99
6.15
4.56
3.21
2.03
0.90
-0.30
-1.71
-3.40
-5.28
-7.22
-9.03
-10.53
-11.69
-12.59
-13.35
-14.13
-14.96
-15.81
-16.57
-17.13
-17.40
-17.31
-16.73
-15.52
-13.61
-11.01
-7.88
-4.48
-1.06
2.17
5.00
7.33
9.07
10.22
10.82
11.04
11.05
10.99
10.91
10.71
10.30
9.63
8.75
7.87
7.24
6.99
7.15
7.55
7.99
8.29
8.40
8.42
8.48
8.74
9.19
9.72
10.12
10.26
10.12
9.75
9.28
8.81
8.32
7.73
6.93
5.82
4.46
3.02
1.66
0.53
-0.31
-0.97
-1.58
-2.25
-3.03
-3.88
-4.76
-5.70
-6.75
-8.01
-9.59
-11.48
-13.64
-15.99
-18.47
-20.99
-23.47
-25.68
-27.31
-28.03
-27.47
-25.49
-22.13
-17.74
-12.76
-7.71
-2.98
1.14
4.56
7.35
9.53
11.10
12.00
12.24
11.89
11.20
10.47
9.96
9.85
10.12
10.63
11.18
11.66
12.02
12.32
12.62
12.95
13.31
13.68
14.01
14.25
14.36
14.29
14.03
13.58
12.94
12.15
11.26
10.30
9.32
8.39
7.53
6.82
6.24
5.69
5.00
4.07
2.80
1.25
-0.49
-2.27
-3.93
-5.42
-6.75
-7.92
-8.96
-9.87
-10.60
-11.17
-11.68
-12.32
-13.32
-14.82
-16.81
-19.08
-21.30
-23.06
-24.00
-23.95
-22.82
-20.76
-17.93
-14.55
-10.91
-7.27
-3.84
-0.75
1.90
4.13
5.95
7.35
8.25
8.55
8.23
7.38
6.18
4.92
3.85
3.16
2.87
2.96
3.34
3.93
4.63
5.36
6.03
6.59
7.01
7.30
7.52
7.71
7.94
8.18
8.43
8.59
8.62
8.42
7.96
7.18
6.12
4.82
3.37
1.93
0.50
-1.00
-2.75
-4.95
-7.70
-10.91
-14.28
-17.33
-19.57
-20.64
-20.43
-19.05
-16.75
-13.82
-10.48
-6.92
-3.26
0.32
3.63
6.51
8.83
10.56
11.69
12.19
11.96
10.98
9.29
7.03
4.50
1.98
-0.33
-2.29
-3.86
-4.98
-5.61
-5.69
-5.28
-4.50
-3.52
-2.58
-1.83
-1.32
-1.09
-1.02
-1.01
-0.99
-0.88
-0.73
-0.62
-0.71
-1.08
-1.87
-3.10
-4.73
-6.69
-8.81
-10.91
-12.76
-14.16
-15.04
-15.53
-15.87
-16.34
-17.12
-18.18
-19.41
-20.60
-21.57
-22.13
-22.11
-21.23
-19.31
-16.29
-12.25
-7.62
-2.93
1.34
4.86
7.56
9.58
11.06
12.14
12.95
13.54
14.01
14.41
14.77
15.04
15.15
15.02
14.67
14.16
13.59
13.11
12.79
12.70
12.83
13.05
13.20
13.05
12.54
11.65
10.55
9.42
8.33
7.37
6.49
5.68
4.96
4.38
3.98
3.66
3.33
2.85
2.23
1.51
0.86
0.30
-0.18
-0.70
-1.40
-2.34
-3.51
-4.80
-6.17
-7.57
-9.16
-10.97
-13.07
-15.41
-17.74
-19.74
-21.03
-21.31
-20.39
-18.26
-15.09
-11.23
-7.08
-2.99
0.78
4.09
6.91
9.16
10.75
11.55
11.53
10.79
9.64
8.36
7.23
6.36
5.71
5.16
4.66
4.25
4.06
4.27
4.87
5.77
6.81
7.81
8.73
9.62
10.52
11.43
12.25
12.76
12.81
12.34
11.50
10.57
9.81
9.36
9.11
8.87
8.41
7.62
6.50
5.11
3.49
1.64
-0.47
-2.82
-5.24
-7.47
-9.21
-10.30
-10.79
-10.85
-10.81
-10.92
-11.35
-12.15
-13.23
-14.49
-15.75
-16.88
-17.62
-17.70
-16.80
-14.74
-11.57
-7.64
-3.53
0.22
3.21
5.36
6.74
7.61
8.11
8.28
8.09
7.45
6.46
5.28
4.10
3.11
2.43
2.11
2.18
2.62
3.41
4.48
5.68
6.78
7.56
7.86
7.62
6.92
5.96
4.97
4.15
3.53
3.05
2.60
2.03
1.32
0.52
-0.23
-0.87
-1.35
-1.69
-1.92
-2.05
-2.05
-1.88
-1.57
-1.15
-0.75
-0.48
-0.52
-0.98
-1.90
-3.20
-4.64
-5.90
-6.66
-6.74
-6.09
-4.85
-3.18
-1.28
0.69
2.58
4.30
5.74
6.82
7.60
8.17
8.64
9.07
9.39
9.47
9.18
8.46
7.32
5.89
4.32
2.81
1.54
0.61
0.09
-0.02
0.21
0.65
1.15
1.60
1.94
2.14
2.16
2.01
1.68
1.23
0.71
0.24
-0.18
-0.57
-0.96
-1.45
-2.02
-2.62
-3.21
-3.72
-4.11
-4.44
-4.73
-5.05
-5.53
-6.31
-7.52
-9.19
-11.24
-13.43
-15.45
-16.96
-17.70
-17.46
-16.18
-13.96
-11.04
-7.77
-4.56
-1.74
0.48
2.12
3.25
4.07
4.67
5.10
5.36
5.48
5.58
5.78
6.20
6.87
7.72
8.59
9.39
10.08
10.74
11.42
12.12
12.75
13.12
13.06
12.52
11.58
10.41
9.17
7.99
6.89
5.87
4.89
3.93
3.00
2.13
1.34
0.65
0.08
-0.37
-0.70
-0.95
-1.15
-1.29
-1.39
-1.54
-1.88
-2.55
-3.67
-5.19
-7.05
-9.10
-11.24
-13.49
-15.86
-18.38
-20.91
-23.16
-24.77
-25.39
-24.80
-22.96
-20.04
-16.30
-12.11
-7.89
-4.01
-0.70
1.92
3.87
5.29
6.35
7.25
8.09
8.93
9.72
10.42
11.01
11.39
11.62
11.64
11.53
11.33
11.15
11.09
11.20
11.50
11.88
12.27
12.55
12.69
12.70
12.63
12.45
12.08
11.50
10.62
9.51
8.20
6.81
5.39
3.97
2.54
1.11
-0.21
-1.42
-2.39
-3.14
-3.69
-4.05
-4.28
-4.42
-4.52
-4.69
-5.04
-5.61
-6.43
-7.47
-8.68
-10.10
-11.79
-13.82
-16.13
-18.51
-20.57
-21.91
-22.27
-21.52
-19.77
-17.24
-14.26
-11.09
-7.98
-5.14
-2.72
-0.81
0.59
1.53
2.15
2.55
2.85
3.14
3.45
3.80
4.15
4.46
4.67
4.76
4.79
4.79
4.80
4.85
4.93
5.04
5.17
5.40
5.84
6.54
7.50
8.56
9.54
10.28
10.71
10.82
10.70
10.35
9.72
8.75
7.43
5.78
3.94
2.03
0.12
-1.80
-3.77
-5.86
-8.04
-10.25
-12.38
-14.31
-15.96
-17.19
-17.82
-17.67
-16.56
-14.42
-11.45
-7.97
-4.37
-0.99
2.00
4.54
6.61
8.12
9.00
9.13
8.61
7.73
6.86
6.31
6.13
6.12
6.00
5.65
5.16
4.82
4.89
5.50
6.54
7.75
8.85
9.67
10.09
10.08
9.61
8.63
7.16
5.23
3.04
0.82
-1.18
-2.74
-3.76
-4.21
-4.26
-4.17
-4.21
-4.56
-5.25
-6.18
-7.17
-8.16
-9.17
-10.32
-11.73
-13.42
-15.28
-17.07
-18.59
-19.72
-20.31
-20.30
-19.60
-18.15
-16.00
-13.26
-10.13
-6.87
-3.67
-0.70
1.89
4.07
5.78
7.09
8.02
8.68
9.07
9.20
9.05
8.60
7.96
7.28
6.73
6.44
6.46
6.76
7.34
8.13
9.04
9.91
10.60
10.96
10.95
10.65
10.20
9.76
9.39
9.08
8.83
8.63
8.44
8.17
7.69
6.80
5.46
3.77
2.07
0.71
-0.15
-0.53
-0.71
-1.04
-1.81
-3.08
-4.76
-6.61
-8.48
-10.27
-11.95
-13.58
-15.24
-16.98
-18.78
-20.52
-21.95
-22.78
-22.71
-21.57
-19.36
-16.32
-12.75
-9.02
-5.45
-2.29
0.34
2.42
4.02
5.23
6.18
6.93
7.48
7.84
8.08
8.24
8.42
8.71
9.05
9.40
9.71
9.97
10.22
10.55
10.91
11.25
11.45
11.40
11.10
10.60
10.02
9.46
8.96
8.50
8.09
7.72
7.39
7.16
7.04
7.04
7.09
7.09
6.90
6.44
5.68
4.68
3.59
2.50
1.47
0.47
-0.52
-1.54
-2.61
-3.73
-4.85
-5.92
-6.86
-7.60
-8.05
-8.23
-8.23
-8.28
-8.62
-9.45
-10.80
-12.60
-14.57
-16.45
-17.99
-18.97
-19.25
-18.73
-17.43
-15.45
-12.94
-10.08
-7.08
-4.09
-1.23
1.46
3.88
5.93
7.52
8.57
9.04
8.98
8.48
7.60
6.48
5.27
4.12
3.17
2.55
2.33
2.54
3.16
4.05
5.05
6.00
6.77
7.25
7.41
7.27
6.92
6.46
5.95
5.40
4.74
3.92
2.89
1.66
0.35
-0.89
-1.96
-2.83
-3.56
-4.27
-5.07
-5.96
-6.87
-7.79
-8.71
-9.73
-10.94
-12.31
-13.69
-14.77
-15.13
-14.40
-12.41
-9.21
-5.14
-0.63
3.90
8.13
11.95
15.43
18.74
21.96
25.13
28.08
30.61
32.53
33.76
34.41
34.76
35.25
36.29
38.21
41.12
44.82
48.93
52.93
56.18
58.35
59.72
60.98
62.91
65.90
69.82
74.03
77.45
78.62
76.59
71.45
64.38
56.96
50.28
44.41
38.21
29.77
16.59
-2.49
-26.20
-51.13
-73.00
-88.12
-94.37
-91.59
-81.14
-67.12
-52.75
-38.43
-22.60
-4.20
15.92
35.77
53.59
69.30
79.78
83.57
82.03
78.37
75.48
76.12
84.16
103.54
135.37
167.99
186.66
181.49
151.29
101.29
40.06
-23.26
-82.30
-134.83
-192.11
-263.16
-346.56
-431.68
-507.33
-567.63
-612.11
-643.80
-613.19
-499.12
-324.94
-141.40
15.58
137.36
229.68
300.85
353.67
394.81
414.45
406.22
375.19
334.77
295.95
261.63
232.44
206.06
180.58
142.19
83.55
9.87
-65.23
-130.32
-181.29
-218.96
-246.55
-267.00
-294.46
-336.85
-390.40
-443.53
-486.48
-516.23
-533.54
-540.94
-494.50
-382.91
-232.30
-84.35
36.07
125.74
190.16
236.46
270.07
294.73
304.50
296.76
276.16
252.32
232.78
218.79
208.55
199.13
187.81
166.91
132.51
86.67
34.74
-8.98
-38.21
-52.93
-57.14
-55.64
-55.65
-61.17
-71.95
-84.79
-95.85
-102.82
-102.42
-90.92
-66.24
-31.57
6.61
41.10
66.75
81.80
86.83
85.13
80.63
75.89
70.83
64.52
56.85
49.27
43.90
41.54
41.80
43.27
44.15
42.89
39.09
33.53
27.93
24.07
22.72
23.61
25.62
27.21
27.03
24.61
20.44
15.88
12.49
11.24
12.24
14.66
17.10
18.20
17.16
14.22
10.49
7.50
6.50
7.89
11.06
14.58
16.93
17.13
15.14
11.84
8.56
6.69
7.14
10.58
17.22
26.40
36.08
42.76
42.46
32.31
12.41
-13.64
-39.58
-59.02
-68.07
-66.67
-57.99
-46.51
-35.78
-27.28
-20.94
-16.10
-12.65
-11.21
-12.46
-16.24
-21.35
-26.00
-28.38
-27.58
-23.71
-17.83
-11.41
-5.56
-0.67
3.59
8.05
13.88
21.09
29.33
37.84
45.67
51.97
56.33
58.82
59.73
59.44
58.15
55.99
52.98
49.10
44.18
38.30
31.64
24.49
17.22
10.17
3.89
-1.05
-4.23
-6.01
-6.84
-7.43
-8.63
-10.95
-14.45
-18.47
-21.93
-23.78
-24.26
-23.91
-23.80
-25.23
-29.05
-35.27
-42.92
-50.57
-56.96
-62.54
-68.22
-75.44
-85.97
-101.39
-122.90
-151.28
-186.65
-220.98
-249.48
-266.81
-268.16
-251.81
-220.60
-181.67
-143.96
-114.68
-96.86
-89.52
-89.17
-90.92
-92.31
-92.94
-93.37
-93.81
-93.62
-91.84
-88.18
-83.06
-77.58
-73.27
-70.96
-70.13
-68.81
-63.85
-55.94
-45.56
-33.65
-21.65
-11.28
-3.80
0.28
1.16
-0.64
-4.73
-10.83
-19.15
-30.20
-44.52
-62.19
-82.68
-104.88
-127.38
-148.79
-167.68
-183.05
-194.36
-201.43
-204.22
-202.79
-197.27
-187.91
-175.18
-159.46
-141.34
-121.51
-100.71
-79.54
-58.47
-37.79
-17.64
1.89
20.88
39.31
57.07
73.94
89.64
103.92
116.57
127.45
136.48
143.62
148.80
151.89
152.80
151.56
148.52
144.26
139.55
135.18
131.67
129.17
127.39
125.82
123.96
121.68
119.27
117.43
117.01
118.61
122.41
128.05
135.01
142.80
151.25
160.63
171.41
184.23
199.69
218.48
241.08
267.27
295.44
322.34
343.60
355.04
354.35
342.12
321.75
298.12
275.81
257.69
244.59
235.85
230.20
226.43
223.46
220.11
215.05
207.12
195.77
181.49
165.65
150.00
136.00
124.21
114.12
104.40
93.48
80.33
64.90
48.27
32.30
18.72
8.29
0.21
-7.48
-16.93
-29.27
-43.84
-58.34
-69.89
-76.28
-76.97
-73.12
-67.05
-61.30
-57.99
-58.38
-62.68
-70.11
-78.90
-86.69
-91.13
-90.72
-85.32
-76.27
-65.82
-56.15
-48.83
-44.39
-42.60
-42.75
-43.91
-45.16
-45.57
-44.45
-41.58
-37.38
-32.87
-29.31
-27.73
-28.53
-31.20
-34.63
-37.38
-38.23
-36.61
-32.72
-27.47
-22.15
-18.03
-15.92
-15.97
-17.72
-20.33
-22.91
-24.74
-25.42
-24.85
-23.24
-21.05
-18.93
-17.62
-17.70
-19.27
-21.97
-25.06
-27.78
-29.63
-30.54
-30.78
-30.66
-30.30
-29.56
-28.16
-25.92
-22.89
-19.36
-15.70
-12.17
-8.88
-5.76
-2.78
0.11
2.85
5.34
7.49
9.19
10.28
10.49
9.47
6.89
2.67
-2.95
-9.33
-15.64
-21.05
-25.01
-27.38
-28.42
-28.59
-28.31
-27.90
-27.44
-26.98
-26.51
-26.03
-25.55
-25.00
-24.25
-23.22
-21.94
-20.54
-19.27
-18.39
-18.05
-18.24
-18.87
-19.79
-20.91
-22.10
-23.15
-23.85
-24.03
-23.64
-22.86
-21.99
-21.27
-20.69
-19.89
-18.41
-15.98
-12.72
-9.09
-5.67
-2.82
-0.56
1.23
2.61
3.36
3.16
1.76
-0.63
-3.42
-5.78
-7.04
-7.00
-5.88
-4.18
-2.40
-0.87
0.27
0.96
1.20
1.05
0.67
0.32
0.28
0.68
1.50
2.52
3.45
4.05
4.20
3.93
3.34
2.56
1.72
0.95
0.27
-0.38
-1.17
-2.29
-3.84
-5.67
-7.44
-8.75
-9.36
-9.30
-8.89
-8.43
-8.10
-7.80
-7.25
-6.14
-4.37
-2.07
0.54
3.23
5.87
8.39
10.70
12.67
14.12
14.95
15.17
14.88
14.25
13.42
12.47
11.44
10.36
9.25
8.15
7.06
6.06
5.13
4.29
3.46
2.56
1.55
0.52
-0.26
-0.49
-0.03
0.93
1.90
2.29
1.69
0.11
-2.01
-4.11
-5.78
-6.96
-7.85
-8.71
-9.65
-10.63
-11.49
-12.19
-12.76
-13.34
-13.99
-14.63
-15.10
-15.23
-14.94
-14.20
-13.01
-11.32
-9.16
-6.62
-3.92
-1.33
0.96
2.97
4.77
6.46
7.99
9.24
10.12
10.67
11.10
11.60
12.21
12.69
12.76
12.26
11.35
10.45
9.96
9.99
10.24
10.20
9.46
7.97
6.08
4.27
2.89
1.95
1.19
0.25
-1.01
-2.53
-4.04
-5.30
-6.19
-6.77
-7.11
-7.27
-7.26
-7.11
-7.00
-7.16
-7.83
-9.04
-10.57
-11.96
-12.72
-12.45
-10.99
-8.37
-4.79
-0.48
4.15
8.59
12.23
14.62
15.58
15.39
14.59
13.73
13.18
12.91
12.69
12.20
11.19
9.53
7.23
4.37
1.14
-2.11
-4.97
-7.06
-8.20
-8.48
-8.09
-7.28
-6.22
-5.02
-3.78
-2.68
-1.90
-1.67
-2.09
-3.11
-4.55
-6.19
-7.81
-9.29
-10.57
-11.69
-12.69
-13.64
-14.57
-15.50
-16.41
-17.30
-18.25
-19.36
-20.73
-22.37
-24.15
-25.77
-26.87
-27.10
-26.27
-24.37
-21.52
-18.00
-14.10
-10.13
-6.35
-2.97
-0.12
2.18
3.98
5.37
6.39
7.04
7.33
7.38
7.39
7.52
7.76
7.86
7.47
6.37
4.61
2.60
0.89
-0.08
-0.17
0.46
1.47
2.52
3.42
4.15
4.81
5.48
6.21
6.96
7.56
7.77
7.41
6.40
4.82
2.93
0.98
-0.83
-2.46
-3.98
-5.43
-6.76
-7.90
-8.77
-9.42
-10.02
-10.74
-11.70
-12.85
-14.03
-15.00
-15.54
-15.52
-14.85
-13.54
-11.63
-9.19
-6.40
-3.46
-0.64
1.89
4.02
5.74
7.15
8.32
9.31
10.09
10.66
10.98
11.16
11.28
11.37
11.41
11.19
10.56
9.38
7.75
5.92
4.26
3.04
2.38
2.22
2.35
2.51
2.48
2.15
1.63
1.10
0.78
0.75
0.89
0.87
0.33
-0.90
-2.69
-4.54
-5.96
-6.62
-6.60
-6.36
-6.44
-7.20
-8.58
-10.18
-11.57
-12.48
-12.81
-12.58
-11.73
-10.07
-7.50
-4.13
-0.44
2.96
5.56
7.22
8.19
8.83
9.37
9.75
9.71
9.08
8.04
7.01
6.42
6.41
6.64
6.57
5.80
4.32
2.65
1.44
1.17
1.80
2.87
3.74
3.98
3.60
2.90
2.33
2.09
2.18
2.37
2.42
2.21
1.72
1.02
0.08
-1.15
-2.72
-4.59
-6.57
-8.45
-10.07
-11.43
-12.60
-13.72
-14.76
-15.58
-15.97
-15.67
-14.64
-12.92
-10.71
-8.20
-5.56
-2.85
-0.15
2.41
4.67
6.39
7.48
7.94
8.00
7.93
7.98
8.24
8.59
8.88
9.00
8.97
8.89
8.84
8.84
8.85
8.84
8.83
8.85
8.95
9.07
9.08
8.81
8.18
7.16
5.85
4.35
2.73
1.06
-0.64
-2.27
-3.69
-4.74
-5.34
-5.58
-5.68
-6.00
-6.80
-8.12
-9.77
-11.37
-12.64
-13.43
-13.84
-14.08
-14.35
-14.70
-14.97
-14.90
-14.23
-12.80
-10.64
-7.99
-5.15
-2.45
-0.10
1.89
3.57
5.04
6.28
7.19
7.64
7.56
7.02
6.20
5.26
4.30
3.36
2.50
1.80
1.43
1.52
2.06
2.96
4.01
5.00
5.82
6.35
6.54
6.34
5.76
4.82
3.60
2.18
0.60
-1.08
-2.81
-4.42
-5.70
-6.46
-6.65
-6.38
-5.87
-5.34
-4.89
-4.51
-4.17
-3.90
-3.81
-4.03
-4.58
-5.38
-6.29
-7.21
-8.17
-9.30
-10.68
-12.20
-13.55
-14.27
-13.96
-12.47
-9.94
-6.78
-3.45
-0.27
2.54
4.97
7.05
8.79
10.15
11.10
11.63
11.83
11.81
11.61
11.23
10.62
9.76
8.67
7.48
6.33
5.27
4.37
3.66
3.22
3.20
3.59
4.26
4.86
5.00
4.37
3.00
1.14
-0.77
-2.37
-3.55
-4.39
-5.10
-5.90
-6.93
-8.19
-9.61
-11.08
-12.43
-13.50
-14.18
-14.51
-14.70
-15.04
-15.71
-16.72
-17.81
-18.48
-18.31
-17.01
-14.59
-11.27
-7.40
-3.37
0.51
3.96
6.76
8.76
9.92
10.30
10.14
9.71
9.26
8.98
8.85
8.83
8.76
8.54
8.10
7.45
6.66
5.80
5.02
4.38
3.96
3.75
3.70
3.71
3.69
3.59
3.34
2.93
2.28
1.36
0.17
-1.25
-2.74
-4.16
-5.45
-6.63
-7.75
-8.85
-9.89
-10.79
-11.54
-12.14
-12.70
-13.27
-13.79
-14.02
-13.64
-12.33
-9.97
-6.71
-2.94
0.81
4.06
6.57
8.28
9.29
9.78
9.84
9.51
8.84
7.90
6.87
5.92
5.12
4.46
3.80
3.10
2.42
1.93
1.81
2.10
2.68
3.31
3.77
3.95
3.83
3.42
2.75
1.87
0.88
-0.09
-0.95
-1.71
-2.51
-3.50
-4.69
-5.89
-6.80
-7.24
-7.27
-7.22
-7.50
-8.34
-9.74
-11.47
-13.29
-15.05
-16.60
-17.76
-18.20
-17.63
-15.91
-13.25
-10.11
-7.00
-4.26
-1.94
0.14
2.17
4.13
5.84
7.04
7.58
7.58
7.31
7.10
7.12
7.34
7.32
6.70
5.32
3.53
1.90
1.05
1.51
3.54
7.03
11.38
15.89
19.99
23.46
26.33
28.59
30.42
32.35
35.67
41.95
53.12
70.52
94.17
121.84
149.79
174.43
194.31
210.93
227.09
246.25
270.65
301.21
335.74
370.47
401.39
425.49
440.47
442.39
428.34
397.43
353.37
299.82
240.30
177.12
112.00
45.57
-24.94
-101.10
-182.01
-261.72
-336.96
-406.94
-473.36
-538.12
-603.20
-673.42
-749.94
-828.47
-895.84
-941.54
-959.65
-951.32
-922.86
-860.48
-763.20
-640.80
-534.81
-454.29
-396.31
-348.16
-305.34
-266.41
-230.92
-201.27
-176.96
-154.33
-124.05
-82.22
-29.96
27.10
82.97
132.64
170.61
195.36
209.55
221.65
237.46
260.14
289.97
325.92
364.68
398.18
416.52
410.74
378.38
322.24
251.97
181.78
126.39
95.43
89.34
101.37
121.86
143.89
164.09
182.90
202.34
223.78
246.29
266.57
280.84
286.51
283.48
273.02
257.07
237.56
216.16
194.16
172.90
153.83
138.59
128.55
124.16
124.25
125.89
125.03
118.03
103.26
82.08
58.58
37.79
23.50
16.48
14.29
12.66
7.66
-2.50
-16.95
-32.96
-47.47
-58.32
-64.74
-67.00
-65.74
-61.48
-54.48
-44.97
-33.32
-20.20
-6.47
7.05
19.71
31.11
41.03
49.34
55.84
60.08
61.36
58.92
52.41
42.34
30.25
18.44
9.23
4.14
3.31
5.61
9.13
11.97
12.78
10.99
6.70
0.38
-7.40
-16.02
-24.87
-33.31
-40.68
-46.47
-50.53
-53.24
-55.55
-58.78
-64.12
-72.18
-82.56
-93.90
-104.31
-112.01
-115.97
-116.06
-113.03
-108.13
-102.84
-98.60
-96.45
-96.72
-98.72
-100.75
-100.46
-95.59
-84.94
-68.86
-49.28
-29.05
-11.01
2.90
12.01
16.90
18.94
19.86
21.23
24.19
29.23
36.19
44.41
53.00
61.19
68.41
74.42
79.16
82.62
84.93
86.35
87.45
88.92
91.31
94.57
97.87
99.70
98.52
93.44
84.74
73.92
63.03
53.90
47.29
42.63
38.33
32.57
24.29
13.79
2.75
-6.33
-11.12
-10.33
-4.11
6.11
18.27
30.59
42.16
53.12
64.26
76.44
90.05
104.75
119.52
132.77
142.52
146.59
142.95
130.22
108.16
77.90
41.67
1.89
-39.94
-83.54
-129.19
-176.08
-220.85
-257.39
-278.47
-278.52
-256.28
-215.73
-164.88
-113.01
-67.65
-32.72
-8.40
7.68
18.86
28.22
37.92
49.03
61.48
73.97
84.13
89.12
86.52
75.24
56.12
31.85
6.20
-17.19
-35.85
-48.95
-57.02
-61.21
-62.68
-62.37
-61.27
-60.76
-62.64
-68.49
-78.68
-91.71
-104.42
-113.04
-114.77
-108.80
-96.32
-79.69
-61.22
-42.52
-24.70
-9.16
1.89
5.91
1.25
-11.29
-27.93
-42.80
-50.03
-46.30
-32.25
-12.19
7.79
22.24
28.19
25.76
17.55
7.37
-1.01
-4.71
-2.26
6.18
18.85
32.70
44.27
50.62
50.04
42.25
28.04
8.86
-13.31
-35.73
-54.79
-66.60
-68.25
-59.25
-42.19
-22.03
-4.37
6.65
9.64
5.93
-1.45
-9.16
-14.72
-16.83
-15.44
-11.38
-6.06
-1.07
2.21
2.89
0.72
-4.01
-10.56
-17.88
-24.56
-28.97
-29.71
-26.26
-19.60
-12.25
-7.49
-7.96
-14.45
-25.44
-37.81
-48.24
-54.53
-56.21
-54.19
-49.81
-44.17
-37.85
-31.20
-24.67
-18.91
-14.43
-11.20
-8.43
-4.90
0.32
7.19
14.43
19.92
21.61
18.58
11.63
3.12
-3.89
-7.00
-5.39
-0.10
6.75
13.15
18.25
22.45
26.69
31.48
36.34
40.00
41.18
39.46
35.55
30.99
27.45
25.86
26.10
27.06
27.13
24.87
19.62
11.74
2.56
-6.08
-12.51
-15.72
-15.59
-12.66
-7.67
-1.29
5.91
13.31
20.05
25.11
27.75
27.86
26.17
24.02
22.83
23.42
25.63
28.22
29.39
27.56
22.20
14.11
5.26
-2.08
-6.30
-7.01
-5.03
-1.88
0.93
2.41
2.27
0.79
-1.40
-3.55
-4.88
-4.85
-3.32
-0.69
2.17
4.37
5.39
5.33
4.73
4.17
3.83
3.38
2.29
0.07
-3.28
-7.36
-11.54
-15.23
-17.98
-19.67
-20.46
-20.80
-21.41
-22.97
-25.87
-29.86
-34.07
-37.39
-38.92
-38.55
-36.83
-34.70
-32.67
-30.53
-27.42
-22.44
-15.33
-6.83
1.53
8.15
12.14
13.77
14.31
15.37
18.06
22.39
27.34
31.33
32.99
31.87
28.60
24.60
21.50
20.47
21.79
24.78
28.14
30.47
30.79
28.84
25.12
20.55
16.25
13.03
11.35
11.16
12.05
13.35
14.31
14.24
12.79
9.97
6.23
2.26
-1.27
-3.87
-5.45
-6.20
-6.45
-6.45
-6.28
-5.91
-5.44
-5.31
-6.21
-8.84
-13.43
-19.37
-25.24
-29.27
-30.12
-27.35
-21.62
-14.33
-6.93
-0.41
4.79
8.59
10.96
11.86
11.31
9.65
7.44
5.31
3.62
2.45
1.65
1.15
0.88
0.77
0.48
-0.59
-3.09
-7.24
-12.62
-18.15
-22.60
-25.09
-25.57
-24.72
-23.57
-22.97
-23.18
-23.99
-24.99
-25.98
-27.15
-29.00
-31.95
-36.12
-41.17
-46.53
-51.53
-55.46
-57.45
-56.42
-51.22
-41.06
-26.13
-7.79
11.63
29.58
44.05
54.07
59.66
61.32
59.62
55.04
48.16
39.93
31.72
24.94
20.62
18.87
18.91
19.42
19.21
17.71
15.15
12.34
10.12
8.95
8.78
9.13
9.41
9.12
7.94
5.79
2.79
-0.76
-4.33
-7.32
-9.18
-9.51
-8.22
-5.54
-1.92
2.02
5.63
8.29
9.48
8.94
6.86
3.94
1.20
-0.33
0.01
2.19
5.63
9.42
12.71
14.95
15.98
15.88
14.79
12.84
10.21
7.22
4.40
2.40
1.75
2.66
4.90
7.92
10.98
13.45
15.00
15.62
15.53
15.06
14.42
13.58
12.36
10.56
8.15
5.33
2.60
0.53
-0.35
0.21
2.13
5.06
8.46
11.70
14.28
15.85
16.27
15.63
14.15
12.18
10.16
8.50
7.52
7.34
7.74
8.17
7.94
6.47
3.57
-0.41
-4.78
-8.69
-11.47
-12.83
-12.85
-11.98
-10.74
-9.68
-9.19
-9.46
-10.37
-11.44
-12.06
-11.68
-10.27
-8.32
-6.74
-6.29
-7.14
-8.67
-9.73
-9.18
-6.52
-2.11
2.95
7.29
9.84
10.24
8.78
6.25
3.52
1.18
-0.61
-2.18
-4.05
-6.57
-9.65
-12.66
-14.82
-15.69
-15.54
-15.29
-15.97
-18.12
-21.47
-25.17
-28.41
-30.99
-33.40
-36.43
-40.60
-45.73
-51.13
-55.97
-59.83
-62.89
-65.75
-69.18
-73.85
-80.18
-88.32
-97.89
-108.00
-117.42
-125.00
-130.21
-133.56
-136.31
-139.97
-145.49
-152.82
-160.82
-167.50
-170.49
-167.47
-156.86
-138.50
-114.35
-88.60
-66.78
-53.78
-51.71
-58.50
-68.22
-73.28
-67.23
-47.16
-14.39
26.58
70.17
111.59
147.84
177.48
200.02
215.40
224.00
226.78
225.45
222.02
218.18
214.66
211.19
207.05
201.81
195.82
190.02
185.42
182.39
180.55
179.13
177.60
176.24
176.02
178.31
184.17
193.98
207.30
222.96
238.80
251.53
257.01
251.52
233.66
206.00
175.23
150.16
138.32
142.70
160.30
183.35
202.42
209.99
202.51
180.62
147.66
107.82
64.75
21.21
-20.77
-59.57
-93.88
-123.03
-147.52
-169.15
-190.73
-214.57
-240.73
-265.72
-283.11
-286.11
-271.21
-240.75
-202.61
-166.78
-140.74
-126.30
-119.85
-115.85
-110.97
-106.52
-107.46
-119.14
-143.96
-180.21
-223.69
-270.29
-317.40
-363.20
-404.69
-436.31
-450.99
-443.23
-412.23
-363.15
-305.54
-249.55
-202.26
-165.87
-138.47
-116.41
-96.75
-78.19
-60.51
-43.29
-25.01
-3.35
23.77
57.13
95.93
138.10
181.24
223.16
262.13
296.71
325.72
348.55
365.66
378.51
388.99
397.89
403.87
403.16
391.19
364.73
323.81
272.10
215.31
158.56
104.05
50.91
-2.79
-56.95
-107.26
-145.54
-162.76
-153.04
-116.35
-58.61
10.87
82.56
149.08
205.60
248.89
276.28
285.78
277.28
253.59
220.31
184.30
151.22
123.82
101.59
81.88
61.31
37.50
9.86
-20.39
-50.67
-78.05
-99.95
-115.06
-123.63
-127.46
-129.42
-132.99
-141.86
-159.47
-187.96
-226.81
-271.85
-315.61
-349.14
-365.01
-360.04
-336.19
-299.50
-257.27
-215.31
-176.42
-140.87
-108.02
-77.89
-52.00
-32.67
-21.79
-19.83
-25.57
-36.81
-51.70
-70.16
-94.04
-125.48
-164.36
-205.94
-240.93
-258.34
-250.18
-215.48
-161.41
-100.25
-43.87
1.31
35.82
64.79
93.20
122.15
148.30
166.60
174.15
172.56
167.49
165.49
170.59
182.63
197.93
211.97
222.16
228.91
234.54
240.99
248.10
253.31
253.37
246.53
233.97
219.44
207.27
199.97
196.86
194.50
188.20
174.14
150.76
119.09
82.09
43.47
6.36
-27.28
-56.79
-82.21
-103.74
-121.36
-134.92
-144.88
-152.75
-161.02
-171.51
-183.70
-194.00
-197.54
-191.67
-178.76
-166.17
-162.45
-172.54
-193.73
-215.86
-225.48
-212.08
-172.58
-111.99
-40.50
31.04
93.71
141.83
172.85
187.05
187.49
179.83
171.51
169.24
176.45
190.31
202.67
203.79
186.61
149.58
96.68
35.44
-27.66
-83.17
-122.70
-142.31
-143.39
-130.34
-107.99
-80.70
-52.36
-26.44
-5.12
10.45
20.68
27.46
33.60
41.52
52.18
64.75
77.46
88.07
94.24
94.39
88.18
76.40
60.31
40.89
19.42
-2.94
-25.01
-46.07
-65.41
-82.11
-95.11
-103.65
-107.57
-107.38
-104.21
-99.13
-93.43
-88.08
-83.55
-79.83
-76.74
-74.02
-71.43
-68.94
-66.38
-64.04
-62.30
-61.45
-61.57
-62.57
-64.11
-65.52
-67.83
-69.05
-67.77
-63.12
-54.62
-42.23
-26.34
-7.63
13.10
34.92
57.25
79.20
99.54
117.18
131.30
141.39
147.55
150.52
151.54
152.32
154.07
156.70
159.42
160.83
159.47
154.37
145.61
134.19
121.93
110.24
98.93
86.76
71.69
51.64
25.43
-6.72
-43.41
-83.20
-120.92
-154.72
-184.93
-213.32
-242.27
-273.83
-309.26
-348.78
-390.74
-431.14
-464.39
-483.76
-484.06
-464.52
-430.14
-390.47
-355.92
-333.16
-322.33
-318.00
-311.80
-296.91
-271.00
-236.44
-197.97
-159.81
-123.76
-89.39
-55.87
-23.11
7.63
34.42
56.07
73.21
88.26
104.39
123.84
146.42
169.61
189.21
201.05
202.44
193.03
174.62
150.23
122.67
93.63
63.48
31.88
-1.06
-33.92
-63.71
-86.49
-98.57
-97.85
-84.56
-60.99
-30.71
2.90
37.63
72.88
109.41
148.88
193.34
244.66
303.68
368.99
436.09
497.51
544.25
568.36
565.75
537.79
491.24
435.95
381.40
333.75
294.32
260.24
227.02
191.38
153.26
115.71
82.95
58.14
42.59
36.49
40.56
56.86
87.32
131.11
182.58
231.86
268.36
285.65
284.37
271.68
257.55
249.97
251.89
261.35
273.83
285.19
293.35
298.04
299.74
298.80
294.98
287.92
277.72
265.19
251.89
239.44
228.97
220.77
214.16
207.75
200.11
190.26
177.94
163.51
147.54
130.40
111.89
91.40
68.10
41.46
11.67
-20.26
-52.65
-83.51
-111.14
-134.46
-153.24
-168.01
-179.68
-189.26
-197.42
-204.42
-210.18
-214.60
-217.84
-220.48
-223.50
-227.96
-234.62
-243.60
-254.18
-265.07
-274.92
-282.89
-289.09
-294.50
-300.62
-308.74
-319.34
-331.70
-344.42
-355.86
-365.00
-371.79
-377.20
-382.97
-391.33
-404.82
-425.84
-455.64
-492.96
-533.27
-569.31
-593.22
-599.64
-587.98
-562.88
-532.18
-503.63
-481.97
-467.82
-458.78
-451.37
-443.01
-432.37
-418.93
-401.95
-380.19
-352.30
-317.76
-277.48
-233.79
-189.88
-148.76
-112.43
-81.59
-55.74
-33.88
-15.15
0.67
13.16
21.50
25.12
24.19
19.75
13.59
7.78
4.08
3.65
6.81
13.20
22.13
32.99
45.45
59.51
75.22
92.58
111.36
131.35
152.64
175.59
200.41
226.47
251.82
273.24
287.26
291.35
284.83
268.87
245.81
218.47
189.76
162.58
139.56
122.49
111.60
105.10
99.88
92.51
80.75
64.16
43.76
21.19
-1.97
-24.22
-44.10
-60.35
-72.75
-82.72
-93.09
-106.77
-124.75
-145.31
-164.69
-179.15
-186.97
-189.14
-188.19
-186.25
-183.49
-177.92
-166.88
-148.69
-123.77
-94.35
-63.39
-33.24
-4.93
21.61
47.12
72.35
97.66
123.25
149.46
177.06
206.73
238.28
269.80
297.51
316.77
323.70
316.98
298.62
273.45
247.29
224.86
208.24
196.85
188.46
180.74
172.51
163.85
155.53
147.98
140.76
132.81
123.31
112.35
101.09
91.14
83.45
77.77
72.71
66.67
58.78
49.30
39.40
30.60
24.06
20.36
19.58
21.35
24.94
29.20
32.75
34.39
33.57
30.67
26.83
23.45
21.73
22.41
25.76
31.64
39.47
48.11
55.92
61.15
62.66
60.45
55.62
49.72
43.83
38.12
32.10
25.32
18.14
11.64
7.13
5.21
5.46
6.70
7.86
8.61
9.41
10.92
13.42
16.59
19.85
22.84
25.56
28.16
30.51
32.04
31.78
28.76
22.45
13.03
1.45
-10.82
-22.19
-31.26
-37.26
-40.01
-39.93
-37.62
-33.71
-28.85
-23.86
-19.89
-18.07
-19.04
-22.38
-26.72
-30.51
-32.96
-34.58
-36.68
-40.35
-45.33
-49.74
-50.82
-46.33
-35.74
-20.69
-4.41
9.38
17.68
19.01
13.60
3.15
-9.82
-22.61
-33.03
-39.69
-42.18
-40.92
-36.86
-31.17
-24.95
-18.87
-13.07
-7.12
-0.18
8.44
18.85
30.19
40.82
48.85
52.88
52.49
48.27
41.61
34.12
27.33
22.53
20.67
22.35
27.64
35.94
45.92
55.74
63.48
67.67
67.72
63.95
57.44
49.54
41.39
33.49
25.55
16.87
6.96
-3.59
-12.97
-18.60
-18.31
-11.60
-0.14
12.64
22.88
27.72
26.18
19.17
9.02
-1.26
-8.65
-10.71
-6.15
4.57
19.14
34.00
45.52
51.33
51.14
46.47
39.66
32.61
26.07
19.89
13.73
7.86
3.23
1.06
2.06
5.99
11.84
18.25
24.14
28.99
32.72
35.36
36.88
37.10
35.91
33.55
30.42
26.95
23.29
19.33
15.05
10.82
7.31
5.22
4.67
4.88
4.51
2.53
-1.26
-6.07
-10.55
-13.60
-14.83
-14.61
-13.76
-12.99
-12.72
-13.37
-15.59
-20.07
-26.94
-35.17
-42.34
-45.57
-42.59
-32.58
-16.99
1.11
18.24
31.76
40.56
44.87
45.53
43.62
41.07
39.49
40.28
44.39
52.18
63.31
76.76
90.57
103.22
115.56
128.53
142.62
157.53
172.37
186.38
199.29
210.46
220.30
232.31
248.76
269.99
294.20
318.32
339.76
357.26
369.99
380.28
395.44
421.03
458.71
504.97
552.12
591.75
617.54
625.63
591.36
502.97
361.40
182.55
-8.16
-186.50
-336.75
-442.54
-512.64
-558.85
-588.27
-607.73
-624.79
-647.49
-685.00
-740.27
-809.61
-885.74
-956.71
-1009.11
-1035.42
-1035.50
-1014.98
-981.53
-940.43
-893.41
-840.90
-781.03
-711.20
-631.33
-543.41
-450.55
-355.98
-262.16
-171.50
-87.55
-12.82
51.30
104.07
145.66
176.96
199.42
214.76
224.41
228.74
228.36
224.34
217.99
211.08
205.26
201.77
201.10
202.84
205.75
208.66
210.83
212.17
213.33
215.46
220.00
228.16
240.22
254.95
269.48
279.74
281.68
272.91
253.65
226.86
197.02
168.20
142.58
119.90
98.28
75.57
50.74
24.31
-2.00
-26.07
-46.29
-61.89
-72.84
-79.28
-81.09
-77.52
-67.46
-49.97
-24.81
7.35
45.13
86.72
130.06
172.76
211.88
244.12
266.39
276.82
275.38
264.16
246.61
226.37
206.34
188.23
172.80
160.28
150.61
143.38
137.70
132.29
125.80
117.44
107.30
96.29
85.79
77.14
71.06
67.46
65.54
64.16
62.31
59.47
55.73
51.58
47.77
44.90
43.29
42.91
43.47
44.57
45.87
47.09
48.08
48.70
48.77
47.95
45.87
42.32
37.52
32.26
27.73
25.12
25.07
27.17
30.13
32.28
32.24
29.70
25.42
20.98
18.06
17.77
20.22
24.55
29.40
33.38
35.80
36.89
37.76
40.03
45.12
53.76
65.67
79.66
93.98
106.74
116.10
120.23
117.23
105.35
83.29
50.89
9.48
-38.43
-89.93
-142.74
-195.22
-245.33
-289.20
-320.51
-332.24
-320.18
-286.97
-243.09
-203.62
-181.52
-181.31
-196.82
-214.63
-221.63
-211.51
-187.11
-156.91
-128.59
-104.06
-79.34
-48.45
-8.30
38.69
86.67
129.48
164.29
192.23
216.71
240.65
264.89
288.59
309.69
327.95
343.08
354.44
360.41
358.75
347.70
327.40
300.32
269.08
238.64
210.81
184.90
158.14
126.90
87.92
39.33
-18.46
-84.12
-148.91
-204.11
-241.70
-257.90
-255.77
-245.05
-238.49
-246.63
-276.10
-320.55
-371.62
-420.98
-464.23
-502.24
-539.34
-579.91
-608.68
-643.15
-674.53
-695.93
-701.96
-690.47
-663.04
-623.86
-577.83
-528.52
-480.23
-430.48
-379.65
-329.42
-282.66
-242.19
-209.05
-181.68
-156.70
-132.79
-106.15
-77.48
-49.11
-23.36
-0.96
19.55
41.11
66.59
95.99
129.73
165.23
199.43
230.01
256.00
277.71
296.22
312.78
327.44
340.43
349.71
351.87
343.28
322.09
289.89
252.30
217.26
191.54
178.02
173.26
168.55
153.17
118.90
63.45
-8.11
-84.79
-153.15
-201.67
-224.00
-220.23
-195.69
-158.20
-115.17
-71.48
-29.00
12.38
53.08
92.43
128.07
156.41
173.88
178.36
170.36
153.27
132.48
113.76
101.40
97.28
101.14
111.59
127.13
146.43
167.88
188.81
205.56
214.38
212.79
200.68
180.57
156.74
133.79
115.19
102.35
94.58
89.78
85.35
79.25
70.66
59.97
48.47
37.52
27.96
19.87
12.69
5.67
-1.65
-9.33
-17.18
-24.98
-32.76
-40.65
-48.67
-56.46
-63.25
-67.96
-69.58
-67.53
-61.86
-53.29
-42.99
-32.38
-22.67
-14.67
-8.57
-3.97
-0.14
3.72
8.15
13.23
18.64
23.71
27.65
29.71
29.39
26.69
22.14
16.81
12.01
8.98
8.44
10.42
14.38
19.39
24.45
28.68
31.25
31.48
28.93
23.54
15.73
6.42
-3.15
-11.87
-18.99
-24.29
-27.99
-30.52
-32.28
-33.49
-34.12
-33.96
-32.73
-30.30
-26.84
-22.88
-19.19
-16.54
-15.35
-15.56
-16.68
-17.98
-18.80
-18.88
-18.26
-17.28
-16.22
-15.11
-13.67
-11.48
-8.18
-3.66
1.73
7.30
12.23
15.92
18.19
19.25
19.46
19.09
18.09
16.20
13.13
8.94
4.10
-0.50
-3.98
-5.74
-5.70
-4.35
-2.47
-0.80
0.11
0.08
-0.78
-2.21
-3.93
-5.67
-7.27
-8.63
-9.71
-10.52
-11.16
-11.80
-12.58
-13.54
-14.50
-15.15
-15.11
-14.13
-12.29
-9.98
-7.72
-5.96
-4.82
-4.11
-3.41
-2.37
-0.80
1.19
3.32
5.16
6.36
6.72
6.29
5.35
4.37
3.76
3.78
4.39
5.37
6.38
7.19
7.74
8.07
8.24
8.20
7.71
6.54
4.52
1.77
-1.38
-4.43
-6.95
-8.61
-9.39
-9.49
-9.22
-8.91
-8.73
-8.75
-8.91
-9.10
-9.14
-8.97
-8.64
-8.35
-8.38
-8.91
-10.02
-11.58
-13.44
-15.41
-17.40
-19.33
-21.01
-22.18
-22.42
-21.38
-18.87
-15.00
-10.21
-5.13
-0.45
3.34
6.05
7.87
9.27
10.69
12.35
14.02
15.19
15.35
14.43
12.89
11.55
11.18
11.98
13.51
14.88
15.26
14.40
12.67
10.85
9.66
9.43
9.90
10.53
10.69
10.00
8.45
6.35
4.19
2.42
1.33
0.98
1.18
1.66
2.07
2.15
1.73
0.73
-0.89
-3.08
-5.62
-8.08
-9.93
-10.70
-10.18
-8.59
-6.38
-4.10
-2.16
-0.66
0.53
1.64
2.77
3.82
4.45
4.28
3.00
0.56
-2.73
-6.36
-9.70
-12.26
-13.83
-14.39
-14.08
-13.02
-11.25
-8.79
-5.75
-2.31
1.15
4.22
6.47
7.67
7.84
7.23
6.18
4.94
3.64
2.28
0.89
-0.31
-0.87
-0.30
1.65
4.80
8.50
11.98
14.64
16.30
17.17
17.64
18.04
18.56
19.26
20.09
20.87
21.36
21.27
20.48
19.12
17.56
16.19
15.18
14.43
13.66
12.75
11.83
11.18
10.99
11.13
11.21
10.79
9.68
7.88
5.52
2.61
-0.90
-5.08
-9.80
-14.77
-19.75
-24.64
-29.49
-34.24
-38.49
-41.52
-42.51
-40.92
-36.76
-30.60
-23.36
-16.08
-9.60
-4.39
-0.56
2.14
4.11
5.72
7.11
8.21
8.82
8.87
8.48
7.90
7.35
6.95
6.70
6.57
6.56
6.64
6.78
6.88
6.94
7.08
7.42
7.94
8.39
8.42
7.84
6.89
6.18
6.40
7.89
10.34
12.95
14.83
15.37
14.38
11.92
8.04
2.71
-3.99
-11.62
-19.23
-25.69
-30.01
-31.83
-31.41
-29.50
-26.85
-24.06
-21.49
-19.48
-18.37
-18.36
-19.34
-20.68
-21.49
-20.98
-18.93
-15.71
-12.09
-8.73
-5.93
-3.63
-1.64
0.18
1.91
3.63
5.51
7.71
10.08
12.19
13.32
13.03
11.43
9.28
7.50
6.77
7.10
7.96
8.57
8.40
7.36
5.76
4.00
2.43
1.28
0.63
0.50
0.76
1.05
0.92
0.02
-1.67
-3.78
-5.72
-7.07
-7.72
-7.94
-8.20
-8.81
-9.79
-10.82
-11.55
-11.69
-11.21
-10.16
-8.71
-7.02
-5.31
-3.82
-2.80
-2.33
-2.32
-2.51
-2.55
-2.19
-1.43
-0.44
0.45
1.00
1.20
1.32
1.73
2.73
4.39
6.48
8.61
10.40
11.66
12.40
12.85
13.18
13.35
13.14
12.18
10.37
7.91
5.39
3.57
3.07
4.13
6.53
9.73
13.11
16.25
18.93
21.04
22.64
23.87
24.89
25.82
26.71
27.56
28.65
30.36
33.05
37.10
42.62
49.25
56.01
61.70
65.28
66.79
67.09
67.72
70.73
78.18
91.65
111.71
137.48
166.29
194.38
216.66
227.75
223.53
202.37
165.81
118.19
65.33
9.67
-44.20
-91.34
-127.54
-150.37
-159.64
-157.05
-145.23
-127.05
-105.19
-81.01
-55.64
-30.45
-6.89
13.24
27.65
34.29
31.92
20.02
-0.05
-26.13
-55.86
-87.23
-119.18
-152.27
-188.77
-229.07
-273.21
-318.47
-358.88
-385.98
-391.26
-369.17
-319.52
-247.74
-163.51
-78.47
-3.01
55.42
93.28
110.97
112.25
103.33
91.47
83.09
81.77
87.81
98.56
110.06
118.95
123.54
123.99
121.66
117.86
112.87
106.04
96.26
82.66
65.20
44.64
22.31
-0.25
-21.53
-40.23
-55.17
-65.53
-71.17
-72.90
-72.22
-70.70
-69.02
-66.78
-62.79
-56.05
-46.53
-35.45
-24.66
-15.81
-9.64
-5.82
-3.53
-1.95
-0.39
1.87
6.15
14.39
28.61
50.22
79.51
115.54
156.35
199.29
241.00
277.19
303.06
313.58
305.07
276.93
232.98
181.10
131.13
91.94
68.67
61.65
66.05
73.99
77.17
69.42
47.42
9.62
-43.90
-111.15
-186.09
-259.28
-318.89
-353.77
-356.64
-326.97
-272.22
-204.68
-137.28
-78.17
-31.24
3.33
27.03
42.66
53.62
62.26
69.96
76.40
81.40
82.55
76.69
61.46
38.17
18.26
14.74
37.86
77.79
125.37
172.48
217.73
258.41
292.37
317.87
332.34
332.91
317.42
286.86
243.64
191.40
134.09
76.33
22.67
-23.82
-62.38
-93.67
-118.93
-139.61
-156.83
-171.50
-183.43
-192.34
-198.37
-204.11
-213.24
-230.77
-260.57
-304.81
-364.18
-437.23
-520.56
-607.62
-691.22
-762.56
-815.53
-846.00
-853.83
-843.35
-821.16
-793.76
-764.09
-734.55
-685.48
-606.26
-495.90
-364.54
-229.34
-106.16
-14.69
48.56
91.76
122.42
142.33
151.78
153.35
149.70
144.99
144.23
153.56
175.35
209.40
251.07
295.02
336.53
372.45
402.14
426.96
450.57
475.06
501.93
531.02
562.61
597.30
634.81
673.00
706.99
730.50
736.36
720.20
681.91
626.43
561.49
494.53
430.64
372.02
319.24
271.96
230.31
194.62
165.18
141.42
121.80
104.72
89.22
75.54
64.62
57.64
55.30
57.34
62.43
68.65
74.17
77.94
80.02
81.42
83.75
88.57
96.82
108.45
122.49
137.29
150.90
161.63
168.38
170.81
169.02
163.38
154.00
140.60
122.58
99.24
70.35
36.64
-0.21
-37.97
-74.55
-108.78
-140.62
-170.88
-200.68
-230.68
-261.13
-292.34
-325.07
-360.15
-397.10
-432.76
-461.19
-475.25
-469.48
-442.64
-398.34
-343.98
-287.97
-237.65
-198.19
-172.85
-163.68
-171.87
-197.61
-238.88
-290.39
-343.49
-387.73
-413.96
-418.09
-403.57
-380.63
-361.98
-356.92
-367.17
-387.16
-408.13
-423.47
-431.70
-435.01
-435.45
-431.48
-418.06
-390.11
-346.79
-293.31
-238.99
-192.75
-159.37
-138.22
-124.99
-114.68
-104.06
-92.33
-80.31
-69.42
-60.63
-53.84
-48.13
-42.27
-35.34
-27.21
-18.54
-10.61
-4.54
-0.73
1.49
3.77
8.11
16.12
28.44
44.58
63.16
82.72
102.39
122.19
142.85
165.23
189.64
215.81
243.26
271.86
301.85
333.00
363.41
388.89
403.63
402.16
381.77
343.76
292.96
235.88
178.22
124.00
75.86
36.50
9.52
-1.09
7.05
32.57
69.53
108.83
141.43
161.70
169.54
169.67
169.41
175.21
190.41
215.00
247.05
284.89
328.05
376.66
429.50
482.30
527.72
557.37
564.96
548.96
513.28
465.68
414.79
367.30
326.26
291.38
260.44
231.07
201.91
172.94
145.05
119.30
96.34
75.95
57.10
38.12
17.55
-5.68
-31.47
-58.76
-85.96
-111.65
-135.45
-158.38
-182.53
-209.85
-241.12
-275.53
-311.09
-345.46
-376.23
-400.44
-413.85
-411.34
-388.90
-346.26
-288.86
-226.96
-171.78
-130.47
-102.80
-81.79
-58.32
-27.11
10.04
44.85
67.33
71.21
56.87
29.89
-2.96
-37.89
-75.04
-116.04
-159.97
-200.75
-227.99
-231.03
-203.85
-147.82
-71.06
14.82
98.32
170.39
224.86
258.20
269.19
258.95
231.35
192.06
147.00
100.24
53.09
4.11
-49.57
-110.41
-178.64
-250.71
-319.38
-375.08
-409.21
-417.87
-404.16
-377.16
-347.77
-323.53
-305.42
-288.76
-267.27
-237.95
-203.39
-170.66
-146.19
-132.29
-125.39
-118.10
-103.43
-78.36
-44.60
-6.76
30.62
66.42
101.37
135.82
168.07
193.77
207.66
206.37
190.07
161.36
124.87
82.97
36.20
-14.65
-65.90
-110.30
-139.80
-149.07
-139.90
-118.15
-93.40
-73.49
-61.26
-54.33
-46.97
-34.31
-8.76
19.19
44.13
58.68
57.62
39.86
8.95
-24.59
-49.14
-55.08
-40.03
-7.47
33.46
74.40
111.27
144.01
173.93
200.53
221.48
232.80
233.52
224.84
210.70
196.37
186.33
182.66
184.27
188.48
191.30
191.01
187.38
182.11
177.68
176.06
178.23
181.62
182.96
178.21
165.08
143.12
114.07
81.13
48.35
18.75
-6.46
-26.37
-41.69
-52.91
-60.37
-63.90
-63.33
-58.24
-50.06
-42.05
-37.05
-38.64
-48.99
-68.50
-95.55
-127.06
-159.17
-183.87
-196.74
-186.49
-147.95
-82.65
0.68
89.74
167.56
231.65
282.88
321.40
347.19
357.43
348.85
318.90
267.87
199.04
118.74
32.62
-54.86
-139.78
-220.82
-297.35
-369.86
-438.03
-501.13
-557.74
-607.40
-649.12
-679.20
-692.80
-684.50
-652.16
-596.85
-523.64
-440.16
-355.37
-276.97
-209.44
-155.72
-108.43
-66.86
-33.95
-13.57
-6.66
-10.18
-22.21
-36.95
-50.86
-62.49
-72.77
-80.94
-81.78
-69.45
-39.69
8.33
71.78
143.68
215.68
279.20
329.16
364.80
390.60
413.55
440.57
475.91
518.44
562.16
597.14
613.53
604.56
570.65
518.15
457.52
400.29
355.66
329.15
321.24
328.16
330.40
311.43
261.78
183.49
88.05
-10.82
-102.75
-182.98
-250.73
-306.58
-349.25
-377.19
-390.06
-389.87
-382.51
-372.40
-362.14
-351.75
-339.05
-319.25
-287.93
-242.85
-184.78
-118.37
-51.02
9.98
59.65
95.98
120.58
136.53
146.96
153.66
156.91
156.26
151.33
142.37
130.48
117.87
106.88
99.24
95.26
93.84
93.24
91.80
88.48
83.18
76.86
70.83
66.30
64.05
64.41
67.34
72.00
76.40
77.20
70.66
54.06
27.38
-6.12
-40.75
-70.39
-90.80
-100.95
-102.67
-99.18
-93.36
-86.76
-79.72
-72.26
-64.71
-57.86
-52.54
-48.99
-46.65
-44.40
-40.97
-35.77
-29.10
-21.97
-15.75
-11.51
-9.57
-9.51
-10.36
-10.98
-10.49
-8.60
-5.49
-1.63
2.45
6.45
10.22
13.64
16.60
18.85
19.98
19.57
17.42
13.53
8.33
2.42
-3.53
-8.91
-13.39
-16.89
-19.61
-21.87
-24.10
-26.55
-29.39
-32.62
-35.88
-38.62
-40.20
-40.01
-37.55
-32.75
-25.85
-17.50
-8.75
-0.28
7.53
14.62
21.26
27.91
34.75
41.55
47.50
51.11
51.61
48.64
42.57
34.28
25.07
16.03
7.72
0.05
-7.95
-16.53
-25.49
-34.09
-41.40
-46.98
-51.13
-55.13
-57.64
-61.47
-68.24
-78.49
-91.97
-107.78
-123.85
-136.58
-141.10
-132.80
-110.18
-75.44
-34.89
3.17
31.75
47.70
52.41
50.10
45.32
40.33
35.56
30.35
24.35
18.24
13.45
11.09
11.05
12.09
12.24
10.07
5.29
-1.34
-8.45
-14.67
-19.25
-22.37
-24.86
-27.79
-31.68
-36.20
-40.35
-42.83
-42.82
-39.60
-33.40
-25.20
-16.35
-8.06
-1.07
4.27
8.01
10.40
11.75
12.24
11.96
11.01
9.53
7.77
5.99
4.35
2.86
1.48
-0.03
-1.93
-4.46
-7.75
-11.76
-16.39
-21.48
-26.88
-32.28
-37.48
-42.43
-47.14
-51.70
-56.27
-61.03
-66.20
-72.03
-78.34
-85.04
-92.03
-99.30
-106.78
-114.47
-122.33
-130.45
-138.93
-147.33
-155.40
-162.89
-169.53
-174.92
-178.52
-179.46
-176.46
-171.51
-165.09
-157.48
-148.82
-139.29
-129.00
-118.04
-106.51
-94.52
-82.28
-69.56
-56.41
-43.05
-29.85
-17.25
-5.69
4.38
12.53
18.32
21.75
22.69
21.11
17.10
11.01
3.43
-4.71
-12.42
-18.83
-23.11
-25.02
-24.75
-22.86
-19.87
-16.02
-11.18
-4.91
3.17
13.21
24.70
36.67
47.94
57.78
66.24
74.29
83.46
95.13
109.91
127.23
145.62
163.29
179.00
192.63
205.26
218.63
234.51
254.15
277.90
305.16
334.06
361.43
382.94
394.16
392.08
376.45
350.33
319.16
288.65
262.40
240.61
220.55
198.70
173.22
145.48
119.55
100.20
90.24
88.97
92.49
95.68
94.54
87.86
77.07
64.65
52.45
40.75
28.81
16.19
3.70
-6.99
-14.28
-17.91
-19.31
-20.85
-24.61
-31.43
-40.81
-51.62
-62.87
-74.09
-85.12
-95.69
-105.36
-113.67
-120.58
-126.30
-130.94
-133.95
-133.80
-128.17
-114.60
-91.37
-58.42
-17.93
25.83
67.43
101.92
126.21
139.75
143.88
140.53
130.71
114.19
90.38
59.99
26.21
-5.61
-29.78
-42.76
-44.57
-38.52
-29.29
-20.60
-13.75
-8.08
-2.34
3.67
8.62
10.53
8.28
2.70
-3.52
-7.17
-6.29
-1.35
4.90
8.81
7.77
1.66
-7.03
-14.40
-16.99
-13.44
-5.12
4.58
11.69
13.62
10.04
2.77
-5.33
-11.89
-16.07
-18.81
-22.29
-28.81
-39.53
-53.60
-68.42
-80.73
-88.40
-91.79
-93.93
-99.22
-111.32
-131.14
-156.12
-181.01
-199.59
-206.65
-199.31
-178.01
-146.69
-112.57
-84.34
-69.48
-71.14
-86.30
-106.48
-120.91
-120.87
-103.03
-70.22
-29.45
11.58
47.23
74.85
93.78
103.63
103.71
93.93
76.66
57.70
45.23
46.61
64.62
95.35
129.30
155.17
164.38
154.23
127.77
91.56
52.46
15.56
-16.23
-41.29
-58.20
-65.26
-60.54
-42.49
-10.73
32.82
83.29
132.96
172.87
195.63
198.03
182.12
153.60
118.76
81.95
44.79
7.73
-27.83
-58.53
-80.06
-89.70
-88.26
-80.11
-71.00
-65.24
-63.74
-64.15
-62.64
-56.16
-43.90
-27.58
-10.48
3.88
12.98
16.09
14.26
9.68
4.69
0.76
-1.80
-3.51
-4.99
-6.52
-7.94
-9.31
-11.30
-14.99
-21.28
-29.88
-39.29
-47.31
-52.18
-53.35
-51.37
-47.27
-41.75
-35.05
-27.19
-18.58
-10.32
-3.98
-1.10
-2.53
-8.21
-17.14
-27.62
-37.57
-44.91
-48.26
-47.51
-44.30
-41.58
-42.47
-48.52
-58.78
-69.80
-77.08
-77.30
-69.91
-57.37
-43.65
-32.12
-23.89
-17.42
-9.63
2.47
20.33
43.49
69.81
96.26
119.74
137.80
149.09
153.66
152.77
148.24
141.55
133.20
122.77
109.70
94.21
77.71
62.24
49.37
39.20
30.14
19.80
6.41
-9.95
-27.14
-41.98
-51.71
-55.27
-53.63
-49.19
-44.71
-42.30
-42.90
-46.31
-51.56
-57.40
-62.66
-66.90
-70.72
-75.92
-84.70
-98.41
-116.16
-134.31
-147.62
-151.40
-143.80
-126.61
-104.19
-80.91
-58.83
-36.96
-12.51
16.55
49.47
82.37
110.08
128.63
137.33
138.89
137.63
137.09
138.09
138.78
136.14
128.60
117.76
108.56
107.54
119.86
146.88
185.21
227.92
267.19
297.00
314.46
319.46
312.93
295.52
267.30
228.64
181.42
129.68
78.73
33.22
-4.45
-34.66
-59.16
-78.82
-92.11
-95.33
-84.45
-57.70
-17.20
31.51
81.30
125.54
159.67
181.24
189.10
182.87
163.13
131.90
93.19
52.46
15.40
-13.54
-32.13
-40.33
-39.79
-33.08
-23.19
-13.10
-5.47
-2.30
-4.39
-11.42
-22.18
-35.25
-49.63
-65.21
-82.54
-102.43
-125.55
-152.44
-183.62
-219.36
-258.82
-299.44
-336.55
-364.65
-379.77
-382.01
-376.09
-369.42
-368.45
-375.39
-387.51
-399.14
-404.59
-400.43
-385.69
-360.76
-326.50
-284.46
-237.53
-190.04
-146.76
-110.94
-83.29
-62.38
-45.75
-31.31
-17.47
-2.68
14.79
35.76
58.63
78.90
90.94
90.95
79.38
60.63
40.12
20.57
0.24
-25.52
-60.69
-105.03
-152.90
-195.21
-223.09
-231.08
-218.46
-188.54
-146.34
-96.83
-43.96
8.99
58.15
98.54
124.55
131.79
119.70
92.98
61.27
36.51
29.14
44.81
82.66
135.74
193.57
245.01
281.11
297.00
292.58
271.90
241.55
208.47
177.98
152.96
134.00
120.58
112.00
107.68
106.90
108.38
110.44
111.62
111.31
109.52
106.36
101.38
93.58
82.01
66.55
48.10
28.43
9.44
-7.64
-22.57
-36.31
-50.91
-68.90
-92.26
-121.14
-152.58
-180.31
-196.02
-192.00
-163.66
-111.39
-39.79
44.47
134.97
227.34
319.51
410.96
501.16
587.84
665.91
727.66
764.10
767.57
734.52
667.14
573.17
463.73
350.25
241.79
144.10
60.25
-8.04
-59.56
-93.78
-111.75
-116.72
-113.61
-107.55
-102.22
-98.74
-95.91
-91.09
-82.08
-68.26
-51.04
-33.25
-17.93
-7.25
-1.62
0.08
-0.25
-1.29
-2.97
-6.95
-15.92
-32.88
-60.23
-99.20
-149.33
-207.99
-270.02
-328.26
-375.12
-404.87
-415.86
-410.73
-395.14
-374.84
-353.49
-331.96
-309.78
-287.43
-267.09
-251.66
-242.15
-236.37
-229.48
-216.23
-193.60
-161.38
-120.93
-72.97
-17.22
46.01
113.66
178.86
232.88
269.06
286.14
288.38
282.37
272.58
258.71
237.07
204.28
160.92
112.13
65.24
25.75
-5.64
-32.80
-61.19
-94.23
-131.68
-170.55
-207.66
-241.51
-272.39
-300.71
-324.83
-340.58
-343.03
-329.97
-304.14
-273.37
-247.53
-233.87
-233.78
-242.96
-254.22
-261.97
-264.72
-264.68
-265.24
-267.89
-270.91
-270.74
-264.89
-254.18
-242.95
-236.31
-236.81
-242.30
-246.59
-242.84
-227.82
-204.06
-178.79
-160.53
-154.47
-159.93
-171.12
-180.64
-184.17
-182.91
-182.40
-188.46
-203.00
-221.89
-236.43
-237.86
-221.35
-188.18
-144.55
-98.07
-54.23
-14.85
21.27
55.93
89.08
118.49
140.83
153.98
158.62
158.38
158.38
163.54
176.53
197.11
222.90
250.64
277.69
302.95
326.69
349.76
373.10
397.26
422.68
449.51
476.76
501.45
518.25
520.40
501.89
460.10
397.17
319.88
237.57
159.23
91.31
36.99
-3.57
-32.03
-51.07
-64.78
-78.05
-96.10
-122.92
-159.26
-201.43
-242.07
-272.31
-284.69
-277.57
-253.47
-218.04
-177.04
-134.58
-92.80
-52.92
-16.17
17.29
45.04
66.96
83.75
96.44
105.93
113.34
120.61
130.64
147.84
169.73
191.79
206.37
206.47
190.11
162.93
136.76
124.46
136.86
171.10
219.58
271.23
317.06
353.67
383.39
410.99
422.04
434.07
435.96
418.57
376.49
311.56
232.62
152.01
80.60
23.78
-16.89
-49.83
-81.67
-116.91
-157.08
-201.52
-249.13
-299.28
-351.46
-401.85
-448.60
-485.98
-508.52
-514.16
-506.10
-492.06
-480.92
-478.30
-482.08
-486.50
-481.70
-459.92
-419.17
-363.77
-301.74
-241.00
-186.49
-138.98
-98.38
-63.83
-35.56
-14.51
-1.07
6.05
9.79
14.16
22.76
37.26
57.49
81.57
106.95
131.52
154.55
176.62
199.41
224.64
253.40
286.09
322.83
363.76
408.91
457.21
505.67
549.20
581.86
599.00
599.51
586.27
565.11
542.44
522.97
508.88
500.12
495.30
492.55
489.80
484.53
474.02
455.95
429.20
394.53
354.01
310.05
264.41
217.74
169.61
119.53
67.71
15.37
-35.40
-82.25
-123.14
-156.91
-183.60
-204.52
-221.83
-238.12
-255.58
-274.75
-293.52
-307.23
-310.11
-297.82
-269.38
-227.89
-179.37
-130.61
-86.94
-51.39
-25.08
-8.43
-1.82
-5.32
-17.86
-36.80
-58.14
-77.63
-91.87
-99.29
-100.10
-96.02
-89.79
-84.69
-83.87
-89.59
-102.57
-121.53
-142.99
-161.73
-172.22
-170.55
-156.45
-134.23
-111.51
-96.50
-94.41
-104.76
-122.24
-139.83
-152.91
-161.54
-169.36
-180.42
-195.29
-210.02
-217.81
-213.13
-194.97
-167.57
-137.89
-111.98
-92.17
-76.60
-61.00
-41.25
-15.52
15.19
47.74
78.42
104.35
124.25
138.32
147.65
153.49
156.53
157.32
156.28
153.73
150.29
146.15
140.84
132.96
120.81
103.64
82.41
60.11
40.03
24.17
12.04
0.96
-12.13
-28.55
-46.88
-63.89
-76.66
-84.89
-91.08
-99.08
-111.81
-129.88
-151.74
-175.39
-199.56
-223.52
-245.85
-263.29
-271.68
-267.94
-252.41
-228.99
-203.39
-180.21
-161.15
-145.00
-129.11
-111.16
-90.58
-68.57
-47.87
-31.91
-23.47
-23.45
-29.99
-38.68
-44.10
-42.04
-30.74
-11.41
12.78
37.96
60.06
74.95
78.75
69.26
47.52
18.90
-8.50
-27.24
-33.97
-31.34
-26.36
-26.46
-35.25
-50.82
-66.97
-77.38
-79.45
-76.27
-75.46
-84.95
-108.47
-142.67
-178.20
-203.95
-212.63
-204.08
-184.98
-165.06
-151.84
-147.48
-148.05
-146.31
-135.53
-112.00
-75.97
-30.12
21.75
75.81
127.31
170.19
197.52
202.86
183.05
140.31
82.94
23.38
-25.47
-55.27
-64.32
-57.92
-46.13
-39.80
-46.73
-69.00
-102.85
-140.98
-177.08
-207.22
-230.47
-247.87
-260.62
-269.08
-272.88
-271.44
-264.88
-255.48
-244.75
-232.29
-215.87
-192.87
-161.97
-124.55
-84.05
-44.83
-12.47
10.29
24.12
32.42
39.37
48.52
61.90
80.05
114.68
167.64
231.95
294.64
343.75
373.24
383.10
376.49
357.48
329.51
293.20
249.89
202.18
153.27
106.53
65.51
33.18
11.77
2.56
4.22
15.55
35.71
65.36
101.52
139.77
175.55
205.28
226.84
238.58
240.53
233.97
221.18
204.46
186.06
167.87
151.16
136.58
123.78
112.27
101.38
90.79
80.25
69.86
60.23
52.01
45.60
40.92
37.45
34.43
31.20
27.30
22.84
18.82
16.52
16.92
20.38
26.17
32.73
38.25
42.47
44.08
43.55
42.30
41.75
42.69
44.43
45.29
43.48
37.89
28.72
17.92
8.19
1.93
0.67
4.25
11.13
18.37
21.86
17.23
1.43
-25.57
-61.08
-96.75
-123.57
-135.05
-129.47
-110.05
-82.89
-54.82
