1679571589.00
64.000000
-0.00
-0.00
-0.00
-0.00
-0.00
-0.00
-0.00
-0.00
-0.00
-0.00
0.00
0.01
0.01
-0.00
-0.03
-0.05
-0.05
0.00
0.13
0.36
0.66
1.01
1.37
1.72
2.06
2.40
2.79
3.24
3.80
4.42
5.06
5.66
6.20
6.68
7.15
7.68
8.31
9.14
10.09
11.04
11.88
12.56
13.14
13.76
14.65
15.96
17.91
20.32
22.90
25.38
27.58
29.57
31.68
34.32
37.81
42.54
48.15
54.10
59.83
64.97
69.58
74.14
79.34
85.71
93.76
103.00
112.62
121.73
129.77
136.75
143.30
150.75
157.77
166.64
177.95
191.79
206.97
220.57
228.25
225.36
208.53
176.87
132.76
80.05
23.07
-34.94
-92.44
-149.16
-205.23
-260.37
-313.74
-363.87
-409.83
-450.91
-486.50
-515.74
-537.23
-549.22
-549.96
-538.37
-514.21
-478.68
-433.88
-382.45
-327.02
-269.84
-212.63
-156.65
-102.93
-52.34
-5.85
35.66
71.53
101.49
125.69
144.61
158.98
169.49
176.77
181.21
183.10
182.66
180.16
175.96
170.45
164.05
157.10
149.84
142.43
134.92
127.36
119.80
112.29
104.91
97.72
90.79
84.15
77.81
71.78
66.07
60.69
55.66
50.99
46.67
42.70
39.10
35.83
32.90
30.31
28.04
26.10
24.48
23.18
22.18
21.48
21.06
20.91
21.01
21.33
21.87
22.63
23.59
24.73
26.03
27.47
28.98
30.47
31.84
32.96
33.67
33.79
33.18
31.72
29.33
26.02
21.84
16.89
11.34
5.46
-0.49
-6.25
-11.56
-16.20
-20.02
-22.90
-24.84
-25.84
-25.98
-25.39
-24.19
-22.52
-20.51
-18.27
-15.87
-13.38
-10.83
-8.28
-5.74
-3.24
-0.79
1.62
4.03
6.46
8.96
11.60
14.38
17.29
20.35
23.60
27.04
30.71
34.63
38.84
43.41
48.20
53.15
58.22
63.39
68.65
74.03
79.55
85.26
91.28
97.43
103.60
109.77
115.92
122.07
128.27
134.57
141.08
147.91
154.77
161.41
167.56
172.93
177.17
179.81
180.24
177.55
173.37
168.17
162.22
155.62
148.43
140.64
132.31
123.51
114.39
105.13
95.56
85.60
75.17
64.28
52.96
41.35
29.71
18.35
7.64
-2.41
-11.88
-20.93
-29.79
-38.67
-47.63
-56.57
-65.21
-73.29
-80.79
-87.94
-95.15
-102.86
-111.42
-120.84
-130.76
-140.57
-149.59
-157.55
-164.59
-171.25
-178.31
-186.41
-195.81
-206.28
-217.34
-228.46
-239.43
-250.42
-261.91
-274.53
-289.09
-306.63
-328.18
-354.23
-383.78
-413.77
-439.40
-455.34
-457.67
-445.21
-419.77
-385.06
-345.07
-302.72
-259.61
-216.62
-174.62
-134.94
-98.87
-67.08
-39.13
-13.62
11.09
36.06
61.33
86.11
109.16
129.54
146.90
161.54
174.04
184.86
194.05
201.35
206.54
209.80
211.85
213.75
216.43
220.24
224.76
228.81
230.76
228.88
221.77
208.72
189.98
166.84
141.43
116.17
93.22
74.01
58.95
47.58
38.94
31.81
24.98
17.43
8.30
-2.96
-16.47
-31.84
-48.19
-64.39
-79.36
-92.37
-103.08
-111.29
-116.72
-118.81
-116.91
-110.75
-100.90
-88.80
-76.45
-65.67
-57.49
-51.91
-48.14
-45.19
-42.36
-39.45
-36.70
-34.36
-32.48
-30.80
-28.87
-26.17
-22.42
-17.62
-12.04
-6.10
-0.28
5.06
9.72
13.61
16.74
19.09
20.69
21.54
21.73
21.42
20.80
20.06
19.25
18.39
17.34
15.96
14.05
11.45
8.09
4.05
-0.46
-5.12
-9.66
-13.96
-18.10
-22.34
-26.97
-32.28
-38.42
-45.38
-53.02
-60.90
-68.39
-74.63
-78.77
-80.20
-78.75
-74.77
-69.06
-62.66
-56.61
-51.80
-48.89
-48.30
-50.12
-54.10
-59.65
-65.87
-71.82
-76.69
-80.13
-82.20
-83.28
-83.77
-83.96
-83.89
-83.43
-82.53
-81.24
-79.77
-78.32
-76.93
-75.44
-73.56
-71.01
-67.59
-63.26
-58.15
-52.51
-46.79
-41.48
-36.87
-32.78
-28.38
-22.28
-13.05
0.24
17.40
37.20
57.64
76.73
93.02
106.01
116.21
125.07
134.67
147.29
164.71
187.51
214.50
242.80
268.74
289.08
302.29
309.05
311.63
312.64
313.55
313.92
311.60
303.72
288.00
263.65
231.53
193.78
153.19
112.62
74.66
41.47
14.55
-5.56
-19.44
-28.62
-35.15
-40.94
-47.11
-53.88
-60.77
-67.08
-72.25
-76.03
-78.50
-79.88
-80.55
-81.06
-82.12
-84.44
-88.39
-93.82
-99.91
-105.30
-108.53
-108.41
-104.48
-97.07
-87.16
-76.08
-65.13
-55.26
-46.87
-39.83
-33.57
-27.37
-20.68
-13.34
-5.67
1.64
7.82
12.29
14.85
15.62
14.93
13.16
10.58
7.54
4.50
2.14
1.23
2.46
6.18
12.26
20.17
29.03
37.88
45.81
52.24
56.88
59.86
61.58
62.51
63.04
63.40
63.63
63.69
63.53
63.13
62.55
61.85
61.09
60.32
59.55
58.78
57.91
56.85
55.61
54.31
53.19
52.53
52.47
53.01
53.97
55.06
55.91
56.05
54.96
52.22
47.71
41.86
35.73
30.79
28.57
30.09
35.61
44.47
55.37
66.73
77.13
85.55
91.51
94.97
96.13
95.35
92.94
89.17
84.23
78.26
71.31
63.36
54.40
44.52
33.96
23.04
11.98
0.74
-10.98
-23.59
-37.21
-51.55
-65.87
-79.33
-91.38
-101.98
-111.59
-120.84
-130.13
-139.50
-148.50
-156.54
-163.06
-167.74
-170.63
-172.01
-172.37
-172.24
-171.96
-171.69
-171.42
-171.06
-170.69
-170.65
-171.56
-174.18
-179.20
-187.08
-197.84
-211.00
-225.34
-238.80
-248.47
-250.81
-242.49
-221.34
-187.37
-143.05
-92.99
-42.77
2.49
39.13
65.40
81.22
87.54
85.75
77.44
64.33
48.41
31.91
16.98
5.34
-2.09
-5.28
-4.83
-1.54
4.06
11.82
21.91
34.18
47.75
61.00
72.23
80.58
86.76
92.88
101.64
114.85
132.48
152.53
171.78
187.09
196.44
199.31
196.31
188.45
176.62
161.51
143.83
124.61
105.13
86.55
69.51
53.81
38.72
23.43
7.71
-7.77
-21.53
-31.95
-37.94
-39.43
-37.46
-33.75
-30.09
-27.80
-27.36
-28.39
-29.92
-30.85
-30.34
-28.14
-24.56
-20.35
-16.23
-12.72
-9.85
-7.38
-4.93
-2.22
0.79
3.98
7.13
10.10
12.82
15.31
17.58
19.53
20.99
21.66
21.31
19.82
17.32
14.19
10.90
7.92
5.50
3.56
1.72
-0.41
-3.10
-6.22
-9.33
-11.79
-13.04
-12.87
-11.53
-9.74
-8.47
-8.69
-10.98
-15.27
-20.67
-25.70
-28.73
-28.64
-25.33
-19.82
-13.89
-9.26
-6.86
-6.43
-6.73
-6.12
-3.32
2.05
9.17
16.01
19.68
16.92
5.23
-15.78
-43.32
-71.32
-91.92
-98.10
-86.58
-59.30
-22.86
14.09
44.09
63.24
71.61
71.93
67.53
60.78
52.73
43.68
33.97
24.40
15.98
9.38
4.49
0.51
-3.76
-9.27
-16.35
-24.63
-33.14
-40.75
-46.55
-50.13
-51.76
-52.24
-52.58
-53.63
-55.72
-58.74
-62.22
-65.68
-68.69
-70.77
-70.99
-67.79
-59.21
-43.66
-20.97
6.96
36.34
62.70
82.43
94.11
98.79
99.15
98.07
97.36
97.39
97.49
96.83
95.01
92.12
88.33
83.46
76.99
68.41
57.88
46.37
35.53
27.05
21.91
20.09
20.63
22.02
22.77
21.86
18.84
13.90
7.65
0.93
-5.51
-11.20
-16.05
-20.28
-24.26
-28.27
-32.39
-36.55
-40.65
-44.65
-48.64
-52.68
-56.67
-60.29
-62.99
-64.17
-63.43
-60.71
-56.36
-51.03
-45.41
-39.95
-34.86
-30.05
-25.40
-20.88
-16.68
-13.09
-10.37
-8.67
-7.91
-7.95
-8.65
-9.89
-11.57
-13.52
-15.53
-17.25
-18.31
-18.26
-16.61
-12.90
-6.76
1.91
12.76
24.99
37.48
49.07
58.89
66.48
71.80
75.08
76.57
76.47
74.95
72.25
68.72
64.89
61.29
58.27
55.88
53.80
51.46
48.17
43.32
36.50
27.68
17.17
5.67
-5.86
-16.38
-24.93
-30.86
-33.99
-34.61
-33.33
-30.94
-28.18
-25.58
-23.41
-21.69
-20.37
-19.32
-18.49
-17.85
-17.37
-17.03
-16.76
-16.51
-16.16
-15.64
-14.83
-13.63
-11.96
-9.83
-7.37
-4.83
-2.57
-0.98
-0.32
-0.71
-2.07
-4.10
-6.42
-8.59
-10.29
-11.42
-12.06
-12.44
-12.80
-13.30
-13.98
-14.77
-15.65
-16.55
-17.52
-18.55
-19.64
-20.85
-22.30
-24.21
-26.77
-30.02
-33.64
-37.00
-39.32
-39.92
-38.54
-35.33
-30.81
-25.61
-20.26
-15.06
-10.09
-5.38
-0.93
3.13
6.71
9.71
12.18
14.28
16.18
18.02
19.85
21.61
23.21
24.64
25.90
27.01
27.88
28.33
28.08
26.92
24.77
21.79
18.26
14.50
10.74
7.11
3.61
0.29
-2.72
-5.28
-7.26
-8.66
-9.63
-10.43
-11.32
-12.55
-14.26
-16.56
-19.49
-22.85
-26.28
-29.18
-30.93
-31.08
-29.53
-26.59
-22.84
-18.93
-15.35
-12.39
-10.05
-8.18
-6.57
-5.06
-3.63
-2.40
-1.57
-1.30
-1.69
-2.65
-3.94
-5.30
-6.50
-7.48
-8.27
-8.99
-9.81
-10.84
-12.19
-13.95
-16.19
-18.96
-22.24
-25.93
-29.87
-33.81
-37.51
-40.71
-43.23
-44.97
-46.02
-46.52
-46.73
-46.79
-46.64
-45.99
-44.21
-40.51
-34.11
-24.53
-11.80
3.41
19.86
36.06
50.63
62.49
71.16
76.62
79.21
79.43
77.89
75.25
72.05
68.73
65.47
62.20
58.71
54.81
50.51
46.05
41.76
37.96
34.80
32.21
29.99
27.89
25.80
23.69
21.68
19.92
18.48
17.29
16.12
14.69
12.78
10.31
7.36
4.10
0.69
-2.76
-6.16
-9.48
-12.68
-15.78
-18.84
-21.92
-25.00
-27.86
-30.14
-31.41
-31.34
-29.84
-27.15
-23.71
-20.04
-16.59
-13.60
-11.13
-9.03
-7.08
-5.07
-2.87
-0.52
1.82
3.93
5.59
6.68
7.20
7.20
6.76
6.02
5.11
4.23
3.52
3.13
3.03
3.13
3.27
3.34
3.31
3.21
3.09
3.02
3.01
3.05
3.10
3.07
2.84
2.27
1.26
-0.17
-1.98
-4.01
-6.11
-8.19
-10.16
-11.96
-13.45
-14.50
-15.07
-15.25
-15.36
-15.84
-17.16
-19.52
-22.85
-26.69
-30.31
-32.92
-33.90
-32.99
-30.34
-26.45
-21.96
-17.41
-13.19
-9.45
-6.19
-3.34
-0.75
1.74
4.21
6.79
9.46
12.09
14.45
16.26
17.29
17.50
17.03
16.25
15.56
15.30
15.61
16.40
17.40
18.23
18.63
18.45
17.72
16.60
15.32
14.11
13.12
12.40
11.85
11.34
10.69
9.80
8.63
7.15
5.35
3.19
0.69
-2.06
-4.83
-7.35
-9.37
-10.79
-11.71
-12.34
-12.93
-13.58
-14.32
-15.06
-15.71
-16.28
-16.88
-17.74
-19.12
-21.17
-23.87
-26.99
-30.04
-32.41
-33.43
-32.63
-29.86
-25.36
-19.69
-13.60
-7.79
-2.71
1.39
4.60
7.09
9.13
10.97
12.73
14.44
16.00
17.25
18.03
18.28
18.11
17.67
17.21
16.89
16.79
16.84
16.95
17.01
16.93
16.66
16.23
15.67
15.00
14.27
13.50
12.71
11.90
11.07
10.27
9.46
8.62
7.65
6.49
5.14
3.70
2.35
1.30
0.64
0.27
-0.06
-0.62
-1.57
-2.86
-4.26
-5.44
-6.15
-6.31
-6.05
-5.63
-5.31
-5.30
-5.72
-6.63
-8.08
-10.08
-12.48
-15.01
-17.12
-18.28
-18.10
-16.50
-13.80
-10.56
-7.38
-4.66
-2.54
-0.85
0.56
1.80
2.89
3.74
4.36
4.81
5.25
5.81
6.55
7.36
8.11
8.66
8.94
9.03
9.02
9.08
9.29
9.76
10.49
11.41
12.34
12.99
13.15
12.66
11.61
10.25
8.94
7.97
7.39
7.07
6.68
5.95
4.78
3.27
1.71
0.40
-0.45
-0.79
-0.74
-0.53
-0.40
-0.61
-1.27
-2.41
-3.92
-5.58
-7.17
-8.52
-9.60
-10.45
-11.20
-12.02
-13.04
-14.36
-15.93
-17.54
-18.90
-19.68
-19.65
-18.76
-17.14
-15.08
-12.79
-10.45
-8.15
-5.96
-3.95
-2.14
-0.50
1.09
2.75
4.55
6.35
7.96
9.12
9.70
9.71
9.34
8.83
8.34
7.97
7.69
7.42
7.08
6.62
6.07
5.55
5.18
5.11
5.42
6.11
7.07
8.09
8.90
9.25
8.97
8.08
6.71
5.09
3.47
1.98
0.59
-0.77
-2.19
-3.69
-5.11
-6.22
-6.79
-6.79
-6.38
-5.86
-5.57
-5.67
-6.08
-6.57
-6.88
-6.89
-6.74
-6.71
-7.07
-7.98
-9.32
-10.80
-12.02
-12.62
-12.32
-11.04
-8.94
-6.37
-3.79
-1.66
-0.24
0.42
0.51
0.32
0.15
0.21
0.57
1.22
2.04
2.89
3.59
3.98
4.05
3.85
3.55
3.36
3.37
3.62
4.04
4.60
5.33
6.23
7.27
8.29
9.04
9.24
8.77
7.76
6.50
5.36
4.64
4.36
4.36
4.28
3.85
2.92
1.65
0.28
-0.89
-1.69
-2.12
-2.26
-2.26
-2.24
-2.27
-2.37
-2.53
-2.70
-2.83
-2.88
-2.85
-2.83
-2.98
-3.51
-4.53
-6.09
-8.08
-10.23
-12.19
-13.57
-14.07
-13.48
-11.86
-9.47
-6.73
-4.09
-1.93
-0.49
0.16
0.09
-0.53
-1.49
-2.51
-3.30
-3.58
-3.20
-2.20
-0.84
0.44
1.26
1.35
0.77
-0.25
-1.36
-2.34
-3.08
-3.59
-3.96
-4.17
-4.12
-3.73
-2.99
-2.03
-1.12
-0.58
-0.64
-1.38
-2.64
-4.04
-5.11
-5.53
-5.15
-4.13
-2.78
-1.43
-0.26
0.67
1.38
1.85
1.94
1.53
0.55
-0.86
-2.46
-3.99
-5.32
-6.55
-7.89
-9.45
-11.03
-12.19
-12.40
-11.36
-9.13
-6.22
-3.26
-0.78
1.05
2.34
3.36
4.30
5.21
6.03
6.68
7.17
7.56
7.90
8.21
8.39
8.36
7.99
7.22
6.04
4.50
2.82
1.32
0.42
0.42
1.42
3.18
5.22
6.98
8.11
8.50
8.25
7.65
6.93
6.28
5.76
5.38
5.19
5.21
5.44
5.86
6.37
6.82
7.03
6.82
6.07
4.71
2.75
0.32
-2.38
-5.07
-7.53
-9.65
-11.39
-12.88
-14.29
-15.78
-17.41
-19.04
-20.38
-21.08
-20.83
-19.50
-17.18
-14.18
-10.90
-7.78
-5.19
-3.42
-2.54
-2.45
-2.82
-3.20
-3.15
-2.43
-1.10
0.49
1.82
2.50
2.39
1.63
0.61
-0.29
-0.86
-1.14
-1.37
-1.80
-2.58
-3.70
-4.98
-6.21
-7.22
-7.97
-8.54
-9.08
-9.74
-10.63
-11.79
-13.22
-14.90
-16.82
-19.00
-21.49
-24.35
-27.63
-31.32
-35.39
-39.76
-44.31
-48.95
-53.55
-58.05
-62.43
-66.89
-71.72
-77.19
-83.39
-90.08
-96.81
-103.10
-108.73
-113.88
-119.08
-124.86
-131.50
-138.80
-145.99
-152.03
-155.76
-156.08
-151.99
-142.55
-127.00
-104.92
-76.35
-41.81
-2.10
41.96
89.54
139.60
190.51
239.74
283.92
319.48
343.55
354.87
354.22
344.11
327.98
308.98
289.17
269.06
248.04
225.12
199.70
172.11
143.50
115.31
88.77
64.50
42.66
23.21
6.23
-8.04
-19.44
-28.13
-34.69
-39.96
-44.76
-49.52
-54.30
-58.78
-62.47
-64.93
-65.92
-65.52
-64.03
-61.97
-59.88
-58.12
-56.84
-55.90
-55.03
-53.92
-52.50
-50.85
-49.27
-48.02
-47.24
-46.92
-46.89
-47.01
-47.18
-47.39
-47.62
-47.72
-47.36
-46.12
-43.62
-39.83
-35.08
-30.00
-25.26
-21.30
-18.24
-15.89
-13.89
-11.99
-10.04
-8.03
-6.05
-4.16
-2.42
-0.81
0.69
2.13
3.54
4.95
6.35
7.71
8.97
10.04
10.84
11.26
11.28
10.84
10.03
8.91
7.60
6.17
4.69
3.25
1.91
0.82
0.08
-0.27
-0.30
-0.20
-0.17
-0.35
-0.77
-1.36
-2.09
-3.00
-4.20
-5.76
-7.68
-9.75
-11.72
-13.34
-14.53
-15.44
-16.33
-17.47
-18.99
-20.80
-22.66
-24.28
-25.37
-25.74
-25.26
-23.93
-21.82
-19.13
-16.20
-13.38
-10.93
-8.94
-7.32
-5.78
-4.11
-2.21
-0.19
1.70
3.23
4.30
5.00
5.60
6.36
7.43
8.78
10.28
11.71
12.90
13.75
14.21
14.24
13.82
12.94
11.68
10.24
8.90
7.91
7.44
7.43
7.68
7.88
7.76
7.22
6.36
5.41
4.69
4.45
4.74
5.47
6.34
7.01
7.22
6.85
5.96
4.80
3.63
2.65
1.92
1.25
0.32
-1.29
-3.99
-7.97
-13.14
-19.04
-24.89
-29.78
-32.96
-34.08
-33.28
-31.15
-28.45
-25.84
-23.74
-22.24
-21.22
-20.37
-19.31
-17.73
-15.38
-12.17
-8.21
-3.78
0.79
5.19
9.20
12.78
15.99
18.97
21.87
24.86
27.97
31.08
33.86
35.97
37.19
37.58
37.57
37.67
38.33
39.61
41.28
42.89
43.97
44.29
43.77
42.52
40.64
38.16
35.06
31.33
27.09
22.59
18.12
13.90
9.93
5.98
1.72
-3.12
-8.58
-14.40
-20.22
-25.78
-31.10
-36.51
-42.52
-49.41
-57.08
-64.93
-72.02
-77.36
-80.19
-80.24
-77.75
-73.41
-68.14
-62.90
-58.49
-55.46
-53.95
-53.61
-53.55
-52.44
-48.83
-41.66
-30.66
-16.55
-0.84
14.63
28.25
39.08
46.98
52.38
55.98
58.40
59.99
60.90
61.14
60.72
59.68
58.08
55.93
53.17
49.84
46.01
41.95
37.99
34.37
31.12
28.01
24.69
20.84
16.34
11.33
6.15
1.19
-3.21
-6.78
-9.48
-11.43
-12.91
-14.32
-15.96
-17.90
-19.91
-21.47
-21.96
-20.97
-18.46
-14.85
-10.88
-7.36
-4.78
-3.28
-2.58
-2.17
-1.59
-0.58
0.86
2.58
4.34
5.98
7.44
8.76
10.02
11.24
12.40
13.45
14.30
14.94
15.42
15.85
16.36
16.97
17.58
18.02
18.03
17.50
16.42
14.97
13.35
11.80
10.46
9.31
8.31
7.36
6.34
5.15
3.70
1.93
-0.20
-2.64
-5.34
-8.22
-11.21
-14.25
-17.23
-20.01
-22.34
-23.86
-24.16
-22.89
-19.87
-15.24
-9.47
-3.29
2.57
7.57
11.52
14.53
16.82
18.57
19.81
20.49
20.57
20.09
19.27
18.30
17.40
16.63
16.04
15.63
15.43
15.40
15.42
15.24
14.61
13.27
11.14
8.28
4.92
1.38
-1.99
-4.86
-7.02
-8.32
-8.81
-8.66
-8.13
-7.52
-7.06
-6.87
-6.95
-7.24
-7.69
-8.28
-9.02
-9.93
-11.03
-12.37
-13.98
-15.95
-18.28
-20.75
-22.90
-24.11
-23.81
-21.71
-17.92
-12.95
-7.49
-2.11
2.77
7.00
10.55
13.44
15.68
17.23
18.16
18.58
18.66
18.58
18.45
18.32
18.16
17.92
17.61
17.27
16.97
16.73
16.50
16.10
15.37
14.22
12.71
11.05
9.49
8.26
7.38
6.77
6.18
5.39
4.23
2.65
0.80
-1.14
-2.96
-4.57
-6.00
-7.40
-8.95
-10.77
-12.96
-15.48
-18.22
-20.92
-23.15
-24.39
-24.13
-22.09
-18.30
-13.22
-7.56
-2.12
2.49
5.98
8.36
9.91
10.97
11.88
12.77
13.69
14.50
15.07
15.34
15.32
15.13
14.83
14.44
13.90
13.23
12.58
12.18
12.24
12.79
13.62
14.26
14.29
13.49
12.03
10.25
8.62
7.39
6.52
5.77
4.82
3.50
1.81
-0.05
-1.93
-3.81
-5.80
-8.14
-11.01
-14.39
-18.05
-21.54
-24.38
-26.14
-26.54
-25.52
-23.24
-19.99
-16.18
-12.18
-8.34
-4.92
-2.09
0.09
1.77
3.14
4.49
5.97
7.56
9.09
10.34
11.20
11.72
12.10
12.52
13.04
13.51
13.70
13.38
12.60
11.55
10.45
9.48
8.64
7.72
6.50
4.76
2.45
-0.37
-3.45
-6.44
-8.92
-10.43
-10.69
-9.64
-7.53
-4.91
-2.40
-0.54
0.40
0.43
-0.25
-1.49
-3.18
-5.32
-7.81
-10.36
-12.45
-13.45
-12.84
-10.45
-6.50
-1.58
3.50
7.90
10.99
12.41
12.15
10.51
7.97
5.05
2.15
-0.45
-2.67
-4.54
-6.14
-7.55
-8.84
-9.93
-10.68
-10.79
-9.95
-7.97
-4.84
-0.84
3.61
8.00
11.97
15.35
18.04
20.00
21.17
21.58
21.27
20.44
19.39
18.37
17.50
16.78
16.08
15.20
13.99
12.33
10.24
7.77
5.06
2.27
-0.41
-2.86
-4.99
-6.84
-8.43
-9.71
-10.52
-10.62
-9.88
-8.32
-6.13
-3.60
-0.98
1.61
4.11
6.48
8.49
9.86
10.36
9.95
8.92
7.78
6.94
6.57
6.55
6.58
6.39
5.92
5.21
4.41
3.53
2.49
1.18
-0.40
-2.17
-3.96
-5.67
-7.35
-9.13
-11.12
-13.29
-15.47
-17.38
-18.89
-20.00
-20.91
-21.86
-22.98
-24.28
-25.60
-26.79
-27.69
-28.21
-28.16
-27.26
-25.21
-21.71
-16.75
-10.68
-4.22
1.82
6.79
10.45
12.95
14.72
16.16
17.49
18.73
19.75
20.49
20.96
21.24
21.37
21.30
20.89
20.06
18.94
17.73
16.68
15.85
15.12
14.24
12.93
11.07
8.76
6.25
3.85
1.79
0.16
-1.16
-2.36
-3.70
-5.28
-7.09
-8.94
-10.57
-11.81
-12.62
-13.17
-13.72
-14.63
-16.19
-18.53
-21.56
-24.87
-27.82
-29.65
-29.76
-27.92
-24.45
-20.05
-15.60
-11.74
-8.68
-6.21
-3.87
-1.27
1.74
5.01
8.20
10.99
13.11
14.44
15.00
14.95
14.49
13.86
13.26
12.78
12.45
12.20
12.03
11.91
11.83
11.75
11.57
11.19
10.56
9.78
8.97
8.23
7.52
6.62
5.28
3.35
0.92
-1.76
-4.39
-6.83
-9.09
-11.29
-13.52
-15.74
-17.88
-19.94
-22.02
-24.29
-26.74
-29.04
-30.58
-30.63
-28.78
-25.11
-20.22
-14.98
-10.11
-6.03
-2.79
-0.17
2.08
4.09
5.91
7.52
8.93
10.12
11.10
11.86
12.43
12.81
13.10
13.33
13.46
13.41
13.13
12.60
11.92
11.19
10.52
9.89
9.23
8.45
7.49
6.33
4.96
3.43
1.77
0.04
-1.64
-3.18
-4.55
-5.77
-6.95
-8.13
-9.35
-10.62
-12.00
-13.71
-15.93
-18.83
-22.30
-26.02
-29.46
-32.01
-33.20
-32.78
-30.81
-27.57
-23.56
-19.35
-15.44
-12.13
-9.49
-7.39
-5.59
-3.86
-2.15
-0.47
1.11
2.59
4.01
5.46
6.90
8.23
9.23
9.76
9.79
9.52
9.24
9.24
9.61
10.17
10.59
10.53
9.85
8.69
7.42
6.42
5.83
5.52
5.14
4.28
2.70
0.48
-2.07
-4.55
-6.63
-8.16
-9.16
-9.77
-10.11
-10.30
-10.51
-10.90
-11.66
-12.80
-14.07
-15.01
-15.02
-13.61
-10.61
-6.27
-1.17
3.94
8.46
12.07
14.74
16.74
18.43
20.10
21.91
23.86
25.84
27.71
29.38
30.79
31.95
32.90
33.66
34.35
35.13
36.16
37.54
39.20
40.88
42.16
42.68
42.20
40.72
38.47
35.72
32.74
29.65
26.44
23.05
19.44
15.71
12.05
8.75
6.09
4.19
2.95
2.08
1.21
-0.04
-1.84
-4.18
-6.86
-9.65
-12.40
-15.10
-17.87
-20.92
-24.45
-28.61
-33.43
-38.80
-44.34
-49.47
-53.49
-55.72
-55.70
-53.37
-49.05
-43.46
-37.39
-31.60
-26.50
-22.18
-18.48
-15.19
-12.16
-9.40
-6.95
-4.86
-3.06
-1.51
-0.17
0.90
1.62
1.96
2.06
2.16
2.56
3.34
4.45
5.69
6.86
7.84
8.61
9.14
9.41
9.39
9.11
8.71
8.37
8.22
8.26
8.27
8.01
7.35
6.33
5.19
4.23
3.57
3.13
2.57
1.51
-0.39
-3.23
-6.90
-11.05
-15.22
-19.00
-22.14
-24.57
-26.41
-27.97
-29.65
-31.77
-34.56
-37.88
-41.28
-43.98
-45.18
-44.27
-41.09
-35.97
-29.70
-23.16
-17.11
-11.96
-7.79
-4.38
-1.35
1.70
5.14
9.25
14.11
19.60
25.35
30.88
35.65
39.27
41.58
42.74
43.15
43.35
43.82
44.87
46.59
48.77
51.08
53.14
54.61
55.34
55.33
54.73
53.71
52.42
50.89
48.98
46.50
43.32
39.45
35.11
30.70
26.57
23.01
20.07
17.64
15.51
13.46
11.36
9.15
6.76
4.16
1.24
-2.11
-6.00
-10.53
-15.69
-21.40
-27.36
-33.16
-38.19
-41.77
-43.36
-42.67
-39.86
-35.53
-30.52
-25.62
-21.33
-17.71
-14.49
-11.34
-8.12
-5.04
-2.51
-0.95
-0.56
-1.21
-2.56
-4.20
-5.78
-7.07
-7.95
-8.30
-8.04
-7.09
-5.48
-3.31
-0.86
1.55
3.57
4.93
5.52
5.39
4.76
3.90
3.05
2.30
1.68
1.09
0.49
-0.11
-0.62
-0.97
-1.14
-1.22
-1.35
-1.71
-2.42
-3.52
-4.97
-6.69
-8.59
-10.65
-12.90
-15.43
-18.36
-21.71
-25.36
-29.00
-32.15
-34.23
-34.71
-33.26
-29.95
-25.23
-19.77
-14.32
-9.37
-5.07
-1.27
2.28
5.68
8.88
11.64
13.80
15.32
16.34
17.11
17.74
18.24
18.51
18.41
17.96
17.28
16.63
16.18
15.96
15.77
15.33
14.37
12.79
10.76
8.55
6.55
5.01
3.99
3.38
2.98
2.54
1.99
1.31
0.62
-0.01
-0.57
-1.14
-1.87
-2.91
-4.34
-6.18
-8.37
-10.76
-13.25
-15.73
-18.16
-20.49
-22.70
-24.79
-26.75
-28.58
-30.29
-31.80
-33.03
-33.71
-33.51
-32.16
-29.47
-25.61
-21.02
-16.33
-12.10
-8.62
-5.81
-3.34
-0.85
1.90
4.86
7.83
10.58
12.97
14.98
16.61
17.87
18.75
19.25
19.35
19.17
18.85
18.52
18.26
18.04
17.78
17.33
16.56
15.41
13.95
12.41
11.05
10.05
9.39
8.90
8.24
7.23
5.88
4.38
2.96
1.70
0.48
-0.95
-2.73
-4.82
-6.98
-8.88
-10.31
-11.26
-11.98
-12.73
-13.81
-15.37
-17.43
-19.92
-22.69
-25.50
-27.98
-29.74
-30.35
-29.61
-27.57
-24.55
-21.07
-17.70
-14.78
-12.39
-10.36
-8.30
-5.87
-2.90
0.55
4.17
7.55
10.38
12.52
14.06
15.23
16.25
17.19
18.02
18.62
18.96
19.12
19.23
19.45
19.75
20.00
20.01
19.70
19.13
18.42
17.72
17.01
16.18
15.05
13.52
11.66
9.66
7.70
5.91
4.26
2.64
0.95
-0.84
-2.71
-4.55
-6.35
-8.10
-9.88
-11.77
-13.89
-16.32
-19.16
-22.41
-25.98
-29.58
-32.70
-34.75
-35.16
-33.63
-30.28
-25.63
-20.51
-15.70
-11.67
-8.45
-5.71
-2.98
0.04
3.39
6.83
10.03
12.73
14.85
16.41
17.47
18.07
18.24
18.03
17.63
17.23
17.06
17.17
17.52
17.96
18.34
18.54
18.53
18.26
17.69
16.78
15.51
13.98
12.32
10.66
9.07
7.54
6.04
4.58
3.24
2.10
1.20
0.46
-0.31
-1.31
-2.67
-4.45
-6.58
-8.98
-11.49
-13.98
-16.37
-18.73
-21.24
-24.19
-27.68
-31.52
-35.09
-37.57
-38.22
-36.69
-33.26
-28.65
-23.76
-19.25
-15.43
-12.24
-9.40
-6.65
-3.88
-1.13
1.55
4.11
6.57
8.98
11.37
13.68
15.82
17.65
19.06
20.02
20.57
20.84
20.96
21.00
20.94
20.71
20.17
19.21
17.77
15.86
13.56
11.02
8.45
6.06
3.96
2.20
0.68
-0.77
-2.34
-4.13
-6.14
-8.20
-10.12
-11.79
-13.24
-14.64
-16.21
-18.19
-20.67
-23.55
-26.54
-29.19
-30.98
-31.49
-30.48
-28.00
-24.36
-20.09
-15.69
-11.59
-7.95
-4.68
-1.56
1.67
5.09
8.68
12.20
15.41
18.07
20.06
21.38
22.09
22.28
22.07
21.58
20.93
20.32
19.89
19.77
19.95
20.27
20.51
20.38
19.70
18.43
16.74
14.86
13.09
11.59
10.37
9.27
8.06
6.51
4.47
1.94
-0.95
-3.97
-6.87
-9.44
-11.56
-13.25
-14.63
-15.97
-17.53
-19.62
-22.39
-25.83
-29.60
-33.14
-35.77
-36.87
-36.14
-33.66
-29.89
-25.47
-20.97
-16.71
-12.74
-8.98
-5.33
-1.78
1.63
4.82
7.83
10.67
13.36
15.83
17.98
19.67
20.88
21.63
22.01
22.12
22.01
21.72
21.33
20.87
20.33
19.65
18.71
17.45
15.90
14.18
12.46
10.93
9.68
8.69
7.82
6.90
5.75
4.27
2.51
0.60
-1.24
-2.90
-4.46
-6.19
-8.48
-11.65
-15.75
-20.48
-25.22
-29.22
-31.77
-32.45
-31.22
-28.37
-24.44
-20.08
-15.84
-12.10
-8.97
-6.34
-3.90
-1.32
1.57
4.77
8.05
11.13
13.83
16.10
18.03
19.71
21.17
22.37
23.28
23.92
24.41
24.84
25.22
25.41
25.25
24.60
23.54
22.31
21.18
20.38
19.91
19.62
19.25
18.60
17.51
16.01
14.14
12.02
9.74
7.34
4.87
2.31
-0.35
-3.11
-5.93
-8.79
-11.64
-14.46
-17.29
-20.23
-23.45
-27.13
-31.32
-35.88
-40.35
-44.08
-46.31
-46.48
-44.42
-40.39
-35.00
-28.99
-22.97
-17.22
-11.82
-6.71
-1.84
2.78
7.08
10.99
14.54
17.78
20.75
23.50
25.95
28.06
29.77
31.08
32.04
32.73
33.20
33.49
33.59
33.45
33.01
32.22
31.08
29.63
27.98
26.25
24.55
22.89
21.26
19.66
18.10
16.64
15.37
14.29
13.34
12.32
11.09
9.55
7.68
5.57
3.32
1.05
-1.18
-3.31
-5.27
-7.00
-8.45
-9.58
-10.51
-11.36
-12.37
-13.73
-15.57
-17.91
-20.72
-23.92
-27.48
-31.29
-35.21
-38.89
-41.82
-43.37
-43.04
-40.60
-36.25
-30.66
-24.66
-19.01
-14.09
-9.93
-6.28
-2.83
0.61
4.05
7.40
10.57
13.58
16.45
19.23
21.85
24.18
26.02
27.28
27.91
27.96
27.57
26.85
25.99
25.07
24.13
23.10
21.89
20.47
18.90
17.33
15.96
14.87
13.99
13.13
12.12
10.93
9.64
8.41
7.28
6.17
4.89
3.29
1.30
-0.94
-3.24
-5.41
-7.35
-9.03
-10.52
-11.90
-13.32
-15.00
-17.18
-20.02
-23.40
-26.84
-29.67
-31.15
-30.90
-28.87
-25.41
-21.11
-16.57
-12.26
-8.46
-5.24
-2.53
-0.13
2.14
4.46
6.84
9.14
11.16
12.71
13.80
14.59
15.34
16.18
17.09
17.85
18.21
18.08
17.61
17.11
16.92
17.22
17.84
18.40
18.48
17.84
16.54
14.87
13.25
11.96
11.09
10.48
9.86
8.90
7.39
5.24
2.51
-0.60
-3.79
-6.78
-9.43
-11.77
-14.01
-16.41
-19.19
-22.38
-25.86
-29.38
-32.63
-35.23
-36.80
-36.96
-35.54
-32.59
-28.50
-23.89
-19.38
-15.41
-12.11
-9.37
-6.86
-4.27
-1.37
1.91
5.55
9.42
13.30
16.99
20.26
22.92
24.90
26.20
26.87
27.03
26.81
26.33
25.68
24.94
24.14
23.30
22.42
21.44
20.28
18.87
17.21
15.35
13.45
11.65
10.06
8.72
7.55
6.45
5.32
4.04
2.52
0.74
-1.32
-3.63
-6.06
-8.46
-10.66
-12.60
-14.28
-15.85
-17.54
-19.64
-22.36
-25.74
-29.53
-33.18
-35.94
-37.07
-36.12
-33.10
-28.48
-23.06
-17.62
-12.76
-8.74
-5.47
-2.72
-0.19
2.31
4.86
7.48
10.15
12.79
15.35
17.68
19.59
20.88
21.46
21.45
21.14
20.91
21.11
21.83
22.88
23.87
24.34
24.01
22.87
21.19
19.41
17.87
16.72
15.84
14.98
13.91
12.53
10.89
9.12
7.29
5.40
3.36
1.12
-1.32
-3.82
-6.31
-8.71
-11.04
-13.32
-15.60
-17.82
-19.92
-21.90
-23.87
-26.04
-28.60
-31.55
-34.56
-37.01
-38.15
-37.35
-34.47
-29.89
-24.45
-19.06
-14.42
-10.74
-7.82
-5.21
-2.52
0.37
3.35
6.17
8.64
10.65
12.27
13.58
14.61
15.29
15.51
15.26
14.66
13.99
13.59
13.69
14.31
15.21
16.05
16.48
16.31
15.55
14.28
12.66
10.84
8.92
7.01
5.08
3.13
1.06
-1.23
-3.71
-6.21
-8.47
-10.29
-11.65
-12.76
-14.08
-16.05
-18.93
-22.64
-26.79
-30.74
-33.86
-35.60
-35.74
-34.27
-31.53
-27.94
-24.03
-20.18
-16.67
-13.64
-11.10
-9.05
-7.42
-6.19
-5.29
-4.62
-4.03
-3.37
-2.53
-1.54
-0.51
0.37
0.95
1.21
1.23
1.23
1.48
2.21
3.60
5.70
8.41
11.44
14.42
16.93
18.67
19.62
19.95
19.88
19.55
18.85
17.54
15.30
12.05
7.92
3.23
-1.66
-6.51
-11.21
-15.72
-20.04
-24.07
-27.79
-31.18
-34.32
-37.25
-39.84
-41.76
-42.50
-41.65
-39.05
-34.96
-29.92
-24.62
-19.53
-14.80
-10.29
-5.68
-0.74
4.57
10.03
15.36
20.30
24.73
28.60
31.86
34.40
36.04
36.63
36.17
34.85
33.04
31.18
29.59
28.41
27.53
26.70
25.71
24.40
22.79
21.00
19.20
17.47
15.74
13.85
11.62
8.98
5.97
2.79
-0.28
-3.06
-5.51
-7.72
-9.91
-12.23
-14.66
-17.00
-18.94
-20.24
-20.85
-20.97
-20.97
-21.19
-21.87
-23.03
-24.46
-25.75
-26.35
-25.72
-23.46
-19.43
-13.90
-7.40
-0.58
6.01
11.98
17.22
21.77
25.72
29.17
32.21
34.89
37.23
39.23
40.90
42.28
43.41
44.38
45.19
45.73
45.80
45.22
43.90
41.98
39.83
37.97
36.90
36.86
37.69
38.75
39.08
37.71
34.03
28.05
20.37
12.00
3.96
-3.02
-8.62
-12.89
-16.00
-18.11
-19.28
-19.63
-19.40
-19.03
-19.01
-19.68
-21.10
-23.00
-24.96
-26.59
-27.74
-28.58
-29.47
-30.79
-32.76
-35.32
-38.15
-40.78
-42.69
-43.44
-42.74
-40.51
-36.92
-32.33
-27.24
-22.18
-17.53
-13.50
-10.03
-6.97
-4.08
-1.29
1.34
3.62
5.40
6.65
7.52
8.27
9.08
10.04
11.07
12.04
12.82
13.36
13.63
13.64
13.34
12.68
11.69
10.41
8.97
7.47
5.94
4.44
2.99
1.66
0.53
-0.38
-1.15
-1.97
-3.01
-4.41
-6.10
-7.96
-9.77
-11.42
-12.92
-14.31
-15.72
-17.23
-18.96
-20.91
-23.20
-25.84
-28.77
-31.70
-34.13
-35.43
-35.06
-32.87
-29.12
-24.49
-19.80
-15.76
-12.79
-10.93
-9.96
-9.47
-9.01
-8.16
-6.69
-4.51
-1.80
1.12
3.86
6.11
7.83
9.20
10.52
12.08
13.98
16.09
18.13
19.78
20.89
21.44
21.61
21.65
21.75
22.00
22.40
22.84
23.18
23.28
23.06
22.49
21.60
20.49
19.30
18.12
16.96
15.83
14.70
13.56
12.36
11.04
9.46
7.48
5.12
2.47
-0.16
-2.46
-4.21
-5.46
-6.44
-7.44
-8.71
-10.29
-12.09
-13.93
-15.71
-17.48
-19.42
-21.77
-24.70
-28.25
-32.21
-36.10
-39.29
-41.12
-41.10
-39.05
-35.18
-30.02
-24.31
-18.76
-13.91
-9.95
-6.72
-3.88
-0.99
2.21
5.72
9.27
12.48
15.01
16.76
17.84
18.54
19.17
19.91
20.85
21.94
23.14
24.36
25.44
26.19
26.36
25.73
24.22
21.97
19.24
16.45
14.02
12.21
11.08
10.53
10.31
10.19
10.00
9.65
9.11
8.39
7.49
6.48
5.42
4.38
3.38
2.38
1.21
-0.27
-2.13
-4.36
-6.79
-9.21
-11.45
-13.46
-15.36
-17.34
-19.60
-22.23
-25.20
-28.38
-31.54
-34.45
-36.83
-38.40
-38.85
-37.93
-35.56
-31.88
-27.33
-22.51
-18.00
-14.14
-10.94
-8.12
-5.33
-2.34
0.88
4.15
7.26
10.04
12.50
14.67
16.57
18.17
19.37
20.16
20.67
21.15
21.83
22.79
23.92
24.86
25.29
24.96
23.91
22.38
20.75
19.38
18.38
17.71
17.09
16.26
15.02
13.34
11.35
9.28
7.36
5.70
4.39
3.41
2.75
2.32
1.99
1.50
0.55
-1.03
-3.24
-5.76
-8.14
-9.98
-11.21
-12.14
-13.31
-15.26
-18.27
-22.19
-26.56
-30.74
-34.13
-36.28
-36.90
-35.86
-33.24
-29.27
-24.47
-19.46
-14.85
-11.04
-8.07
-5.71
-3.52
-1.13
1.68
4.85
8.20
11.46
14.38
16.76
18.39
19.21
19.25
18.72
17.97
17.39
17.29
17.80
18.84
20.16
21.44
22.35
22.69
22.38
21.50
20.28
19.00
17.91
17.10
16.48
15.86
14.93
13.45
11.32
8.57
5.36
1.97
-1.31
-4.26
-6.78
-8.95
-10.90
-12.79
-14.69
-16.58
-18.41
-20.09
-21.60
-23.04
-24.58
-26.40
-28.73
-31.67
-35.23
-39.21
-43.13
-46.42
-48.42
-48.62
-46.80
-43.09
-37.89
-31.68
-24.98
-18.16
-11.50
-5.18
0.64
5.83
10.33
14.11
17.23
19.79
21.91
23.68
25.16
26.37
27.32
28.01
28.54
29.07
29.76
30.67
31.68
32.53
32.93
32.77
32.17
31.44
30.88
30.58
30.40
30.03
29.23
27.91
26.17
24.07
21.61
18.68
15.21
11.31
7.25
3.42
0.08
-2.67
-4.92
-6.79
-8.33
-9.45
-10.09
-10.29
-10.34
-10.69
-11.76
-13.81
-16.78
-20.28
-23.76
-26.63
-28.37
-28.71
-27.57
-25.07
-21.47
-17.15
-12.55
-8.14
-4.35
-1.43
0.64
2.14
3.50
5.17
7.32
9.84
12.35
14.48
16.01
16.98
17.57
17.94
18.16
18.21
18.06
17.79
17.49
17.27
17.11
16.88
16.46
15.71
14.60
13.13
11.34
9.22
6.84
4.33
1.78
-0.78
-3.34
-5.94
-8.57
-11.10
-13.35
-15.17
-16.55
-17.65
-18.67
-19.81
-21.16
-22.80
-24.73
-26.97
-29.39
-31.71
-33.45
-34.06
-33.10
-30.45
-26.38
-21.45
-16.30
-11.55
-7.55
-4.39
-1.96
-0.02
1.70
3.41
5.26
7.29
9.46
11.67
13.83
15.84
17.71
19.45
21.02
22.34
23.26
23.59
23.23
22.20
20.69
18.92
17.08
15.29
13.55
11.76
9.87
7.83
5.67
3.52
1.50
-0.28
-1.78
-3.08
-4.29
-5.53
-6.82
-8.10
-9.32
-10.46
-11.66
-13.16
-15.13
-17.67
-20.69
-24.04
-27.62
-31.44
-35.47
-39.60
-43.46
-46.45
-47.95
-47.52
-45.09
-40.97
-35.71
-29.95
-24.21
-18.84
-13.96
-9.61
-5.72
-2.17
1.17
4.34
7.25
9.64
11.20
11.70
11.26
10.29
9.40
9.16
9.89
11.49
13.62
15.80
17.66
19.02
19.97
20.71
21.48
22.37
23.27
23.94
24.12
23.57
22.26
20.35
18.09
15.73
13.42
11.21
9.07
6.99
4.95
2.93
0.87
-1.35
-3.86
-6.73
-9.90
-13.20
-16.41
-19.38
-22.12
-24.85
-27.82
-31.20
-34.87
-38.35
-40.96
-42.00
-41.07
-38.18
-33.84
-28.78
-23.83
-19.65
-16.60
-14.62
-13.22
-11.58
-8.72
-3.85
3.32
12.38
22.31
31.79
39.63
45.12
48.10
48.89
47.99
45.90
43.00
39.54
35.71
31.65
27.48
23.32
19.26
15.31
11.43
7.52
3.52
-0.61
-4.72
-8.58
-11.90
-14.47
-16.27
-17.39
-18.04
-18.33
-18.25
-17.72
-16.66
-15.12
-13.26
-11.40
-9.82
-8.83
-8.62
-9.29
-10.82
-13.02
-15.46
-17.55
-18.64
-18.25
-16.22
-12.83
-8.66
-4.42
-0.71
2.15
4.15
5.48
6.39
7.09
7.77
8.58
9.65
10.99
12.56
14.14
15.47
16.37
16.81
16.90
16.91
17.03
17.32
17.64
17.77
17.47
16.68
15.48
14.09
12.68
11.36
10.09
8.77
7.30
5.70
4.07
2.55
1.20
-0.05
-1.38
-2.92
-4.73
-6.69
-8.67
-10.61
-12.63
-14.94
-17.71
-20.86
-23.92
-26.23
-27.07
-26.06
-23.23
-19.08
-14.34
-9.67
-5.54
-2.15
0.50
2.56
4.21
5.65
7.06
8.58
10.26
12.05
13.82
15.45
16.81
17.88
18.66
19.21
19.55
19.73
19.74
19.56
19.10
18.29
17.07
15.43
13.47
11.39
9.37
7.52
5.92
4.58
3.46
2.56
1.81
1.16
0.41
-0.57
-1.87
-3.46
-5.26
-7.18
-9.25
-11.61
-14.46
-17.91
-21.90
-26.07
-29.88
-32.66
-33.86
-33.21
-30.80
-27.08
-22.69
-18.29
-14.29
-10.82
-7.77
-4.92
-2.08
0.85
3.83
6.82
9.72
12.44
14.84
16.81
18.21
19.01
19.26
19.11
18.73
18.29
17.90
17.61
17.38
17.16
16.84
16.38
15.78
15.11
14.40
13.64
12.72
11.55
10.12
8.55
7.11
6.03
5.38
4.99
4.54
3.71
2.34
0.46
-1.71
-3.93
-6.07
-8.04
-9.91
-11.78
-13.77
-16.03
-18.70
-21.84
-25.35
-28.88
-31.92
-33.90
-34.39
-33.32
-30.93
-27.71
-24.22
-20.90
-17.98
-15.51
-13.39
-11.50
-9.70
-7.92
-6.15
-4.48
-3.07
-2.08
-1.60
-1.64
-2.05
-2.70
-3.51
-4.53
-5.86
-7.57
-9.65
-11.99
-14.46
-17.06
-19.93
-23.30
-27.39
-32.31
-38.00
-44.32
-51.03
-57.81
-64.26
-69.86
-74.06
-76.46
-77.03
-76.14
-74.47
-72.67
-70.93
-68.78
-65.04
-58.32
-47.54
-32.34
-13.33
8.19
30.55
52.10
71.47
87.70
100.33
109.55
116.27
122.11
129.00
138.54
151.33
166.48
181.82
194.50
201.85
202.13
194.90
180.90
161.70
139.24
115.51
92.14
70.34
50.79
33.72
19.00
6.43
-4.27
-13.32
-20.97
-27.54
-33.36
-38.66
-43.50
-47.83
-51.51
-54.56
-57.11
-59.36
-61.42
-63.11
-64.15
-64.13
-62.88
-60.48
-57.27
-53.68
-50.04
-46.44
-42.77
-38.88
-34.71
-30.37
-26.15
-22.40
-19.43
-17.43
-16.50
-16.65
-17.92
-20.32
-23.71
-27.73
-31.72
-34.88
-36.47
-36.10
-33.86
-30.25
-25.97
-21.61
-17.61
-14.01
-10.71
-7.49
-4.19
-0.70
2.95
6.63
10.16
13.32
15.95
17.98
19.40
20.34
20.89
21.23
21.51
21.84
22.24
22.59
22.63
22.06
20.66
18.39
15.47
12.28
9.22
6.59
4.53
2.95
1.65
0.45
-0.82
-2.22
-3.77
-5.45
-7.23
-9.06
-10.81
-12.33
-13.47
-14.23
-14.73
-15.26
-16.15
-17.62
-19.73
-22.33
-25.22
-28.15
-30.92
-33.33
-35.16
-36.15
-36.05
-34.67
-31.99
-28.17
-23.56
-18.70
-14.09
-10.13
-6.90
-4.19
-1.58
1.29
4.50
7.81
10.77
13.00
14.32
14.86
14.86
14.52
13.86
12.79
11.27
9.38
7.36
5.43
3.72
2.18
0.72
-0.72
-2.03
-3.01
-3.44
-3.19
-2.28
-0.85
0.90
2.76
4.57
6.17
7.52
8.61
9.44
10.02
10.37
10.43
10.17
9.55
8.56
7.26
5.77
4.28
2.99
1.99
1.25
0.57
-0.35
-1.68
-3.37
-5.08
-6.37
-6.82
-6.27
-4.84
-2.85
-0.63
1.51
3.36
4.80
5.81
6.42
6.76
7.08
7.65
8.72
10.31
12.25
14.24
15.92
17.00
17.38
17.01
16.00
14.45
12.54
10.51
8.61
7.05
5.96
5.29
4.90
4.62
4.28
3.78
3.14
2.37
1.49
0.55
-0.33
-1.02
-1.39
-1.33
-0.85
-0.13
0.58
0.97
0.83
0.15
-0.92
-2.15
-3.31
-4.31
-5.17
-6.02
-6.98
-8.17
-9.69
-11.63
-14.04
-16.92
-20.11
-23.24
-25.84
-27.36
-27.38
-25.79
-22.79
-18.86
-14.64
-10.69
-7.34
-4.66
-2.45
-0.43
1.60
3.71
5.82
7.81
9.63
11.30
12.90
14.48
16.00
17.36
18.40
19.02
19.22
19.05
18.64
18.08
17.40
16.60
15.64
14.57
13.41
12.20
10.99
9.74
8.46
7.17
5.97
4.91
4.08
3.42
2.89
2.42
2.08
1.95
2.11
2.50
2.89
2.99
2.49
1.30
-0.49
-2.65
-4.89
-7.01
-8.90
-10.62
-12.29
-14.09
-16.23
-18.88
-22.08
-25.64
-29.14
-31.97
-33.56
-33.56
-31.93
-28.99
-25.25
-21.30
-17.58
-14.36
-11.65
-9.35
-7.28
-5.28
-3.26
-1.21
0.80
2.74
4.55
6.15
7.49
8.45
9.02
9.22
9.22
9.24
9.44
9.83
10.31
10.68
10.80
10.69
10.47
10.26
10.07
9.83
9.42
8.85
8.22
7.69
7.28
6.82
6.12
4.96
3.36
1.57
-0.07
-1.23
-1.84
-2.03
-2.09
-2.28
-2.78
-3.61
-4.64
-5.73
-6.76
-7.70
-8.65
-9.80
-11.36
-13.46
-16.11
-19.16
-22.28
-25.10
-27.22
-28.25
-27.93
-26.25
-23.40
-19.81
-16.00
-12.43
-9.33
-6.65
-4.23
-1.86
0.50
2.77
4.76
6.39
7.70
8.85
10.02
11.29
12.55
13.62
14.33
14.62
14.54
14.30
14.03
13.83
13.71
13.67
13.72
13.86
14.07
14.26
14.35
14.26
14.01
13.69
13.43
13.29
13.25
13.17
12.87
12.19
11.05
9.47
7.56
5.52
3.49
1.56
-0.30
-2.19
-4.19
-6.25
-8.19
-9.76
-10.83
-11.39
-11.74
-12.29
-13.43
-15.43
-18.28
-21.72
-25.28
-28.38
-30.49
-31.19
-30.32
-28.01
-24.68
-20.88
-17.17
-13.94
-11.31
-9.09
-6.98
-4.66
-1.98
0.97
3.98
6.78
9.17
11.08
12.55
13.69
14.59
15.37
16.11
16.88
17.72
18.61
19.45
20.14
20.63
20.87
20.85
20.54
19.88
18.83
17.47
15.91
14.34
12.83
11.39
9.86
8.11
6.06
3.77
1.43
-0.76
-2.70
-4.37
-5.89
-7.37
-8.89
-10.44
-11.97
-13.42
-14.84
-16.33
-18.04
-20.00
-21.96
-23.45
-23.95
-23.07
-20.79
-17.51
-13.79
-10.15
-6.86
-3.90
-1.12
1.58
4.16
6.46
8.33
9.74
10.74
11.47
12.08
12.67
13.30
14.00
14.76
15.55
16.28
16.89
17.37
17.75
18.12
18.52
18.92
19.21
19.21
18.81
17.93
16.60
14.95
13.13
11.33
9.65
8.15
6.72
5.22
3.49
1.46
-0.88
-3.35
-5.78
-8.03
-10.06
-11.96
-13.82
-15.67
-17.50
-19.30
-21.15
-23.25
-25.80
-28.81
-31.92
-34.44
-35.62
-34.96
-32.44
-28.59
-24.13
-19.79
-15.93
-12.62
-9.65
-6.79
-3.87
-0.87
2.12
4.98
7.61
9.90
11.80
13.24
14.22
14.78
15.05
15.26
15.65
16.43
17.69
19.29
20.90
22.12
22.61
22.22
21.03
19.33
17.41
15.47
13.58
11.64
9.56
7.34
5.13
3.21
1.84
1.20
1.22
1.59
1.89
1.71
0.79
-0.92
-3.29
-6.09
-9.10
-12.22
-15.51
-19.03
-22.87
-26.96
-31.06
-34.83
-37.90
-39.93
-40.64
-39.81
-37.32
-33.20
-27.67
-21.19
-14.34
-7.72
-1.79
3.27
7.52
11.23
14.65
17.91
20.94
23.49
25.38
26.55
27.17
27.56
28.05
28.77
29.63
30.33
30.56
30.16
29.21
27.91
26.49
24.97
23.27
21.25
18.88
16.29
13.76
11.58
9.96
8.87
8.17
7.62
7.01
6.27
5.49
4.82
4.42
4.33
4.42
4.34
3.78
2.51
0.59
-1.79
-4.34
-6.87
-9.32
-11.76
-14.28
-16.97
-19.94
-23.35
-27.25
-31.55
-35.84
-39.42
-41.45
-41.30
-38.78
-34.21
-28.27
-21.75
-15.29
-9.29
-3.94
0.74
4.77
8.25
11.26
13.94
16.36
18.52
20.31
21.54
22.07
21.83
20.93
19.61
18.12
16.70
15.53
14.70
14.30
14.35
14.84
15.63
16.52
17.24
17.55
17.34
16.60
15.45
14.07
12.62
11.26
10.01
8.83
7.55
5.94
3.85
1.27
-1.64
-4.67
-7.59
-10.26
-12.70
-14.95
-17.09
-19.21
-21.42
-23.79
-26.35
-28.92
-31.06
-32.14
-31.58
-29.08
-24.77
-19.23
-13.21
-7.43
-2.33
1.97
5.61
8.89
12.14
15.61
19.42
23.50
27.62
31.41
34.54
36.72
37.93
38.26
37.90
37.08
36.01
34.83
33.64
32.53
31.43
30.27
28.94
27.38
25.62
23.75
21.90
20.13
18.52
17.06
15.80
14.76
13.94
13.28
12.65
11.84
10.69
9.07
7.02
4.67
2.23
-0.13
-2.29
-4.26
-6.11
-7.94
-9.80
-11.70
-13.62
-15.57
-17.58
-19.72
-22.00
-24.37
-26.80
-29.34
-32.09
-35.28
-38.99
-43.08
-47.08
-50.21
-51.65
-50.81
-47.56
-42.33
-35.84
-28.91
-22.16
-15.91
-10.23
-5.04
-0.29
4.06
8.04
11.69
15.07
18.22
21.09
23.58
25.60
27.10
28.16
28.88
29.42
29.85
30.18
30.37
30.40
30.27
30.02
29.64
29.17
28.57
27.79
26.82
25.69
24.50
23.36
22.39
21.61
20.96
20.29
19.44
18.34
16.95
15.35
13.65
11.95
10.32
8.84
7.54
6.39
5.35
4.35
3.36
2.37
1.43
0.46
-0.71
-2.35
-4.68
-7.75
-11.35
-15.02
-18.32
-20.96
-22.93
-24.46
-25.93
-27.68
-29.92
-32.70
-35.86
-39.05
-41.73
-43.25
-43.00
-40.68
-36.40
-30.74
-24.59
-18.79
-13.92
-10.12
-7.14
-4.53
-1.90
0.96
4.04
7.14
10.09
12.76
15.10
17.07
18.65
19.75
20.33
20.39
20.12
19.78
19.66
19.96
20.68
21.64
22.55
23.09
23.10
22.64
21.90
21.19
20.71
20.46
20.25
19.82
18.93
17.58
15.96
14.39
13.10
12.17
11.53
10.99
10.33
9.40
8.11
6.44
4.44
2.16
-0.24
-2.69
-5.11
-7.52
-9.98
-12.54
-15.20
-17.85
-20.36
-22.57
-24.46
-26.13
-27.81
-29.79
-32.23
-35.06
-37.94
-40.30
-41.52
-41.07
-38.80
-34.87
-29.76
-24.04
-18.27
-12.82
-7.88
-3.46
0.45
3.95
7.11
10.04
12.81
15.43
17.82
19.86
21.36
22.21
22.42
22.09
21.41
20.57
19.76
19.15
18.87
19.02
19.59
20.47
21.42
22.13
22.36
22.04
21.23
20.15
18.98
17.83
16.73
15.57
14.27
12.80
11.14
9.32
7.35
5.22
2.97
0.76
-1.22
-2.78
-3.85
-4.56
-5.23
-6.21
-7.68
-9.60
-11.68
-13.59
-15.10
-16.30
-17.48
-18.99
-21.10
-23.87
-27.11
-30.47
-33.54
-35.89
-37.16
-37.04
-35.33
-32.06
-27.45
-22.00
-16.33
-11.07
-6.70
-3.37
-0.94
0.97
2.79
4.84
7.14
9.52
11.69
13.39
14.54
15.24
15.65
15.89
15.99
15.89
15.57
15.11
14.67
14.40
14.35
14.42
14.36
13.99
13.20
12.02
10.60
9.19
7.99
7.14
6.58
6.12
5.49
4.45
2.92
1.03
-0.97
-2.85
-4.49
-5.92
-7.31
-8.78
-10.34
-11.95
-13.53
-15.04
-16.49
-17.88
-19.17
-20.37
-21.53
-22.86
-24.57
-26.80
-29.39
-31.89
-33.64
-34.02
-32.66
-29.61
-25.27
-20.22
-15.04
-10.17
-5.86
-2.24
0.70
3.06
4.99
6.71
8.34
9.93
11.36
12.48
13.20
13.54
13.67
13.79
14.01
14.34
14.63
14.74
14.63
14.39
14.17
14.09
14.12
14.06
13.64
12.67
11.20
9.43
7.65
6.11
4.85
3.79
2.82
1.90
1.13
0.65
0.52
0.65
0.77
0.65
0.11
-0.85
-2.12
-3.54
-5.05
-6.68
-8.55
-10.77
-13.37
-16.35
-19.63
-23.11
-26.70
-30.17
-33.16
-35.26
-36.01
-35.16
-32.70
-28.93
-24.39
-19.67
-15.24
-11.37
-8.04
-5.10
-2.29
0.55
3.44
6.25
8.76
10.71
11.98
12.60
12.73
12.63
12.57
12.76
13.32
14.26
15.45
16.68
17.73
18.40
18.62
18.37
17.69
16.63
15.21
13.49
11.60
9.71
8.03
6.73
5.79
5.12
4.54
3.95
3.35
2.79
2.32
1.87
1.31
0.46
-0.80
-2.44
-4.35
-6.35
-8.36
-10.33
-12.34
-14.48
-16.85
-19.51
-22.49
-25.72
-29.04
-32.06
-34.29
-35.19
-34.39
-31.81
-27.78
-22.91
-17.91
-13.33
-9.49
-6.39
-3.83
-1.52
0.76
3.12
5.53
7.86
9.94
11.67
12.98
13.94
14.58
14.99
15.22
15.37
15.59
16.10
17.01
18.28
19.73
21.03
21.90
22.15
21.77
20.86
19.56
18.05
16.47
14.97
13.64
12.52
11.51
10.45
9.20
7.67
5.87
3.86
1.69
-0.64
-3.18
-5.90
-8.72
-11.45
-13.87
-15.83
-17.37
-18.72
-20.22
-22.19
-24.81
-27.95
-31.25
-34.13
-36.03
-36.45
-35.15
-32.12
-27.68
-22.33
-16.70
-11.36
-6.72
-2.91
0.15
2.67
4.84
6.78
8.55
10.17
11.70
13.22
14.71
16.07
17.13
17.72
17.78
17.50
17.20
17.20
17.68
18.58
19.65
20.50
20.80
20.39
19.33
17.89
16.46
15.36
14.71
14.40
14.15
13.60
12.49
10.75
8.52
6.06
3.59
1.24
-1.02
-3.28
-5.65
-8.13
-10.68
-13.16
-15.48
-17.60
-19.61
-21.65
-23.83
-26.27
-29.03
-32.13
-35.46
-38.72
-41.35
-42.63
-41.94
-39.03
-34.27
-28.42
-22.43
-17.06
-12.61
-8.97
-5.87
-3.11
-0.67
1.42
3.22
4.94
6.85
9.02
11.23
13.07
14.21
14.65
14.73
15.02
15.93
17.55
19.64
21.76
23.50
24.65
25.16
25.12
24.60
23.69
22.48
21.09
19.69
18.36
17.13
15.92
14.62
13.16
11.57
9.94
8.36
6.84
5.30
3.58
1.50
-1.03
-3.96
-7.09
-10.18
-12.98
-15.40
-17.49
-19.53
-21.84
-24.74
-28.25
-32.02
-35.30
-37.23
-37.10
-34.67
-30.25
-24.55
-18.46
-12.73
-7.87
-4.03
-1.20
0.81
2.29
3.57
5.00
6.81
9.02
11.43
13.69
15.48
16.64
17.20
17.35
17.34
17.39
17.63
18.16
18.93
19.86
20.70
21.17
20.97
20.00
18.34
16.27
14.19
12.39
11.00
9.98
9.10
8.17
7.05
5.76
4.37
2.98
1.70
0.58
-0.47
-1.56
-2.89
-4.60
-6.72
-9.12
-11.63
-14.06
-16.34
-18.53
-20.79
-23.30
-26.18
-29.38
-32.69
-35.74
-37.99
-38.92
-38.14
-35.52
-31.32
-26.09
-20.50
-15.18
-10.53
-6.67
-3.48
-0.73
1.85
4.46
7.18
9.93
12.51
14.71
16.42
17.68
18.66
19.53
20.39
21.14
21.59
21.56
21.05
20.18
19.18
18.27
17.53
16.89
16.19
15.26
14.02
12.53
10.89
9.22
7.60
6.03
4.44
2.78
0.97
-1.01
-3.08
-5.13
-7.00
-8.60
-9.93
-11.11
-12.36
-13.89
-15.90
-18.39
-21.24
-24.18
-26.80
-28.63
-29.25
-28.37
-25.98
-22.32
-17.85
-13.09
-8.42
-4.10
-0.22
3.18
6.07
8.41
10.19
11.53
12.59
13.55
14.50
15.39
16.11
16.52
16.60
16.43
16.25
16.23
16.47
16.94
17.41
17.63
17.37
16.51
15.08
13.23
11.21
9.21
7.34
5.55
3.69
1.53
-1.01
-3.84
-6.73
-9.33
-11.43
-13.02
-14.29
-15.56
-17.12
-19.19
-21.80
-24.87
-28.07
-30.91
-32.74
-32.97
-31.25
-27.69
-22.83
-17.50
-12.47
-8.20
-4.77
-1.99
0.41
2.66
4.86
7.01
9.12
11.12
12.92
14.41
15.55
16.31
16.76
16.99
17.04
16.93
16.66
16.34
16.17
16.35
16.98
17.90
18.78
19.23
19.03
18.23
17.07
15.88
14.85
13.93
12.91
11.61
9.91
7.87
5.61
3.22
0.66
-2.13
-5.16
-8.30
-11.25
-13.77
-15.72
-17.29
-18.89
-21.03
-23.99
-27.68
-31.62
-35.09
-37.33
-37.86
-36.52
-33.48
-29.13
-23.96
-18.50
-13.20
-8.45
-4.47
-1.23
1.51
4.09
6.85
9.90
13.12
16.21
18.89
20.96
22.44
23.41
24.04
24.45
24.74
24.97
25.13
25.23
25.22
25.05
24.70
24.10
23.26
22.17
20.85
19.34
17.72
16.07
14.48
12.94
11.39
9.77
7.99
6.11
4.18
2.27
0.39
-1.51
-3.48
-5.53
-7.57
-9.47
-11.12
-12.52
-13.83
-15.31
-17.23
-19.72
-22.77
-26.20
-29.69
-32.87
-35.35
-36.72
-36.67
-35.07
-31.99
-27.76
-22.81
-17.65
-12.70
-8.26
-4.39
-1.01
2.05
4.97
7.80
10.42
12.64
14.24
15.22
15.76
16.18
16.75
17.52
18.36
19.02
19.38
19.49
19.55
19.70
19.89
19.85
19.23
17.84
15.72
13.17
10.61
8.36
6.58
5.15
3.78
2.11
-0.10
-2.86
-5.92
-8.82
-11.13
-12.58
-13.32
-13.80
-14.67
-16.46
-19.38
-23.23
-27.46
-31.32
-34.13
-35.38
-34.82
-32.48
-28.70
-23.99
-18.93
-14.02
-9.61
-5.73
-2.22
1.16
4.55
7.90
11.02
13.64
15.66
17.15
18.34
19.45
20.59
21.68
22.52
22.95
22.95
22.70
22.41
22.23
22.16
22.01
21.56
20.72
19.50
18.06
16.60
15.26
14.09
12.99
11.80
10.41
8.71
6.66
4.27
1.58
-1.36
-4.47
-7.67
-10.93
-14.23
-17.57
-21.04
-24.71
-28.69
-33.01
-37.58
-42.05
-45.92
-48.54
-49.41
-48.21
-45.03
-40.24
-34.40
-28.07
-21.67
-15.48
-9.66
-4.29
0.64
5.19
9.44
13.50
17.32
20.79
23.71
25.95
27.48
28.42
29.00
29.49
30.07
30.84
31.72
32.62
33.34
33.79
33.89
33.67
33.20
32.54
31.72
30.71
29.54
28.27
27.05
25.94
24.97
23.99
22.83
21.34
19.53
17.62
15.85
14.51
13.62
13.09
12.67
12.12
11.24
9.83
7.82
5.23
2.22
-0.91
-3.84
-6.36
-8.49
-10.45
-12.53
-14.90
-17.48
-19.99
-22.06
-23.54
-24.50
-25.27
-26.31
-27.97
-30.40
-33.61
-37.36
-41.32
-45.00
-47.77
-48.94
-47.95
-44.58
-39.10
-32.26
-25.04
-18.32
-12.54
-7.68
-3.34
0.93
5.32
9.74
13.84
17.21
19.60
20.99
21.56
21.62
21.42
21.18
20.91
20.62
20.29
20.00
19.88
20.06
20.53
21.19
21.77
21.96
21.59
20.69
19.46
18.19
17.11
16.32
15.74
15.15
14.37
13.26
11.84
10.23
8.59
7.01
5.45
3.78
1.90
-0.19
-2.42
-4.62
-6.72
-8.72
-10.72
-12.78
-14.97
-17.34
-19.98
-23.01
-26.48
-30.21
-33.69
-36.15
-36.88
-35.48
-32.05
-27.21
-21.74
-16.37
-11.47
-7.14
-3.20
0.54
4.19
7.72
11.04
14.05
16.70
18.98
20.97
22.72
24.22
25.41
26.20
26.55
26.52
26.23
25.91
25.63
25.38
24.99
24.26
23.03
21.31
19.22
16.93
14.63
12.52
10.80
9.65
9.20
9.40
10.06
10.83
11.35
11.39
10.91
10.03
8.91
7.69
6.36
4.86
3.15
1.23
-0.85
-3.06
-5.35
-7.70
-10.07
-12.37
-14.53
-16.50
-18.39
-20.35
-22.61
-25.33
-28.55
-32.09
-35.61
-38.61
-40.54
-40.94
-39.56
-36.52
-32.25
-27.41
-22.64
-18.31
-14.47
-10.93
-7.41
-3.77
-0.07
3.52
6.81
9.75
12.39
14.81
17.03
18.96
20.47
21.52
22.14
22.49
22.73
22.94
23.13
23.24
23.20
22.93
22.40
21.58
20.50
19.24
17.97
16.84
15.97
15.34
14.78
14.09
13.16
11.97
10.64
9.30
7.99
6.67
5.25
3.71
2.11
0.54
-0.94
-2.36
-3.83
-5.48
-7.36
-9.50
-11.83
-14.27
-16.76
-19.20
-21.44
-23.36
-24.92
-26.26
-27.64
-29.43
-31.78
-34.53
-37.12
-38.80
-38.94
-37.31
-34.15
-30.07
-25.76
-21.73
-18.18
-15.04
-12.13
-9.31
-6.62
-4.18
-2.06
-0.25
1.41
3.13
5.09
7.32
9.73
12.15
14.40
16.43
18.23
19.86
21.31
22.42
23.00
22.82
21.87
20.28
18.39
16.50
14.82
13.37
11.98
10.47
8.70
6.71
4.66
2.73
1.07
-0.28
-1.35
-2.19
-2.80
-3.12
-3.05
-2.57
-1.75
-0.83
-0.15
-0.04
-0.74
-2.27
-4.43
-6.90
-9.31
-11.34
-12.69
-13.14
-12.46
-10.56
-7.51
-3.65
0.45
4.23
7.30
9.68
11.67
13.62
15.74
17.83
19.43
20.07
19.58
18.23
16.53
14.97
13.81
12.92
12.04
11.00
9.84
8.80
8.09
7.76
7.64
7.47
7.07
6.44
5.71
5.06
4.59
4.23
3.85
3.29
2.46
1.34
-0.01
-1.48
-2.94
-4.32
-5.60
-6.88
-8.28
-9.87
-11.66
-13.49
-15.21
-16.70
-17.89
-18.85
-19.65
-20.38
-21.07
-21.76
-22.54
-23.57
-24.98
-26.81
-28.88
-30.76
-31.90
-31.82
-30.32
-27.57
-24.03
-20.26
-16.67
-13.47
-10.60
-7.95
-5.42
-3.06
-0.90
1.04
2.88
4.76
6.79
8.91
10.89
12.43
13.36
13.80
14.10
14.66
15.76
17.39
19.24
20.87
21.97
22.41
22.26
21.72
20.94
20.01
18.92
17.68
16.29
14.82
13.30
11.73
10.09
8.34
6.50
4.68
3.00
1.56
0.46
-0.39
-1.11
-1.87
-2.81
-3.91
-5.09
-6.14
-6.84
-7.10
-6.98
-6.73
-6.65
-6.99
-7.76
-8.87
-10.18
-11.65
-13.36
-15.45
-17.82
-20.09
-21.70
-22.09
-21.05
-18.85
-16.11
-13.56
-11.68
-10.55
-9.90
-9.33
-8.46
-7.11
-5.24
-3.02
-0.67
1.58
3.63
5.44
7.10
8.67
10.14
11.38
12.26
12.70
12.79
12.73
12.72
12.85
13.03
13.10
12.93
12.55
12.09
11.66
11.28
10.84
10.16
9.17
7.89
6.41
4.81
3.10
1.24
-0.76
-2.81
-4.77
-6.50
-8.01
-9.43
-10.91
-12.49
-14.08
-15.51
-16.62
-17.45
-18.26
-19.36
-20.99
-23.11
-25.35
-27.10
-27.76
-26.99
-24.83
-21.68
-18.11
-14.64
-11.57
-8.91
-6.48
-4.06
-1.51
1.15
3.82
6.33
8.47
10.10
11.07
11.35
11.02
10.28
9.43
8.75
8.44
8.58
9.09
9.79
10.43
10.79
10.79
10.40
9.73
8.90
8.05
7.28
6.56
5.90
5.20
4.42
3.55
2.62
1.74
0.93
0.27
-0.26
-0.73
-1.21
-1.72
-2.26
-2.82
-3.39
-4.03
-4.87
-6.02
-7.55
-9.46
-11.68
-14.18
-16.90
-19.80
-22.75
-25.48
-27.58
-28.55
-28.09
-26.11
-22.91
-19.05
-15.19
-11.85
-9.22
-7.23
-5.63
-4.16
-2.64
-1.06
0.59
2.31
4.14
6.14
8.31
10.49
12.51
14.19
15.51
16.51
17.32
17.98
18.43
18.57
18.26
17.52
16.47
15.33
14.27
13.39
12.68
12.01
11.30
10.53
9.71
8.92
8.19
7.52
6.84
6.15
5.43
4.72
4.07
3.46
2.82
2.07
1.12
-0.06
-1.50
-3.19
-5.12
-7.22
-9.38
-11.44
-13.28
-14.81
-16.06
-17.21
-18.47
-20.09
-22.16
-24.60
-27.11
-29.19
-30.32
-30.07
-28.27
-25.08
-20.98
-16.61
-12.60
-9.31
-6.84
-5.01
-3.41
-1.68
0.38
2.76
5.20
7.37
8.95
9.89
10.34
10.62
11.05
11.81
12.87
14.07
15.22
16.24
17.08
17.70
18.03
17.90
17.17
15.85
14.15
12.40
10.92
9.85
9.14
8.61
7.98
7.13
6.02
4.73
3.40
2.22
1.29
0.67
0.34
0.17
-0.03
-0.44
-1.22
-2.42
-3.98
-5.75
-7.58
-9.33
-10.98
-12.56
-14.20
-16.01
-18.02
-20.19
-22.41
-24.62
-26.92
-29.50
-32.61
-36.33
-40.47
-44.49
-47.73
-49.64
-50.05
-49.32
-48.15
-47.24
-47.06
-47.60
-48.43
-49.02
-49.04
-48.56
-48.13
-48.48
-50.23
-53.54
-57.98
-62.59
-66.15
-67.42
-65.21
-58.47
-46.43
-28.95
-6.75
18.40
44.07
67.74
87.66
103.10
114.18
121.29
124.45
123.32
117.54
107.34
94.01
79.52
65.92
54.51
45.54
38.42
32.38
27.04
22.58
19.37
17.62
17.02
16.77
15.99
14.10
11.06
7.26
3.32
-0.07
-2.43
-3.48
-3.29
-2.26
-1.14
-0.79
-1.86
-4.56
-8.57
-13.23
-17.92
-22.27
-26.28
-30.15
-34.11
-38.23
-42.50
-46.82
-51.15
-55.62
-60.56
-66.34
-73.19
-80.88
-88.60
-95.24
-99.80
-101.93
-102.15
-101.70
-101.94
-103.80
-107.37
-111.99
-116.60
-120.21
-122.25
-122.59
-121.44
-119.05
-115.37
-109.78
-101.13
-88.13
-70.10
-47.60
-22.57
2.29
24.54
43.00
58.06
71.14
83.71
96.37
108.55
118.95
126.33
130.24
131.20
130.33
128.76
127.14
125.52
123.57
120.99
117.70
113.89
109.85
105.75
101.57
97.32
93.31
90.30
89.45
91.83
97.91
107.22
118.44
129.92
140.42
149.64
158.26
167.48
178.24
190.55
203.23
214.22
221.14
221.85
214.97
200.10
177.98
150.65
121.20
93.15
69.53
51.76
39.16
29.27
19.04
6.20
-9.84
-28.06
-46.68
-64.10
-79.51
-92.76
-103.80
-112.29
-117.68
-119.67
-118.60
-115.58
-112.01
-109.03
-107.06
-105.73
-104.24
-101.86
-98.24
-93.50
-88.12
-82.70
-77.81
-73.81
-70.70
-68.24
-65.98
-63.47
-60.50
-57.18
-53.89
-51.13
-49.22
-48.19
-47.81
-47.65
-47.34
-46.68
-45.75
-44.76
-44.04
-43.80
-44.13
-45.03
-46.37
-47.96
-49.62
-51.10
-52.08
-52.27
-51.47
-49.65
-47.03
-43.95
-40.69
-37.35
-33.76
-29.57
-24.42
-18.17
-11.04
-3.67
3.07
8.32
11.56
12.77
12.51
11.57
10.72
10.36
10.51
10.84
11.07
11.09
11.08
11.34
12.10
13.31
14.70
15.82
16.32
16.07
15.19
13.96
12.65
11.44
10.33
9.22
7.99
6.65
5.30
4.13
3.30
2.86
2.75
2.78
2.76
2.57
2.23
1.78
1.27
0.65
-0.17
-1.34
-2.91
-4.78
-6.77
-8.65
-10.34
-11.91
-13.54
-15.40
-17.42
-19.33
-20.62
-20.75
-19.38
-16.46
-12.35
-7.63
-2.93
1.31
4.94
8.16
11.36
14.96
19.21
24.09
29.46
35.14
41.12
47.58
54.78
62.83
71.59
80.55
89.08
96.57
102.65
107.21
110.35
112.15
112.59
111.55
108.95
104.80
99.27
92.60
84.97
76.46
67.03
56.67
45.52
33.87
22.11
10.61
-0.33
-10.47
-19.53
-27.26
-33.47
-38.12
-41.41
-43.69
-45.33
-46.64
-47.79
-48.85
-49.85
-50.83
-51.77
-52.68
-53.47
-54.08
-54.51
-54.93
-55.60
-56.76
-58.63
-61.19
-64.19
-67.13
-69.40
-70.40
-69.73
-67.28
-63.28
-58.24
-52.69
-47.13
-41.85
-36.95
-32.38
-28.06
-23.96
-20.05
-16.38
-12.97
-9.89
-7.16
-4.80
-2.83
-1.23
0.05
1.15
2.14
3.12
4.08
4.96
5.66
6.09
6.20
5.96
5.46
4.80
4.14
3.65
3.38
3.29
3.14
2.75
2.03
1.06
0.02
-0.90
-1.66
-2.33
-3.03
-3.85
-4.77
-5.75
-6.70
-7.66
-8.65
-9.70
-10.73
-11.60
-12.26
-12.81
-13.60
-15.01
-17.43
-20.89
-25.10
-29.41
-33.03
-35.23
-35.55
-33.93
-30.68
-26.36
-21.57
-16.81
-12.39
-8.40
-4.82
-1.55
1.47
4.26
6.84
9.22
11.51
13.74
15.88
17.68
18.85
19.14
18.58
17.57
16.74
16.68
17.59
19.23
20.96
22.16
22.46
21.90
20.84
19.67
18.74
18.13
17.79
17.55
17.20
16.54
15.35
13.59
11.36
8.89
6.43
4.17
2.14
0.25
-1.58
-3.38
-5.15
-6.95
-8.84
-10.92
-13.25
-15.85
-18.70
-21.81
-25.22
-28.85
-32.39
-35.21
-36.52
-35.73
-32.75
-28.07
-22.60
-17.29
-12.72
-9.05
-6.04
-3.38
-0.87
1.54
3.80
5.91
7.92
9.96
12.08
14.19
16.07
17.45
18.15
18.20
17.88
17.61
17.75
18.45
19.49
20.45
20.82
20.32
18.98
17.08
14.95
12.87
10.95
9.22
7.78
6.68
5.99
5.59
5.20
4.49
3.26
1.60
-0.21
-1.81
-3.08
-4.11
-5.23
-6.82
-9.16
-12.32
-16.17
-20.42
-24.59
-28.09
-30.27
-30.60
-28.81
-25.05
-19.84
-13.99
-8.34
-3.53
0.15
2.83
4.87
6.65
8.45
10.30
12.01
13.34
14.19
14.59
14.68
14.60
14.38
14.05
13.56
12.96
12.39
11.98
11.83
11.92
12.15
12.38
12.56
12.69
12.87
13.24
13.88
14.77
15.79
16.70
17.37
17.69
17.76
17.70
17.64
17.59
17.40
16.90
15.97
14.61
12.97
11.28
9.71
8.35
7.14
5.94
4.57
2.94
1.06
-0.94
-2.87
-4.62
-6.17
-7.69
-9.44
-11.71
-14.68
-18.33
-22.50
-26.81
-30.73
-33.61
-34.84
-33.95
-30.87
-25.96
-19.97
-13.81
-8.31
-3.89
-0.59
1.88
3.90
5.72
7.45
9.04
10.46
11.75
13.03
14.37
15.70
16.84
17.57
17.75
17.46
16.98
16.66
16.73
17.23
17.92
18.46
18.51
17.84
16.48
14.57
12.41
10.29
8.47
7.03
5.95
5.01
3.96
2.55
0.70
-1.52
-3.87
-6.13
-8.16
-9.99
-11.80
-13.80
-16.15
-18.87
-21.81
-24.67
-27.06
-28.55
-28.77
-27.41
-24.40
-19.91
-14.47
-8.71
-3.37
1.06
4.34
6.58
8.03
8.98
9.63
10.00
10.05
9.82
9.44
9.11
9.06
9.40
10.09
10.94
11.77
12.42
12.86
13.09
13.11
12.88
12.38
11.66
10.81
9.98
9.26
8.60
7.88
6.92
5.55
3.71
1.39
-1.30
-4.23
-7.14
-9.75
-11.85
-13.40
-14.58
-15.80
-17.55
-20.19
-23.74
-27.80
-31.60
-34.20
-34.80
-33.00
-29.00
-23.53
-17.64
-12.34
-8.28
-5.53
-3.72
-2.25
-0.62
1.39
3.69
6.04
8.16
9.92
11.39
12.74
14.16
15.80
17.67
19.68
21.63
23.28
24.45
25.02
25.03
24.52
23.59
22.25
20.62
18.82
17.02
15.32
13.69
11.96
9.92
7.43
4.53
1.43
-1.59
-4.30
-6.55
-8.34
-9.79
-11.11
-12.66
-14.82
-17.98
-22.24
-27.39
-32.73
-37.30
-40.09
-40.42
-38.11
-33.60
-27.74
-21.44
-15.51
-10.30
-5.85
-1.96
1.66
5.13
8.49
11.66
14.53
17.07
19.27
21.18
22.83
24.26
25.44
26.35
26.96
27.20
27.04
26.47
25.53
24.32
23.00
21.71
20.53
19.43
18.30
17.03
15.60
14.09
12.66
11.45
10.44
9.50
8.32
6.65
4.39
1.64
-1.35
-4.28
-6.95
-9.34
-11.58
-13.83
-16.27
-18.92
-21.74
-24.68
-27.76
-31.04
-34.58
-38.20
-41.43
-43.50
-43.67
-41.52
-37.16
-31.29
-24.85
-18.67
-13.18
-8.36
-3.91
0.42
4.67
8.69
12.19
15.00
17.14
18.75
20.08
21.34
22.59
23.82
24.91
25.77
26.34
26.62
26.73
26.79
26.87
26.95
26.84
26.28
25.10
23.32
21.23
19.25
17.76
16.86
16.39
15.93
15.15
13.89
12.25
10.46
8.72
7.05
5.35
3.47
1.34
-1.02
-3.46
-5.81
-7.96
-9.87
-11.58
-13.25
-15.07
-17.30
-20.17
-23.78
-28.13
-32.93
-37.65
-41.58
-43.95
-44.17
-41.98
-37.61
-31.66
-25.03
-18.61
-13.01
-8.46
-4.79
-1.58
1.61
5.00
8.54
11.90
14.70
16.69
17.90
18.60
19.16
19.84
20.73
21.73
22.70
23.46
23.97
24.20
24.13
23.72
22.95
21.81
20.35
18.69
16.93
15.25
13.70
12.34
11.13
9.98
8.82
7.62
6.34
5.00
3.54
1.88
-0.05
-2.30
-4.74
-7.24
-9.58
-11.62
-13.38
-15.00
-16.68
-18.62
-20.96
-23.81
-27.14
-30.79
-34.28
-36.97
-38.15
-37.24
-34.12
-29.16
-23.09
-16.81
-11.04
-6.17
-2.25
0.88
3.43
5.54
7.27
8.68
9.83
10.85
11.81
12.72
13.54
14.22
14.73
15.15
15.61
16.20
17.00
17.97
19.03
20.03
20.85
21.33
21.38
20.95
20.13
19.09
18.03
17.12
16.37
15.62
14.67
13.39
11.75
9.86
7.94
6.08
4.29
2.47
0.44
-1.95
-4.74
-7.85
-11.05
-14.06
-16.64
-18.71
-20.38
-21.96
-23.81
-26.30
-29.58
-33.52
-37.64
-41.18
-43.27
-43.20
-40.68
-35.94
-29.65
-22.71
-15.96
-9.91
-4.77
-0.42
3.36
6.80
10.07
13.20
16.20
18.98
21.47
23.52
25.01
25.87
26.13
25.93
25.44
24.89
24.39
24.02
23.73
23.42
22.97
22.30
21.40
20.29
19.06
17.79
16.59
15.49
14.47
13.42
12.20
10.68
8.84
6.76
4.60
2.52
0.67
-0.88
-2.14
-3.15
-4.03
-4.96
-6.15
-7.73
-9.70
-11.98
-14.36
-16.65
-18.83
-21.07
-23.61
-26.68
-30.25
-33.97
-37.21
-39.19
-39.27
-37.19
-33.16
-27.87
-22.22
-17.02
-12.73
-9.34
-6.45
-3.64
-0.62
2.61
5.80
8.67
11.06
12.94
14.33
15.28
15.74
15.67
15.11
14.25
13.37
12.74
12.46
12.42
12.36
11.98
11.07
9.57
7.55
5.16
2.63
0.21
-1.92
-3.61
-4.93
-6.06
-7.34
-9.03
-11.23
-13.73
-16.07
-17.75
-18.44
-18.11
-17.08
-15.93
-15.29
-15.72
-17.53
-20.79
-25.16
-29.97
-34.27
-37.07
-37.60
-35.62
-31.48
-26.00
-20.10
-14.49
-9.45
-4.91
-0.57
3.79
8.23
12.73
17.16
21.41
25.38
28.92
31.83
33.92
35.11
35.51
35.38
35.07
34.84
34.77
34.77
34.66
34.31
33.63
32.56
31.08
29.10
26.60
23.56
20.16
16.70
13.52
10.91
9.02
7.74
6.83
5.97
4.95
3.67
2.21
0.71
-0.72
-2.08
-3.47
-5.04
-6.94
-9.21
-11.85
-14.83
-18.09
-21.50
-24.78
-27.48
-29.06
-29.07
-27.33
-24.04
-19.79
-15.26
-11.10
-7.62
-4.81
-2.42
-0.12
2.37
5.16
8.19
11.24
14.02
16.22
17.63
18.22
18.16
17.78
17.41
17.26
17.36
17.59
17.79
17.89
17.85
17.64
17.21
16.43
15.23
13.63
11.78
9.96
8.34
6.98
5.79
4.58
3.24
1.77
0.31
-0.96
-1.95
-2.75
-3.48
-4.33
-5.40
-6.70
-8.20
-9.86
-11.70
-13.67
-15.72
-17.77
-19.82
-22.05
-24.72
-28.00
-31.75
-35.41
-38.05
-38.76
-37.04
-33.07
-27.61
-21.76
-16.48
-12.26
-9.09
-6.61
-4.30
-1.86
0.77
3.45
5.89
7.88
9.33
10.32
11.04
11.72
12.46
13.30
14.14
14.87
15.41
15.80
16.09
16.38
16.63
16.73
16.53
15.86
14.63
12.85
10.67
8.28
5.94
3.86
2.11
0.66
-0.61
-1.86
-3.21
-4.74
-6.41
-8.15
-9.84
-11.35
-12.65
-13.78
-14.94
-16.41
-18.50
-21.41
-25.01
-28.87
-32.30
-34.51
-34.92
-33.29
-29.77
-24.89
-19.31
-13.68
-8.51
-4.06
-0.32
2.87
5.73
8.45
11.13
13.73
16.17
18.37
20.27
21.86
23.19
24.27
25.13
25.78
26.20
26.36
26.23
25.81
25.14
24.33
23.47
22.62
21.71
20.62
19.24
17.59
15.77
13.97
12.33
10.89
9.62
8.40
7.12
5.70
4.11
2.33
0.39
-1.67
-3.78
-5.88
-7.99
-10.16
-12.49
-15.10
-18.06
-21.40
-25.07
-28.87
-32.47
-35.32
-36.87
-36.62
-34.44
-30.56
-25.56
-20.21
-15.19
-10.90
-7.42
-4.57
-2.03
0.49
3.20
6.14
9.21
12.19
14.85
17.03
18.67
19.83
20.64
21.21
21.61
21.85
21.91
21.85
21.74
21.64
21.57
21.36
20.79
19.66
17.94
15.74
13.35
11.05
9.06
7.41
5.95
4.47
2.78
0.81
-1.32
-3.46
-5.42
-7.13
-8.65
-10.14
-11.80
-13.72
-15.93
-18.40
-21.13
-24.04
-26.96
-29.53
-31.22
-31.48
-29.96
-26.74
-22.30
-17.38
-12.68
-8.63
-5.28
-2.43
0.19
2.75
5.26
7.66
9.80
11.61
13.08
14.23
15.12
15.80
16.33
16.73
17.08
17.41
17.83
18.37
19.02
19.69
20.13
20.10
19.47
18.24
16.57
14.71
12.88
11.19
9.61
8.03
6.35
4.49
2.44
0.21
-2.19
-4.72
-7.35
-10.02
-12.71
-15.39
-18.13
-20.99
-24.03
-27.19
-30.24
-32.78
-34.31
-34.40
-32.85
-29.72
-25.29
-19.97
-14.17
-8.30
-2.76
2.04
5.72
8.11
9.28
9.55
9.40
9.20
9.24
9.58
10.25
11.26
12.58
14.14
15.73
17.09
18.04
18.51
18.61
18.46
18.03
17.22
15.89
14.04
11.92
9.95
8.48
7.67
7.36
7.27
7.14
6.91
6.68
6.59
6.62
6.53
6.02
4.82
2.91
0.46
-2.24
-4.97
-7.62
-10.27
-13.03
-16.01
-19.20
-22.55
-25.91
-29.09
-31.74
-33.39
-33.54
-31.84
-28.30
-23.45
-18.11
-13.17
-9.23
-6.43
-4.44
-2.76
-0.93
1.29
3.82
6.45
8.97
11.25
13.23
14.90
16.26
17.28
18.03
18.58
19.04
19.50
19.97
20.41
20.75
20.87
20.71
20.18
19.27
17.99
16.46
14.86
13.39
12.18
11.28
10.63
10.14
9.73
9.40
9.16
8.99
8.77
8.28
7.29
5.66
3.48
0.96
-1.52
-3.62
-5.17
-6.20
-7.00
-7.93
-9.34
-11.34
-13.74
-16.14
-18.10
-19.40
-20.13
-20.66
-21.50
-23.03
-25.31
-28.14
-31.05
-33.45
-34.78
-34.55
-32.64
-29.18
-24.69
-19.86
-15.36
-11.63
-8.74
-6.44
-4.29
-1.93
0.90
4.17
7.67
11.11
14.18
16.72
18.64
19.97
20.74
21.01
20.83
20.37
19.83
19.48
19.52
19.94
20.54
20.98
20.95
20.31
19.16
17.72
16.26
14.93
13.81
12.83
11.88
10.86
9.66
8.26
6.66
4.94
3.19
1.50
-0.09
-1.53
-2.80
-3.91
-4.85
-5.68
-6.52
-7.50
-8.72
-10.16
-11.68
-13.03
-14.06
-14.73
-15.16
-15.60
-16.30
-17.42
-19.02
-21.08
-23.46
-25.94
-28.08
-29.29
-29.01
-26.87
-22.99
-18.01
-12.93
-8.67
-5.74
-4.08
-3.21
-2.54
-1.63
-0.39
1.05
2.50
3.84
5.09
6.32
7.56
8.79
9.92
10.85
11.57
12.12
12.61
13.16
13.83
14.59
15.31
15.75
15.74
15.21
14.22
13.00
11.77
10.63
9.59
8.55
7.41
6.18
4.92
3.72
2.60
1.46
0.20
-1.26
-2.92
-4.69
-6.47
-8.19
-9.83
-11.37
-12.78
-14.01
-15.02
-15.86
-16.69
-17.75
-19.23
-21.12
-23.17
-24.92
-25.85
-25.59
-24.01
-21.27
-17.71
-13.78
-9.87
-6.33
-3.34
-0.95
0.99
2.76
4.66
6.79
9.04
11.05
12.43
12.97
12.73
12.00
11.18
10.55
10.24
10.19
10.36
10.73
11.29
12.01
12.70
13.05
12.76
11.71
10.05
8.16
6.50
5.36
4.71
4.25
3.60
2.50
0.95
-0.80
-2.42
-3.71
-4.64
-5.38
-6.13
-7.02
-8.03
-9.00
-9.75
-10.21
-10.47
-10.80
-11.56
-13.03
-15.35
-18.44
-22.02
-25.66
-28.82
-30.94
-31.52
-30.28
-27.30
-23.02
-18.13
-13.38
-9.29
-6.02
-3.44
-1.26
0.83
2.97
5.22
7.48
9.65
11.55
13.03
13.94
14.23
13.99
13.43
12.84
12.49
12.54
12.97
13.63
14.24
14.52
14.28
13.47
12.26
10.97
9.92
9.33
9.23
9.42
9.61
9.56
9.13
8.32
7.24
6.03
4.78
3.50
2.23
0.95
-0.30
-1.56
-2.86
-4.28
-5.89
-7.68
-9.51
-11.22
-12.62
-13.71
-14.64
-15.71
-17.22
-19.34
-22.02
-24.98
-27.74
-29.81
-30.72
-30.23
-28.28
-25.08
-21.04
-16.66
-12.47
-8.92
-6.23
-4.34
-2.94
-1.55
0.24
2.65
5.60
8.74
11.61
13.79
15.13
15.72
15.90
16.02
16.39
17.12
18.11
19.16
20.01
20.46
20.41
19.81
18.74
17.29
15.62
13.85
12.12
10.52
9.10
7.91
6.92
6.13
5.48
4.89
4.32
3.76
3.22
2.73
2.35
2.01
1.59
0.96
0.00
-1.29
-2.83
-4.48
-6.10
-7.66
-9.17
-10.71
-12.35
-14.17
-16.21
-18.57
-21.32
-24.45
-27.78
-30.89
-33.17
-34.00
-33.03
-30.28
-26.22
-21.57
-16.99
-12.93
-9.45
-6.38
-3.49
-0.69
1.94
4.20
5.95
7.21
8.16
9.01
9.90
10.82
11.65
12.28
12.75
13.18
13.76
14.61
15.67
16.76
17.65
18.21
18.42
18.34
18.05
17.62
17.06
16.43
15.79
15.19
14.56
13.74
12.62
11.15
9.51
7.94
6.69
5.80
5.03
4.03
2.51
0.39
-2.17
-4.82
-7.26
-9.34
-11.11
-12.75
-14.49
-16.50
-18.83
-21.35
-23.80
-25.79
-26.90
-26.84
-25.47
-22.91
-19.51
-15.79
-12.22
-9.14
-6.68
-4.71
-2.95
-1.13
0.93
3.19
5.48
7.59
9.37
10.81
11.97
12.98
13.92
14.77
15.46
15.88
15.99
15.76
15.30
14.69
14.01
13.25
12.35
11.21
9.80
8.21
6.69
5.49
4.79
4.57
4.57
4.43
3.81
2.58
0.90
-0.97
-2.71
-4.18
-5.49
-6.92
-8.86
-11.51
-14.86
-18.55
-21.97
-24.47
-25.49
-24.82
-22.54
-19.05
-14.89
-10.65
-6.75
-3.42
-0.73
1.44
3.26
4.90
6.49
8.06
9.58
10.97
12.12
12.98
13.54
13.82
13.88
13.76
13.50
13.15
12.72
12.16
11.44
10.51
9.34
8.01
6.60
5.19
3.86
2.56
1.24
-0.19
-1.75
-3.38
-5.01
-6.52
-7.88
-9.08
-10.26
-11.58
-13.32
-15.66
-18.63
-22.01
-25.31
-27.84
-29.00
-28.38
-26.00
-22.27
-17.88
-13.53
-9.69
-6.53
-3.89
-1.50
0.81
3.00
4.80
5.93
6.22
5.79
5.07
4.55
4.59
5.27
6.31
7.35
8.08
8.39
8.36
8.12
7.72
7.11
6.19
4.90
3.34
1.70
0.11
-1.39
-2.86
-4.40
-6.02
-7.62
-9.01
-10.06
-10.84
-11.56
-12.55
-14.09
-16.32
-19.11
-22.13
-24.92
-26.96
-27.75
-27.00
-24.63
-20.90
-16.32
-11.54
-7.13
-3.34
-0.16
2.73
5.70
9.01
12.60
16.18
19.28
21.49
22.62
22.76
22.27
21.62
21.16
21.05
21.25
21.58
21.90
22.12
22.30
22.44
22.50
22.34
21.86
21.01
19.93
18.77
17.68
16.69
15.75
14.78
13.77
12.79
11.93
11.24
10.65
10.00
9.16
8.08
6.88
5.74
4.85
4.21
3.70
3.05
2.05
0.64
-1.07
-2.83
-4.47
-5.92
-7.22
-8.42
-9.45
-10.24
-10.71
-10.97
-11.31
-12.01
-13.29
-15.08
-17.12
-19.10
-20.89
-22.61
-24.60
-27.23
-30.65
-34.70
-38.86
-42.40
-44.60
-44.92
-43.19
-39.64
-34.79
-29.35
-23.95
-19.04
-14.78
-11.09
-7.77
-4.56
-1.29
2.14
5.75
9.48
13.13
16.48
19.23
21.19
22.29
22.68
22.62
22.46
22.46
22.76
23.33
24.06
24.75
25.21
25.34
25.11
24.57
23.90
23.25
22.69
22.21
21.67
20.89
19.75
18.24
16.48
14.67
13.07
11.92
11.29
11.11
11.15
11.10
10.72
9.90
8.70
7.31
5.90
4.49
2.98
1.22
-0.92
-3.46
-6.31
-9.26
-12.15
-14.89
-17.39
-19.68
-21.86
-24.09
-26.54
-29.29
-32.17
-34.73
-36.37
-36.49
-34.79
-31.40
-26.85
-21.86
-17.09
-12.93
-9.42
-6.36
-3.50
-0.60
2.46
5.69
9.07
12.51
15.84
18.81
21.14
22.71
23.50
23.68
23.53
23.27
23.07
23.00
23.04
23.15
23.20
23.05
22.62
21.89
20.95
20.00
19.25
18.73
18.39
18.06
17.60
16.94
16.14
15.33
14.62
14.12
13.82
13.71
13.69
13.68
13.59
13.28
12.67
11.72
10.44
8.90
7.22
5.47
3.67
1.76
-0.33
-2.61
-5.00
-7.38
-9.64
-11.76
-13.89
-16.27
-19.09
-22.41
-26.01
-29.43
-32.09
-33.46
-33.22
-31.35
-28.08
-23.83
-19.03
-14.09
-9.34
-5.11
-1.61
1.04
2.97
4.52
6.14
8.20
10.70
13.37
15.77
17.56
18.64
19.19
19.54
19.99
20.69
21.55
22.38
22.98
23.29
23.32
23.15
22.85
22.42
21.77
20.86
19.67
18.26
16.74
15.16
13.57
11.95
10.32
8.76
7.41
6.40
5.78
5.42
5.13
4.67
3.91
2.83
1.57
0.26
-0.95
-2.04
-3.07
-4.14
-5.30
-6.52
-7.72
-8.79
-9.72
-10.58
-11.55
-12.82
-14.51
-16.68
-19.21
-21.84
-24.16
-25.75
-26.18
-25.20
-22.87
-19.51
-15.70
-12.03
-8.88
-6.43
-4.56
-3.03
-1.58
-0.05
1.61
3.38
5.17
6.92
8.59
10.16
11.61
12.94
14.12
15.12
15.91
16.44
16.67
16.62
16.38
15.99
15.48
14.80
13.93
12.89
11.81
10.92
10.34
10.10
10.03
9.82
9.28
8.38
7.27
6.24
5.45
4.86
4.25
3.34
1.98
0.21
-1.72
-3.56
-5.09
-6.32
-7.35
-8.33
-9.35
-10.40
-11.39
-12.22
-12.83
-13.19
-13.30
-13.26
-13.21
-13.34
-13.81
-14.68
-15.77
-16.72
-17.05
-16.35
-14.44
-11.46
-7.81
-4.02
-0.61
2.07
3.85
4.75
4.95
4.65
4.06
3.36
2.68
2.10
1.70
1.53
1.60
1.86
2.23
2.63
2.98
3.23
3.41
3.59
3.82
4.15
4.56
4.97
5.29
5.43
5.32
5.00
4.55
4.17
3.98
4.06
4.33
4.64
4.80
4.70
4.33
3.81
3.23
2.65
2.05
1.39
0.65
-0.10
-0.79
-1.39
-1.98
-2.72
-3.74
-5.07
-6.58
-8.02
-9.16
-9.92
-10.41
-10.90
-11.68
-12.94
-14.61
-16.41
-17.85
-18.43
-17.84
-16.07
-13.45
-10.52
-7.87
-5.83
-4.48
-3.63
-3.03
-2.48
-1.89
-1.24
-0.52
0.29
1.22
2.21
3.17
4.00
4.63
5.04
5.31
5.46
5.50
5.40
5.15
4.81
4.45
4.15
3.90
3.60
3.15
2.52
1.80
1.18
0.88
1.02
1.56
2.36
3.19
3.88
4.35
4.63
4.84
5.04
5.22
5.30
5.19
4.82
4.17
3.29
2.27
1.17
0.08
-0.94
-1.80
-2.47
-3.01
-3.61
-4.54
-6.02
-8.12
-10.62
-13.06
-14.85
-15.52
-14.82
-12.83
-9.89
-6.47
-3.05
0.07
2.72
4.88
6.62
8.02
9.16
10.07
10.77
11.26
11.51
11.49
11.16
10.53
9.61
8.48
7.28
6.08
4.93
3.84
2.76
1.71
0.74
0.00
-0.44
-0.60
-0.63
-0.76
-1.17
-1.86
-2.75
-3.64
-4.37
-4.89
-5.30
-5.72
-6.29
-7.07
-8.04
-9.12
-10.11
-10.86
-11.27
-11.34
-11.21
-11.11
-11.21
-11.55
-12.02
-12.39
-12.53
-12.49
-12.47
-12.80
-13.64
-14.92
-16.26
-17.11
-17.04
-15.91
-13.90
-11.43
-9.01
-7.01
-5.63
-4.86
-4.56
-4.53
-4.54
-4.40
-3.96
-3.19
-2.17
-1.08
-0.14
0.55
0.98
1.24
1.42
1.58
1.71
1.83
1.99
2.31
2.85
3.54
4.21
4.66
4.71
4.38
3.82
3.24
2.74
2.27
1.68
0.84
-0.27
-1.54
-2.74
-3.73
-4.47
-5.02
-5.44
-5.78
-6.02
-6.09
-5.95
-5.58
-5.09
-4.61
-4.34
-4.47
-5.13
-6.36
-8.07
-10.02
-11.89
-13.32
-14.00
-13.84
-12.95
-11.61
-10.19
-8.94
-8.01
-7.38
-6.97
-6.66
-6.37
-6.06
-5.70
-5.20
-4.51
-3.66
-2.70
-1.75
-0.84
0.03
0.93
1.92
2.95
3.93
4.78
5.52
6.20
6.90
7.59
8.12
8.34
8.17
7.65
7.02
6.57
6.52
6.98
7.86
8.95
9.98
10.71
11.00
10.81
10.24
9.43
8.47
7.42
6.24
4.91
3.47
2.07
0.83
-0.22
-1.16
-2.13
-3.24
-4.53
-5.96
-7.46
-9.04
-10.73
-12.61
-14.62
-16.54
-18.05
-18.81
-18.64
-17.59
-15.94
-14.05
-12.28
-10.89
-9.99
-9.52
-9.36
-9.33
-9.22
-8.86
-8.13
-7.01
-5.58
-4.02
-2.51
-1.17
-0.07
0.80
1.50
2.10
2.67
3.23
3.80
4.38
5.00
5.70
6.47
7.30
8.07
8.61
8.77
8.46
7.78
6.96
6.24
5.77
5.49
5.20
4.69
3.86
2.78
1.67
0.72
0.02
-0.55
-1.17
-2.01
-3.09
-4.29
-5.35
-6.12
-6.56
-6.82
-7.11
-7.58
-8.24
-8.93
-9.51
-9.95
-10.45
-11.29
-12.65
-14.41
-16.13
-17.17
-17.04
-15.56
-12.94
-9.67
-6.24
-3.02
-0.19
2.20
4.13
5.59
6.60
7.27
7.74
8.19
8.69
9.18
9.52
9.54
9.23
8.74
8.28
8.06
8.16
8.48
8.91
9.34
9.79
10.34
11.05
11.86
12.61
13.12
13.20
12.82
12.10
11.16
10.13
9.08
8.00
6.89
5.81
4.83
3.99
3.31
2.70
2.10
1.42
0.66
-0.08
-0.74
-1.28
-1.82
-2.54
-3.61
-5.09
-6.87
-8.74
-10.45
-11.82
-12.84
-13.62
-14.34
-15.21
-16.32
-17.70
-19.36
-21.19
-22.97
-24.42
-25.14
-24.83
-23.36
-20.90
-17.85
-14.70
-11.92
-9.72
-8.14
-6.98
-5.99
-4.97
-3.79
-2.42
-0.88
0.73
2.34
3.87
5.30
6.64
7.91
9.10
10.18
11.12
11.85
12.35
12.59
12.58
12.32
11.85
11.28
10.79
10.56
10.74
11.40
12.40
13.52
14.45
14.98
15.01
14.59
13.83
12.83
11.64
10.25
8.65
6.88
5.00
3.12
1.33
-0.26
-1.69
-2.94
-4.11
-5.38
-6.90
-8.77
-10.93
-13.17
-15.21
-16.82
-17.99
-18.90
-19.82
-20.98
-22.47
-24.17
-25.92
-27.52
-28.74
-29.29
-28.82
-27.03
-23.81
-19.44
-14.47
-9.71
-5.77
-2.98
-1.25
-0.18
0.62
1.53
2.68
4.08
5.71
7.55
9.58
11.76
13.97
16.07
17.93
19.50
20.80
21.88
22.80
23.47
23.78
23.58
22.78
21.39
19.54
17.43
15.25
13.16
11.27
9.66
8.40
7.47
6.86
6.45
6.14
5.79
5.32
4.69
3.88
2.97
2.04
1.25
0.71
0.46
0.42
0.37
-0.00
-0.89
-2.31
-4.09
-5.95
-7.70
-9.28
-10.81
-12.46
-14.38
-16.66
-19.31
-22.32
-25.50
-28.55
-30.90
-31.92
-31.09
-28.25
-23.76
-18.34
-12.90
-8.09
-4.21
-1.17
1.37
3.71
6.03
8.34
10.49
12.33
13.79
14.82
15.47
15.79
15.87
15.81
15.71
15.63
15.62
15.65
15.61
15.44
15.11
14.68
14.27
13.90
13.54
13.02
12.25
11.20
10.06
9.04
8.32
7.88
7.55
7.09
6.38
5.44
4.40
3.37
2.31
1.09
-0.45
-2.31
-4.43
-6.64
-8.83
-10.98
-13.15
-15.46
-18.01
-20.80
-23.84
-27.14
-30.68
-34.39
-38.03
-41.11
-43.06
-43.30
-41.57
-37.98
-33.03
-27.44
-21.90
-16.88
-12.57
-8.91
-5.68
-2.64
0.31
3.18
5.85
8.22
10.18
11.81
13.23
14.63
16.08
17.52
18.77
19.71
20.35
20.88
21.50
22.35
23.32
24.20
24.76
24.92
24.68
24.17
23.49
22.70
21.85
21.02
20.34
19.94
19.78
19.70
19.48
18.91
17.93
16.69
15.32
13.94
12.46
10.71
8.52
5.79
2.59
-0.87
-4.23
-7.17
-9.49
-11.17
-12.46
-13.76
-15.53
-18.06
-21.49
-25.62
-30.03
-34.12
-37.19
-38.63
-38.07
-35.48
-31.21
-25.81
-20.01
-14.42
-9.52
-5.53
-2.39
0.18
2.58
5.24
8.38
11.99
15.78
19.39
22.51
25.02
26.96
28.44
29.47
29.97
29.83
29.08
27.94
26.74
25.79
25.19
24.76
24.14
22.94
20.97
18.29
15.22
12.24
9.72
7.87
6.62
5.70
4.74
3.49
1.87
-0.03
-1.96
-3.68
-5.07
-6.12
-6.99
-7.87
-8.91
-10.24
-11.90
-13.96
-16.42
-19.25
-22.32
-25.37
-28.15
-30.52
-32.61
-34.79
-37.51
-41.11
-45.52
-50.19
-54.18
-56.41
-56.03
-52.77
-47.00
-39.67
-31.96
-24.88
-19.02
-14.44
-10.86
-7.85
-5.07
-2.35
0.37
3.05
5.67
8.23
10.69
13.07
15.40
17.77
20.27
23.00
25.96
29.08
32.18
35.05
37.54
39.53
41.02
42.05
42.69
42.99
42.98
42.71
42.26
41.74
41.27
40.90
40.66
40.46
40.20
39.82
39.22
38.36
37.19
35.72
34.00
32.13
30.18
28.17
25.98
23.37
20.11
16.09
11.44
6.49
1.65
-2.71
-6.41
-9.48
-12.17
-14.85
-17.90
-21.60
-26.04
-30.98
-35.91
-40.02
-42.43
-42.47
-39.85
-34.87
-28.33
-21.27
-14.71
-9.27
-5.09
-1.81
1.14
4.26
7.74
11.43
14.98
17.99
20.24
21.72
22.55
22.93
23.02
22.99
23.01
23.22
23.72
24.44
25.23
25.83
25.96
25.51
24.44
22.81
20.75
18.44
16.08
13.88
12.04
10.66
9.70
9.03
8.41
7.64
6.58
5.17
3.46
1.50
-0.57
-2.63
-4.51
-6.04
-7.11
-7.77
-8.18
-8.64
-9.46
-10.83
-12.73
-14.94
-17.19
-19.25
-21.12
-23.01
-25.28
-28.34
-32.43
-37.53
-43.20
-48.63
-52.83
-54.79
-53.94
-50.24
-44.31
-37.18
-29.93
-23.48
-18.25
-14.25
-11.18
-8.60
-6.09
-3.34
-0.20
3.27
6.92
10.48
13.78
16.75
19.46
22.03
24.56
27.02
29.28
31.15
32.51
33.29
33.56
33.40
32.93
32.23
31.32
30.23
28.93
27.43
25.73
23.90
22.01
20.16
18.44
16.90
15.50
14.18
12.82
11.32
9.66
7.87
6.09
4.38
2.78
1.20
-0.53
-2.57
-4.92
-7.45
-9.93
-12.19
-14.17
-15.90
-17.58
-19.38
-21.57
-24.34
-27.91
-32.24
-36.98
-41.40
-44.47
-45.21
-43.06
-38.16
-31.30
-23.68
-16.43
-10.31
-5.54
-1.89
0.99
3.47
5.72
7.82
9.81
11.74
13.70
15.70
17.67
19.43
20.87
22.01
22.99
24.00
25.11
26.22
27.05
27.37
27.04
26.12
24.79
23.25
21.61
19.95
18.21
16.37
14.40
12.32
10.20
8.11
6.12
4.26
2.51
0.83
-0.85
-2.57
-4.38
-6.29
-8.35
-10.59
-13.00
-15.52
-18.05
-20.50
-22.93
-25.55
-28.64
-32.39
-36.67
-40.95
-44.34
-45.94
-45.13
-41.80
-36.46
-30.03
-23.49
-17.61
-12.66
-8.49
-4.72
-1.00
2.84
6.75
10.53
14.05
17.24
20.10
22.59
24.66
26.25
27.40
28.28
29.16
30.21
31.45
32.69
33.63
34.03
33.85
33.26
32.44
31.63
30.90
30.22
29.54
28.79
27.92
26.84
25.39
23.39
20.75
17.54
14.04
10.60
7.58
5.10
3.01
1.02
-1.22
-3.91
-7.03
-10.36
-13.66
-16.73
-19.55
-22.29
-25.21
-28.56
-32.51
-37.07
-42.03
-46.87
-50.90
-53.34
-53.59
-51.40
-47.01
-41.10
-34.55
-28.23
-22.72
-18.27
-14.73
-11.73
-8.80
-5.58
-1.89
2.21
6.37
10.18
13.20
15.24
16.38
16.92
17.25
17.65
18.17
18.66
18.91
18.79
18.34
17.82
17.51
17.65
18.30
19.33
20.53
21.69
22.68
23.42
23.81
23.78
23.20
21.96
20.10
17.86
15.61
13.77
12.64
12.22
12.18
11.97
11.04
9.06
6.13
2.62
-0.97
-4.28
-7.22
-9.94
-12.75
-15.88
-19.40
-23.31
-27.60
-32.22
-37.04
-41.68
-45.48
-47.58
-47.31
-44.42
-39.34
-32.94
-26.28
-20.20
-15.05
-10.75
-6.95
-3.27
0.52
4.48
8.52
12.53
16.35
19.79
22.68
24.85
26.19
26.79
26.88
26.81
26.96
27.59
28.78
30.38
32.08
33.47
34.19
33.97
32.76
30.73
28.17
25.45
22.87
20.62
18.80
17.35
16.16
15.07
13.91
12.58
11.07
9.48
7.94
6.57
5.44
4.48
3.50
2.31
0.74
-1.26
-3.60
-6.13
-8.64
-11.00
-13.17
-15.24
-17.38
-19.83
-22.79
-26.40
-30.55
-34.89
-38.84
-41.60
-42.42
-40.84
-36.90
-31.15
-24.48
-17.86
-12.07
-7.47
-4.07
-1.57
0.42
2.29
4.29
6.48
8.74
10.85
12.58
13.82
14.62
15.16
15.65
16.23
16.99
17.88
18.89
20.02
21.22
22.36
23.14
23.24
22.41
20.64
18.22
15.56
13.09
11.01
9.23
7.54
5.74
3.79
1.80
-0.02
-1.57
-2.88
-4.12
-5.49
-7.15
-9.05
-11.05
-12.93
-14.49
-15.70
-16.69
-17.70
-19.01
-20.90
-23.54
-26.98
-31.11
-35.49
-39.38
-41.89
-42.24
-40.04
-35.58
-29.67
-23.39
-17.64
-12.88
-9.12
-6.06
-3.29
-0.54
2.34
5.36
8.45
11.42
14.09
16.29
17.97
19.29
20.45
21.66
22.99
24.39
25.71
26.84
27.72
28.31
28.55
28.34
27.61
26.38
24.83
23.23
21.88
20.92
20.26
19.64
18.73
17.33
15.43
13.19
10.92
8.89
7.27
6.01
4.93
3.73
2.12
0.00
-2.56
-5.33
-8.00
-10.34
-12.29
-14.01
-15.87
-18.29
-21.69
-26.25
-31.83
-37.84
-43.34
-47.22
-48.54
-46.86
-42.46
-36.23
-29.35
-22.90
-17.52
-13.32
-9.97
-6.98
-3.90
-0.51
3.16
6.88
10.31
13.14
15.15
16.30
16.69
16.56
16.14
15.64
15.21
14.91
14.71
14.53
14.25
13.75
12.96
11.92
10.71
9.45
8.21
7.06
6.04
5.17
4.43
3.80
3.20
2.58
1.92
1.25
0.63
0.05
-0.59
-1.40
-2.43
-3.65
-4.91
-6.12
-7.34
-8.81
-10.81
-13.48
-16.72
-20.14
-23.27
-25.74
-27.37
-28.22
-28.54
-28.69
-29.06
-30.00
-31.75
-34.27
-37.15
-39.67
-40.99
-40.40
-37.61
-32.91
-27.03
-20.95
-15.49
-11.14
-7.92
-5.52
-3.41
-1.14
1.58
4.74
8.11
11.30
13.96
15.91
17.15
17.92
18.52
19.29
20.37
21.78
23.40
25.03
26.55
27.86
28.92
29.66
30.00
29.89
29.31
28.36
27.24
26.11
25.09
24.09
22.94
21.38
19.35
16.95
14.47
12.23
10.40
8.97
7.75
6.44
4.85
2.93
0.81
-1.24
-3.03
-4.45
-5.59
-6.71
-8.11
-10.06
-12.73
-16.11
-20.00
-23.97
-27.42
-29.64
-29.99
-28.11
-24.04
-18.25
-11.54
-4.76
1.47
6.87
11.51
15.62
19.41
22.92
26.04
28.56
30.30
31.26
31.59
31.54
31.38
31.32
31.45
31.74
32.19
32.81
33.60
34.57
35.62
36.54
37.04
36.81
35.64
33.54
30.68
27.36
23.92
20.65
17.71
15.14
12.91
10.93
9.09
7.31
5.48
3.58
1.58
-0.48
-2.59
-4.74
-6.96
-9.31
-11.83
-14.51
-17.20
-19.77
-22.04
-23.94
-25.64
-27.50
-30.01
-33.58
-38.24
-43.50
-48.42
-51.88
-53.01
-51.53
-47.80
-42.68
-37.10
-31.83
-27.25
-23.46
-20.35
-17.75
-15.48
-13.30
-11.02
-8.50
-5.72
-2.80
0.11
2.90
5.48
7.86
10.03
11.92
13.45
14.54
15.23
15.62
15.82
15.85
15.66
15.16
14.29
13.14
11.91
10.83
10.03
9.44
8.89
8.18
7.17
5.85
4.28
2.52
0.63
-1.37
-3.38
-5.28
-6.86
-8.01
-8.79
-9.36
-10.05
-11.10
-12.66
-14.68
-17.02
-19.43
-21.73
-23.84
-25.77
-27.68
-29.79
-32.33
-35.37
-38.75
-42.01
-44.42
-45.15
-43.59
-39.54
-33.38
-25.94
-18.33
-11.54
-6.20
-2.46
0.03
1.87
3.64
5.73
8.21
10.88
13.44
15.59
17.13
18.06
18.48
18.58
18.57
18.62
18.84
19.27
19.89
20.61
21.28
21.72
21.79
21.41
20.57
19.35
17.87
16.28
14.69
13.17
11.78
10.54
9.48
8.53
7.57
6.49
5.26
4.01
2.92
2.14
1.67
1.31
0.80
-0.06
-1.28
-2.68
-3.98
-4.96
-5.56
-5.92
-6.28
-6.96
-8.26
-10.37
-13.34
-17.01
-20.96
-24.57
-27.19
-28.26
-27.45
-24.82
-20.71
-15.76
-10.68
-6.12
-2.48
0.19
2.13
3.72
5.32
7.04
8.82
10.41
11.62
12.32
12.57
12.49
12.21
11.82
11.37
10.93
10.60
10.48
10.60
10.91
11.33
11.72
12.03
12.24
12.39
12.49
12.51
12.40
12.10
11.55
10.76
9.78
8.70
7.58
6.50
5.48
4.52
3.58
2.62
1.60
0.51
-0.64
-1.86
-3.18
-4.61
-6.22
-8.11
-10.36
-13.07
-16.26
-19.81
-23.47
-26.78
-29.21
-30.19
-29.34
-26.56
-22.20
-16.95
-11.66
-7.12
-3.76
-1.58
-0.22
0.86
2.07
3.57
5.20
6.61
7.48
7.65
7.21
6.42
5.58
4.94
4.58
4.50
4.57
4.74
4.98
5.30
5.69
6.08
6.35
6.40
6.18
5.81
5.45
5.20
5.09
4.93
4.52
3.69
2.44
0.97
-0.45
-1.62
-2.57
-3.47
-4.58
-6.03
-7.84
-9.88
-11.97
-14.03
-16.08
-18.28
-20.79
-23.74
-27.12
-30.74
-34.22
-37.04
-38.60
-38.44
-36.32
-32.34
-26.94
-20.76
-14.56
-8.97
-4.40
-1.01
1.38
3.10
4.52
5.95
7.49
9.05
10.46
11.60
12.47
13.19
13.87
14.54
15.12
15.51
15.71
15.82
16.03
16.47
17.10
17.73
18.07
17.90
17.13
15.85
14.26
12.58
11.01
9.63
8.45
7.42
6.50
5.62
4.84
4.14
3.53
2.92
2.12
0.95
-0.70
-2.76
-5.00
-7.16
-9.02
-10.57
-11.95
-13.39
-15.10
-17.22
-19.83
-22.92
-26.33
-29.69
-32.40
-33.75
-33.18
-30.47
-25.95
-20.37
-14.67
-9.62
-5.59
-2.52
-0.01
2.43
5.19
8.39
11.94
15.53
18.85
21.64
23.78
25.33
26.41
27.21
27.85
28.38
28.76
28.92
28.80
28.40
27.79
27.02
26.12
25.05
23.73
22.12
20.32
18.51
16.91
15.66
14.71
13.86
12.81
11.37
9.53
7.50
5.58
4.01
2.90
2.10
1.34
0.38
-0.92
-2.58
-4.49
-6.54
-8.59
-10.60
-12.53
-14.34
-16.08
-17.89
-19.95
-22.48
-25.50
-28.73
-31.54
-33.22
-33.16
-31.22
-27.81
-23.72
-19.79
-16.62
-14.37
-12.77
-11.42
-9.93
-8.15
-6.12
-3.99
-1.84
0.30
2.46
4.65
6.75
8.57
9.96
10.89
11.50
12.07
12.87
13.97
15.21
16.28
16.89
16.91
16.44
15.69
14.87
14.06
13.23
12.27
11.13
9.81
8.42
7.03
5.74
4.59
3.59
2.72
1.90
1.01
-0.10
-1.52
-3.31
-5.46
-7.85
-10.38
-12.93
-15.43
-17.90
-20.49
-23.31
-26.41
-29.58
-32.39
-34.23
-34.51
-32.93
-29.55
-24.84
-19.49
-14.21
-9.54
-5.77
-2.94
-0.86
0.74
2.15
3.58
5.10
6.61
7.97
9.05
9.86
10.52
11.23
12.20
13.50
15.08
16.74
18.27
19.44
20.18
20.42
20.22
19.64
18.78
17.72
16.63
15.62
14.78
14.04
13.22
12.11
10.59
8.66
6.52
4.39
2.40
0.48
-1.50
-3.67
-5.98
-8.26
-10.28
-11.91
-13.21
-14.38
-15.65
-17.16
-18.98
-21.15
-23.77
-26.89
-30.44
-34.03
-37.00
-38.60
-38.24
-35.80
-31.64
-26.52
-21.28
-16.61
-12.83
-9.86
-7.37
-4.95
-2.29
0.73
3.99
7.27
10.28
12.82
14.80
16.24
17.25
17.96
18.52
19.06
19.68
20.45
21.33
22.18
22.79
22.91
22.34
21.05
19.23
17.20
15.34
13.92
12.97
12.35
11.85
11.29
10.59
9.78
8.92
8.04
7.09
6.03
4.87
3.66
2.54
1.54
0.58
-0.52
-1.97
-3.84
-6.03
-8.35
-10.59
-12.63
-14.62
-16.81
-19.47
-22.76
-26.59
-30.61
-34.31
-37.14
-38.58
-38.30
-36.16
-32.31
-27.13
-21.21
-15.25
-9.88
-5.54
-2.30
0.02
1.84
3.62
5.67
8.07
10.65
13.15
15.29
16.91
18.06
18.91
19.72
20.66
21.83
23.16
24.48
25.51
26.08
26.14
25.76
25.12
24.37
23.57
22.73
21.87
21.04
20.33
19.79
19.43
19.15
18.77
18.13
17.16
15.93
14.51
13.07
11.68
10.41
9.28
8.26
7.31
6.30
5.14
3.72
2.04
0.18
-1.76
-3.63
-5.42
-7.20
-9.15
-11.46
-14.23
-17.35
-20.51
-23.21
-24.90
-25.07
-23.51
-20.30
-15.90
-10.97
-6.20
-2.11
1.07
3.39
5.05
6.26
7.16
7.81
8.21
8.38
8.30
7.98
7.42
6.66
5.81
4.99
4.35
4.01
4.02
4.40
5.05
5.83
6.56
7.02
7.06
6.63
5.82
4.78
3.67
2.63
1.67
0.77
-0.13
-1.08
-2.13
-3.30
-4.59
-5.93
-7.21
-8.32
-9.27
-10.14
-11.12
-12.38
-13.96
-15.77
-17.63
-19.34
-20.81
-22.01
-23.11
-24.28
-25.76
-27.71
-30.12
-32.72
-34.93
-36.06
-35.47
-32.92
-28.71
-23.57
-18.45
-14.07
-10.70
-8.11
-5.81
-3.35
-0.56
2.42
5.24
7.60
9.33
10.45
11.10
11.41
11.56
11.64
11.81
12.20
12.87
13.80
14.90
16.03
17.06
17.92
18.56
18.95
19.08
18.96
18.60
18.00
17.07
15.71
13.87
11.58
9.07
6.60
4.46
2.74
1.34
0.03
-1.45
-3.20
-5.19
-7.23
-9.12
-10.74
-12.08
-13.32
-14.71
-16.56
-19.15
-22.58
-26.64
-30.86
-34.51
-36.82
-37.19
-35.40
-31.65
-26.51
-20.69
-14.90
-9.63
-5.08
-1.25
2.07
5.10
8.03
10.97
13.93
16.92
19.84
22.58
24.98
26.92
28.36
29.37
30.12
30.80
31.57
32.43
33.30
34.01
34.44
34.57
34.48
34.29
34.08
33.82
33.30
32.20
30.20
27.15
23.20
18.78
14.48
10.76
7.78
5.29
2.86
0.09
-3.17
-6.77
-10.37
-13.66
-16.51
-19.00
-21.35
-23.77
-26.44
-29.41
-32.67
-36.18
-39.78
-43.22
-46.15
-48.13
-48.72
-47.55
-44.61
-40.15
-34.70
-29.02
-23.77
-19.35
-15.87
-13.10
-10.72
-8.40
-5.96
-3.36
-0.62
2.13
4.77
7.13
9.15
10.80
12.13
13.30
14.41
15.53
16.66
17.73
18.62
19.20
19.29
18.78
17.62
15.95
14.11
12.53
11.53
11.14
11.13
11.05
10.57
9.54
8.11
6.54
5.06
3.74
2.54
1.39
0.23
-1.02
-2.36
-3.84
-5.47
-7.22
-9.06
-10.94
-12.93
-15.19
-17.90
-21.16
-24.86
-28.65
-32.02
-34.37
-35.25
-34.44
-31.98
-28.26
-23.84
-19.30
-15.08
-11.39
-8.15
-5.15
-2.17
0.87
3.87
6.62
8.86
10.52
11.64
12.43
13.10
13.80
14.54
15.26
15.83
16.17
16.33
16.43
16.57
16.84
17.14
17.34
17.22
16.62
15.48
13.84
11.82
9.60
7.40
5.35
3.57
2.07
0.80
-0.38
-1.59
-2.96
-4.49
-6.09
-7.65
-9.08
-10.41
-11.78
-13.37
-15.33
-17.74
-20.56
-23.60
-26.57
-29.06
-30.58
-30.66
-28.99
-25.56
-20.70
-15.06
-9.37
-4.21
0.14
3.69
6.67
9.30
11.67
13.75
15.39
16.50
17.07
17.22
17.10
16.86
16.62
16.43
16.37
16.48
16.78
17.26
17.77
18.15
18.22
17.94
17.38
16.70
16.05
15.49
14.95
14.26
13.32
12.09
10.70
9.32
8.14
7.22
6.53
5.94
5.30
4.50
3.47
2.17
0.56
-1.39
-3.66
-6.20
-8.93
-11.77
-14.76
-18.01
-21.57
-25.28
-28.72
-31.21
-32.06
-30.85
-27.66
-23.05
-17.86
-12.90
-8.66
-5.20
-2.25
0.53
3.42
6.46
9.54
12.43
14.95
16.97
18.46
19.46
20.07
20.40
20.65
20.96
21.44
22.09
22.87
23.66
24.29
24.65
24.60
24.08
23.05
21.52
19.64
17.61
15.71
14.16
13.09
12.42
11.92
11.32
10.40
9.11
7.53
5.88
4.37
3.14
2.19
1.41
0.63
-0.32
-1.48
-2.87
-4.41
-6.02
-7.62
-9.25
-10.92
-12.71
-14.73
-17.10
-19.91
-23.13
-26.54
-29.69
-31.97
-32.82
-31.86
-29.11
-24.87
-19.72
-14.23
-8.86
-3.87
0.68
4.82
8.65
12.23
15.68
19.08
22.48
25.86
29.04
31.77
33.77
34.91
35.24
35.01
34.62
34.41
34.60
35.18
35.98
36.63
36.74
35.88
33.76
30.33
25.82
20.76
15.83
11.60
8.41
6.24
4.85
3.90
3.16
2.51
1.95
1.50
1.14
0.77
0.35
-0.14
-0.66
-1.15
-1.66
-2.36
-3.46
-5.16
-7.54
-10.50
-13.87
-17.48
-21.18
-24.91
-28.66
-32.42
-36.14
-39.68
-42.81
-45.20
-46.47
-46.29
-44.49
-41.17
-36.67
-31.52
-26.30
-21.44
-17.22
-13.67
-10.67
-7.98
-5.36
-2.65
0.13
2.83
5.16
6.93
8.09
8.77
9.25
9.78
10.55
11.55
12.70
13.89
15.03
16.06
16.91
17.47
17.60
17.16
16.13
14.58
12.68
10.64
8.62
6.73
5.00
3.42
2.02
0.80
-0.21
-1.05
-1.84
-2.75
-3.95
-5.49
-7.32
-9.24
-11.08
-12.71
-14.15
-15.49
-16.89
-18.48
-20.35
-22.49
-24.78
-26.92
-28.48
-28.97
-28.04
-25.65
-22.05
-17.78
-13.42
-9.43
-6.01
-3.14
-0.64
1.61
3.73
5.74
7.63
9.40
11.04
12.46
13.57
14.22
14.36
14.04
13.49
13.02
12.89
13.16
13.74
14.36
14.78
14.88
14.67
14.24
13.70
13.07
12.38
11.61
10.81
10.00
9.22
8.46
7.70
6.88
5.93
4.77
3.32
1.53
-0.60
-2.96
-5.37
-7.63
-9.58
-11.14
-12.42
-13.61
-15.02
-17.02
-19.80
-23.34
-27.24
-30.81
-33.26
-33.94
-32.62
-29.49
-25.17
-20.37
-15.73
-11.65
-8.24
-5.40
-2.94
-0.65
1.64
4.03
6.55
9.12
11.56
13.69
15.38
16.62
17.51
18.22
18.91
19.61
20.24
20.65
20.71
20.35
19.57
18.40
16.92
15.18
13.35
11.63
10.22
9.24
8.59
8.06
7.33
6.19
4.63
2.78
0.90
-0.87
-2.45
-3.86
-5.13
-6.27
-7.28
-8.17
-9.00
-9.91
-11.03
-12.49
-14.37
-16.68
-19.33
-22.10
-24.59
-26.31
-26.79
-25.79
-23.36
-19.85
-15.80
-11.75
-8.11
-5.08
-2.66
-0.77
0.70
1.84
2.73
3.46
4.14
4.89
5.76
6.76
7.80
8.72
9.43
9.90
10.23
10.56
10.99
11.56
12.19
12.77
13.14
13.12
12.57
11.40
9.63
7.42
5.08
2.92
1.16
-0.16
-1.23
-2.32
-3.70
-5.44
-7.35
-9.09
-10.32
-10.93
-11.07
-11.19
-11.77
-13.17
-15.38
-18.13
-20.93
-23.28
-24.73
-24.98
-23.91
-21.54
-18.06
-13.88
-9.46
-5.31
-1.76
1.06
3.27
5.10
6.81
8.50
10.11
11.46
12.34
12.69
12.56
12.21
11.88
11.78
11.92
12.18
12.38
12.39
12.25
12.02
11.82
11.67
11.49
11.13
10.47
9.50
8.33
7.13
6.08
5.29
4.72
4.23
3.61
2.63
1.18
-0.73
-2.94
-5.29
-7.58
-9.72
-11.71
-13.56
-15.33
-17.00
-18.64
-20.40
-22.49
-25.06
-27.97
-30.76
-32.71
-33.10
-31.49
-27.94
-22.97
-17.43
-12.13
-7.63
-4.06
-1.27
1.07
3.24
5.35
7.38
9.21
10.78
12.09
13.20
14.18
15.04
15.72
16.20
16.45
16.57
16.70
16.99
17.46
18.05
18.55
18.73
18.37
17.37
15.76
13.69
11.47
9.43
7.81
6.73
6.08
5.62
5.13
4.46
3.59
2.58
1.47
0.24
-1.19
-2.90
-4.91
-7.09
-9.31
-11.40
-13.34
-15.19
-17.11
-19.25
-21.61
-23.99
-26.00
-27.14
-27.00
-25.37
-22.42
-18.54
-14.30
-10.17
-6.46
-3.25
-0.55
1.72
3.64
5.26
6.70
8.05
9.41
10.76
12.01
13.03
13.76
14.20
14.46
14.70
15.01
15.45
15.96
16.48
16.91
17.16
17.17
16.88
16.25
15.27
13.97
12.41
10.67
8.85
7.06
5.37
3.86
2.50
1.23
-0.11
-1.61
-3.28
-5.05
-6.69
-8.04
-9.03
-9.77
-10.48
-11.41
-12.76
-14.64
-17.03
-19.79
-22.59
-24.96
-26.30
-26.15
-24.35
-21.17
-17.21
-13.15
-9.46
-6.28
-3.47
-0.90
1.46
3.49
5.09
6.27
7.23
8.19
9.27
10.40
11.42
12.17
12.68
13.06
13.49
13.98
14.42
14.62
14.44
13.88
13.02
11.98
10.82
9.56
8.24
6.93
5.78
4.87
4.21
3.68
3.11
2.35
1.36
0.23
-0.89
-1.87
-2.66
-3.31
-3.94
-4.67
-5.69
-7.18
-9.36
-12.29
-15.83
-19.49
-22.55
-24.25
-24.10
-22.05
-18.55
-14.33
-10.08
-6.24
-2.88
0.18
3.18
6.24
9.27
11.99
14.08
15.31
15.67
15.36
14.72
14.13
13.84
13.88
14.15
14.47
14.70
14.76
14.59
14.11
13.24
11.93
10.28
8.53
6.91
5.59
4.59
3.79
3.06
2.35
1.72
1.26
0.97
0.76
0.40
-0.33
-1.49
-2.93
-4.35
-5.43
-6.05
-6.30
-6.51
-7.04
-8.20
-10.12
-12.72
-15.79
-19.00
-21.97
-24.24
-25.42
-25.21
-23.60
-20.82
-17.30
-13.56
-10.02
-6.96
-4.43
-2.40
-0.74
0.70
2.07
3.48
4.96
6.48
7.95
9.26
10.40
11.42
12.47
13.62
14.85
16.05
17.01
17.56
17.62
17.20
16.39
15.27
13.89
12.32
10.67
9.05
7.59
6.39
5.40
4.51
3.52
2.29
0.75
-1.02
-2.89
-4.69
-6.25
-7.52
-8.54
-9.42
-10.40
-11.72
-13.56
-15.95
-18.70
-21.41
-23.58
-24.65
-24.27
-22.40
-19.28
-15.47
-11.58
-8.14
-5.40
-3.33
-1.68
-0.14
1.52
3.32
5.15
6.76
8.00
8.83
9.37
9.82
10.35
10.99
11.64
12.13
12.37
12.37
12.27
12.18
12.18
12.19
12.12
11.85
11.34
10.62
9.69
8.50
6.98
5.13
3.07
0.95
-1.05
-2.85
-4.48
-6.03
-7.54
-8.95
-10.12
-10.96
-11.52
-12.05
-12.86
-14.26
-16.31
-18.88
-21.59
-24.05
-25.82
-26.55
-26.03
-24.18
-21.13
-17.22
-12.91
-8.65
-4.80
-1.54
1.13
3.24
4.92
6.18
7.07
7.65
8.02
8.27
8.51
8.83
9.28
9.91
10.70
11.60
12.49
13.27
13.90
14.37
14.79
15.22
15.67
16.02
16.16
15.97
15.42
14.53
13.40
12.13
10.78
9.42
8.08
6.79
5.53
4.22
2.78
1.18
-0.52
-2.17
-3.59
-4.73
-5.66
-6.56
-7.68
-9.22
-11.23
-13.70
-16.47
-19.23
-21.56
-23.00
-23.13
-21.78
-19.06
-15.45
-11.58
-8.10
-5.39
-3.54
-2.38
-1.60
-0.92
-0.24
0.47
1.15
1.72
2.19
2.63
3.08
3.59
4.19
4.85
5.59
6.46
7.49
8.68
9.95
11.20
12.31
13.21
13.80
13.94
13.51
12.40
10.72
8.73
6.81
5.31
4.35
3.77
3.24
2.42
1.15
-0.43
-2.08
-3.51
-4.53
-5.13
-5.43
-5.61
-5.88
-6.44
-7.43
-8.93
-10.96
-13.45
-16.16
-18.69
-20.55
-21.31
-20.72
-18.84
-16.07
-12.94
-9.97
-7.46
-5.50
-3.93
-2.58
-1.31
-0.07
1.09
2.12
2.98
3.62
4.10
4.54
5.08
5.90
7.09
8.64
10.42
12.22
13.77
14.85
15.34
15.21
14.52
13.42
12.05
10.46
8.64
6.55
4.20
1.67
-0.84
-3.15
-5.14
-6.87
-8.48
-10.09
-11.78
-13.49
-15.20
-16.97
-18.92
-21.16
-23.55
-25.68
-26.91
-26.68
-24.74
-21.32
-17.03
-12.63
-8.75
-5.66
-3.25
-1.24
0.65
2.54
4.39
6.05
7.39
8.42
9.31
10.25
11.34
12.53
13.68
14.61
15.30
15.79
16.18
16.53
16.75
16.68
16.18
15.17
13.74
12.02
10.22
8.48
6.87
5.38
3.94
2.42
0.74
-1.16
-3.21
-5.24
-7.09
-8.60
-9.75
-10.70
-11.76
-13.33
-15.76
-19.15
-23.23
-27.40
-30.81
-32.73
-32.68
-30.70
-27.16
-22.67
-17.85
-13.16
-8.90
-5.23
-2.20
0.24
2.20
3.89
5.48
7.10
8.80
10.50
12.15
13.64
14.90
15.85
16.45
16.73
16.84
17.04
17.53
18.37
19.30
19.87
19.61
18.31
16.07
13.29
10.47
8.02
6.12
4.78
3.93
3.47
3.23
2.97
2.42
1.38
-0.16
-1.96
-3.67
-5.05
-6.13
-7.27
-9.00
-11.81
-15.90
-21.03
-26.59
-31.76
-35.66
-37.65
-37.46
-35.22
-31.41
-26.72
-21.88
-17.36
-13.40
-9.95
-6.76
-3.63
-0.39
2.94
6.19
9.13
11.54
13.33
14.54
15.38
16.13
17.00
18.05
19.20
20.29
21.18
21.79
22.12
22.20
22.01
21.47
20.45
18.92
16.93
14.72
12.60
10.86
9.65
8.90
8.43
7.95
7.28
6.32
5.07
3.57
1.85
-0.04
-2.06
-4.12
-6.06
-7.76
-9.16
-10.31
-11.46
-12.92
-15.04
-18.02
-21.83
-26.04
-29.94
-32.68
-33.57
-32.31
-29.15
-24.78
-20.03
-15.61
-11.90
-8.92
-6.41
-4.07
-1.61
1.06
3.88
6.70
9.34
11.67
13.68
15.39
16.85
18.08
19.10
19.88
20.40
20.67
20.71
20.53
20.11
19.45
18.51
17.31
15.95
14.60
13.42
12.52
11.87
11.35
10.79
10.09
9.28
8.49
7.84
7.35
6.88
6.25
5.31
4.00
2.46
0.78
-0.97
-2.88
-5.10
-7.76
-10.89
-14.44
-18.28
-22.22
-25.94
-29.02
-30.89
-31.06
-29.30
-25.73
-20.88
-15.52
-10.40
-6.07
-2.73
-0.30
1.49
2.91
4.16
5.36
6.51
7.62
8.69
9.82
11.11
12.63
14.38
16.24
17.99
19.45
20.52
21.20
21.53
21.59
21.35
20.78
19.88
18.67
17.27
15.77
14.28
12.83
11.41
10.03
8.70
7.38
6.03
4.60
3.07
1.50
-0.07
-1.56
-2.97
-4.39
-5.92
-7.63
-9.49
-11.53
-13.80
-16.49
-19.74
-23.55
-27.63
-31.37
-34.07
-35.12
-34.28
-31.67
-27.73
-23.04
-18.17
-13.58
-9.57
-6.23
-3.48
-1.08
1.22
3.60
6.05
8.41
10.45
12.06
13.20
14.01
14.65
15.28
15.96
16.71
17.54
18.44
19.44
20.45
21.35
21.94
22.05
21.60
20.68
19.48
18.21
17.00
15.82
14.53
13.03
11.35
9.69
8.29
7.25
6.54
5.95
5.24
4.25
2.96
1.42
-0.25
-1.98
-3.75
-5.63
-7.71
-10.13
-13.06
-16.68
-21.05
-25.97
-30.92
-35.13
-37.77
-38.24
-36.38
-32.56
-27.53
-22.19
-17.33
-13.35
-10.27
-7.80
-5.49
-3.02
-0.20
2.92
6.17
9.34
12.21
14.70
16.77
18.45
19.86
21.09
22.18
23.08
23.70
23.93
23.73
23.14
22.33
21.43
20.48
19.40
18.07
16.45
14.63
12.84
11.30
10.12
9.24
8.50
7.70
6.80
5.86
4.97
4.15
3.35
2.44
1.29
-0.15
-1.85
-3.70
-5.68
-7.80
-10.14
-12.80
-15.86
-19.39
-23.33
-27.48
-31.42
-34.59
-36.34
-36.18
-33.94
-29.89
-24.63
-18.94
-13.55
-8.91
-5.12
-2.06
0.55
2.96
5.30
7.57
9.68
11.49
12.93
14.02
14.83
15.50
16.06
16.53
16.91
17.21
17.51
17.89
18.39
18.90
19.24
19.22
18.73
17.79
16.58
15.26
13.98
12.82
11.83
11.04
10.47
10.06
9.60
8.87
7.65
5.90
3.78
1.60
-0.36
-1.96
-3.28
-4.55
-6.04
-7.97
-10.47
-13.53
-17.12
-21.11
-25.37
-29.60
-33.38
-36.15
-37.32
-36.46
-33.52
-28.79
-22.95
-16.85
-11.22
-6.53
-2.88
-0.09
2.13
4.06
5.85
7.51
8.99
10.25
11.26
12.10
12.91
13.78
14.79
15.89
17.01
18.04
18.89
19.57
20.12
20.58
20.91
21.02
20.79
20.19
19.32
18.31
17.24
16.03
14.50
12.48
10.01
7.33
4.79
2.67
1.03
-0.27
-1.47
-2.68
-3.86
-4.89
-5.77
-6.61
-7.68
-9.16
-11.05
-13.24
-15.61
-18.19
-21.19
-24.71
-28.56
-32.16
-34.61
-35.08
-33.17
-29.07
-23.52
-17.51
-11.91
-7.27
-3.71
-1.08
1.00
2.86
4.76
6.84
9.06
11.31
13.46
15.43
17.19
18.77
20.16
21.32
22.11
22.45
22.37
22.04
21.62
21.30
21.09
20.82
20.30
19.35
17.95
16.26
14.51
12.89
11.50
10.32
9.21
8.06
6.79
5.36
3.75
1.96
-0.04
-2.25
-4.56
-6.80
-8.83
-10.59
-12.22
-14.01
-16.33
-19.42
-23.27
-27.49
-31.44
-34.30
-35.35
-34.21
-30.95
-26.07
-20.39
-14.79
-9.93
-6.10
-3.22
-1.02
0.84
2.52
4.04
5.30
6.25
6.93
7.51
8.23
9.24
10.54
11.99
13.34
14.37
14.98
15.25
15.34
15.39
15.37
15.08
14.30
12.89
10.95
8.79
6.78
5.12
3.81
2.65
1.39
-0.13
-1.89
-3.75
-5.51
-7.01
-8.14
-8.95
-9.62
-10.50
-12.03
-14.58
-18.25
-22.73
-27.31
-31.02
-32.98
-32.70
-30.21
-26.03
-20.91
-15.60
-10.60
-6.14
-2.20
1.28
4.35
7.01
9.21
10.96
12.31
13.34
14.15
14.83
15.43
16.03
16.63
17.26
17.92
18.57
19.21
19.81
20.32
20.69
20.83
20.64
20.02
18.88
17.20
15.04
12.60
10.12
7.88
5.99
4.38
2.82
0.99
-1.31
-4.07
-7.03
-9.84
-12.21
-14.09
-15.70
-17.43
-19.67
-22.68
-26.41
-30.51
-34.35
-37.17
-38.27
-37.20
-33.93
-28.85
-22.70
-16.32
-10.49
-5.66
-1.91
1.03
3.59
6.13
8.86
11.70
14.42
16.76
18.57
19.90
20.92
21.82
22.71
23.53
24.15
24.48
24.51
24.31
24.01
23.61
23.04
22.13
20.85
19.24
17.54
15.98
14.67
13.56
12.46
11.17
9.67
8.06
6.51
5.10
3.73
2.16
0.17
-2.28
-4.98
-7.61
-9.83
-11.58
-13.03
-14.57
-16.58
-19.34
-22.86
-27.03
-31.47
-35.70
-39.08
-40.93
-40.73
-38.29
-33.82
-27.95
-21.55
-15.44
-10.20
-6.04
-2.80
-0.16
2.24
4.66
7.14
9.56
11.76
13.58
14.95
15.94
16.68
17.31
17.90
18.53
19.23
20.06
21.07
22.25
23.54
24.75
25.68
26.09
25.84
24.91
23.43
21.65
19.90
18.45
17.40
16.63
15.88
14.87
13.48
11.75
9.87
7.97
6.09
4.09
1.80
-0.88
-3.85
-6.87
-9.66
-11.96
-13.75
-15.14
-16.41
-17.89
-19.87
-22.58
-26.00
-29.82
-33.45
-36.11
-37.10
-36.00
-32.86
-28.20
-22.82
-17.55
-12.98
-9.36
-6.59
-4.36
-2.38
-0.43
1.54
3.48
5.32
7.02
8.59
10.10
11.55
12.88
14.00
14.82
15.35
15.68
15.94
16.24
16.58
16.88
16.99
16.77
16.09
14.94
13.34
11.40
9.31
7.29
5.60
4.36
3.53
2.92
2.18
1.04
-0.61
-2.64
-4.77
-6.69
-8.27
-9.58
-10.88
-12.50
-14.62
-17.32
-20.45
-23.69
-26.68
-28.96
-30.13
-29.83
-27.95
-24.60
-20.14
-15.11
-10.05
-5.38
-1.34
2.09
5.03
7.62
9.91
11.81
13.15
13.84
13.94
13.68
13.46
13.60
14.27
15.37
16.62
17.72
18.42
18.65
18.50
18.12
17.63
17.09
16.43
15.57
14.40
12.91
11.13
9.19
7.22
5.34
3.54
1.81
0.06
-1.80
-3.72
-5.62
-7.37
-8.88
-10.14
-11.28
-12.46
-13.91
-15.83
-18.38
-21.59
-25.40
-29.49
-33.36
-36.34
-37.75
-37.08
-34.19
-29.39
-23.36
-17.00
-11.09
-6.15
-2.29
0.61
2.88
4.82
6.65
8.48
10.37
12.32
14.30
16.24
17.99
19.39
20.35
20.90
21.14
21.22
21.24
21.18
20.96
20.50
19.79
18.91
18.02
17.26
16.69
16.31
15.99
15.59
14.97
14.02
12.74
11.19
9.48
7.76
6.13
4.57
2.91
0.99
-1.39
-4.25
-7.45
-10.69
-13.64
-16.10
-18.09
-19.94
-22.08
-24.92
-28.60
-32.82
-36.96
-40.19
-41.74
-41.16
-38.40
-33.79
-27.96
-21.63
-15.48
-10.03
-5.61
-2.27
0.14
1.99
3.69
5.57
7.79
10.29
12.84
15.13
16.96
18.24
19.04
19.55
19.95
20.37
20.88
21.49
22.20
22.96
23.63
24.00
23.82
22.94
21.38
19.40
17.38
15.66
14.41
13.54
12.78
11.82
10.47
8.72
6.73
4.73
2.92
1.43
0.30
-0.56
-1.24
-1.94
-2.81
-4.03
-5.65
-7.61
-9.74
-11.86
-13.86
-15.81
-17.97
-20.68
-24.17
-28.33
-32.67
-36.39
-38.61
-38.78
-36.78
-32.96
-28.04
-22.75
-17.69
-13.24
-9.49
-6.37
-3.69
-1.21
1.24
3.77
6.36
8.93
11.38
13.60
15.48
16.96
17.99
18.62
19.01
19.43
20.10
21.10
22.20
23.02
23.13
22.32
20.68
18.53
16.28
14.25
12.59
11.26
10.18
9.20
8.21
7.10
5.74
4.09
2.12
-0.07
-2.30
-4.36
-6.09
-7.43
-8.45
-9.27
-10.07
-10.92
-11.83
-12.80
-13.85
-15.16
-16.93
-19.33
-22.31
-25.49
-28.25
-29.91
-29.94
-28.13
-24.71
-20.18
-15.23
-10.52
-6.50
-3.31
-0.85
1.12
2.84
4.41
5.80
6.94
7.81
8.56
9.45
10.67
12.21
13.87
15.33
16.35
16.97
17.41
17.98
18.83
19.87
20.77
21.18
20.90
20.05
18.89
17.76
16.78
15.86
14.74
13.18
11.12
8.71
6.26
4.08
2.37
1.14
0.28
-0.45
-1.27
-2.31
-3.66
-5.30
-7.18
-9.24
-11.41
-13.71
-16.12
-18.68
-21.46
-24.56
-28.00
-31.65
-35.12
-37.81
-39.03
-38.26
-35.39
-30.76
-25.11
-19.33
-14.15
-9.97
-6.81
-4.37
-2.28
-0.26
1.76
3.69
5.36
6.68
7.67
8.54
9.50
10.74
12.28
14.00
15.76
17.45
19.01
20.47
21.86
23.08
23.91
24.09
23.48
22.13
20.28
18.36
16.69
15.46
14.54
13.65
12.45
10.76
8.67
6.42
4.37
2.75
1.58
0.78
0.08
-0.72
-1.77
-3.14
-4.84
-6.79
-8.86
-10.92
-12.94
-14.94
-17.13
-19.73
-22.98
-26.91
-31.33
-35.74
-39.44
-41.62
-41.68
-39.32
-34.80
-28.83
-22.38
-16.41
-11.52
-7.83
-5.06
-2.76
-0.49
1.92
4.45
6.98
9.38
11.61
13.69
15.65
17.49
19.19
20.73
22.12
23.37
24.44
25.24
25.63
25.49
24.79
23.57
21.90
19.95
17.85
15.73
13.81
12.25
11.16
10.57
10.31
10.16
9.86
9.25
8.23
6.80
4.93
2.64
-0.03
-2.94
-5.83
-8.45
-10.62
-12.40
-14.03
-15.85
-18.16
-21.08
-24.48
-28.08
-31.38
-33.86
-34.98
-34.35
-31.87
-27.77
-22.66
-17.31
-12.38
-8.30
-5.10
-2.54
-0.31
1.84
3.95
5.92
7.58
8.78
9.52
9.88
10.05
10.24
10.62
11.25
12.04
12.81
13.33
13.48
13.23
12.71
12.08
11.41
10.73
9.97
9.11
8.21
7.38
6.62
5.83
4.74
3.12
0.89
-1.76
-4.45
-6.79
-8.58
-9.89
-11.00
-12.26
-13.99
-16.32
-19.24
-22.59
-26.08
-29.28
-31.68
-32.75
-32.10
-29.62
-25.53
-20.34
-14.69
-9.21
-4.34
-0.26
3.04
5.75
8.01
9.96
11.54
12.72
13.49
13.99
14.49
15.23
16.33
17.68
19.03
20.09
20.70
20.91
20.85
20.70
20.40
19.82
18.75
17.06
14.83
12.29
9.81
7.66
5.98
4.68
3.55
2.31
0.73
-1.28
-3.67
-6.24
-8.77
-11.06
-13.03
-14.84
-16.72
-19.03
-22.09
-26.00
-30.58
-35.28
-39.30
-41.78
-42.07
-39.95
-35.75
-30.22
-24.24
-18.58
-13.65
-9.49
-5.90
-2.57
0.67
3.92
7.12
10.19
13.00
15.40
17.27
18.54
19.25
19.65
20.00
20.55
21.40
22.44
23.46
24.18
24.44
24.22
23.59
22.73
21.78
20.82
19.88
18.92
17.87
16.69
15.31
13.74
12.00
10.17
8.30
6.47
4.78
3.26
1.91
0.61
-0.79
-2.48
-4.55
-7.01
-9.82
-12.94
-16.39
-20.23
-24.48
-28.99
-33.40
-37.13
-39.58
-40.22
-38.83
-35.58
-30.92
-25.55
-20.17
-15.27
-11.08
-7.51
-4.29
-1.14
2.13
5.55
8.90
11.89
14.27
15.96
17.09
17.93
18.76
19.76
20.95
22.24
23.54
24.79
25.97
27.02
27.80
28.13
27.86
26.99
25.68
24.22
22.85
21.69
20.74
19.85
18.87
17.68
16.24
14.55
12.65
10.63
8.58
6.52
4.49
2.41
0.19
-2.30
-5.14
-8.23
-11.40
-14.39
-17.03
-19.34
-21.56
-23.97
-26.84
-30.23
-34.01
-37.84
-41.23
-43.59
-44.36
-43.09
-39.65
-34.32
-27.78
-20.95
-14.64
-9.34
-5.08
-1.55
1.68
4.84
7.96
10.80
13.11
14.70
15.60
16.05
16.37
16.85
17.70
18.92
20.37
21.84
23.14
24.09
24.62
24.76
24.58
24.19
23.67
23.00
22.08
20.84
19.21
17.19
14.88
12.39
9.79
7.11
4.33
1.48
-1.35
-4.00
-6.32
-8.24
-9.83
-11.26
-12.74
-14.47
-16.53
-19.03
-22.05
-25.63
-29.72
-33.97
-37.73
-40.19
-40.61
-38.68
-34.68
-29.37
-23.68
-18.35
-13.75
-9.77
-6.14
-2.64
0.76
3.87
6.52
8.60
10.19
11.47
12.67
13.89
15.17
16.51
17.89
19.37
20.99
22.71
24.42
25.87
26.80
26.98
26.34
24.96
23.05
20.83
18.47
16.10
13.81
11.66
9.72
8.00
6.42
4.79
2.93
0.76
-1.66
-4.15
-6.50
-8.54
-10.28
-11.90
-13.68
-15.94
-18.94
-22.79
-27.43
-32.55
-37.66
-42.15
-45.35
-46.69
-45.83
-42.77
-37.91
-31.95
-25.70
-19.89
-14.95
-10.90
-7.40
-4.00
-0.35
3.60
7.63
11.35
14.43
16.76
18.47
19.84
21.13
22.43
23.66
24.65
25.27
25.55
25.59
25.55
25.47
25.29
24.87
24.10
23.04
21.83
20.69
19.77
19.10
18.51
17.70
16.42
14.51
12.06
9.33
6.64
4.23
2.08
0.00
-2.30
-5.04
-8.17
-11.47
-14.60
-17.33
-19.60
-21.57
-23.46
-25.56
-28.07
-31.12
-34.72
-38.68
-42.51
-45.44
-46.60
-45.35
-41.52
-35.61
-28.58
-21.47
-14.98
-9.29
-4.16
0.79
5.81
10.83
15.59
19.75
23.08
25.51
27.11
28.00
28.37
28.45
28.48
28.65
29.04
29.56
30.04
30.29
30.22
29.80
29.08
28.13
27.04
25.97
25.03
24.35
23.93
23.64
23.22
22.43
21.14
19.36
17.31
15.17
13.09
11.11
9.20
7.33
5.54
3.87
2.34
0.90
-0.53
-2.11
-3.94
-6.05
-8.42
-10.94
-13.51
-16.09
-18.68
-21.39
-24.31
-27.55
-31.16
-35.10
-39.21
-43.12
-46.29
-48.02
-47.70
-44.94
-39.83
-32.96
-25.29
-17.81
-11.25
-5.87
-1.50
2.28
5.86
9.42
12.92
16.17
19.00
21.37
23.33
24.95
26.25
27.12
27.45
27.26
26.71
26.11
25.67
25.49
25.41
25.19
24.59
23.57
22.20
20.64
19.00
17.33
15.60
13.79
11.92
10.06
8.26
6.58
5.09
3.85
2.93
2.29
1.77
1.11
0.04
-1.57
-3.68
-6.06
-8.41
-10.50
-12.28
-13.90
-15.61
-17.70
-20.37
-23.63
-27.32
-31.07
-34.34
-36.55
-37.14
-35.77
-32.42
-27.47
-21.62
-15.68
-10.32
-5.85
-2.14
1.17
4.47
7.88
11.26
14.26
16.55
18.04
18.91
19.51
20.17
21.05
22.11
23.19
24.17
25.04
25.83
26.58
27.27
27.75
27.84
27.38
26.35
24.86
23.17
21.55
20.25
19.32
18.63
17.91
16.91
15.42
13.48
11.26
8.97
6.80
4.86
3.13
1.54
-0.03
-1.72
-3.60
-5.66
-7.83
-9.97
-12.02
-13.99
-15.98
-18.16
-20.62
-23.46
-26.71
-30.38
-34.41
-38.55
-42.27
-44.85
-45.58
-44.05
-40.40
-35.26
-29.46
-23.77
-18.57
-13.93
-9.70
-5.70
-1.85
1.87
5.48
8.99
12.39
15.58
18.38
20.58
22.06
22.87
23.25
23.43
23.64
23.93
24.23
24.44
24.48
24.36
24.12
23.85
23.57
23.26
22.87
22.32
21.63
20.80
19.89
18.94
17.94
16.87
15.68
14.36
12.93
11.43
9.93
8.48
7.08
5.65
4.09
2.31
0.26
-1.96
-4.24
-6.42
-8.44
-10.34
-12.27
-14.33
-16.59
-19.02
-21.60
-24.39
-27.50
-31.02
-34.87
-38.66
-41.77
-43.46
-43.18
-40.73
-36.36
-30.74
-24.65
-18.82
-13.67
-9.33
-5.64
-2.36
0.76
3.82
6.76
9.46
11.73
13.54
14.93
16.01
16.90
17.64
18.22
18.55
18.64
18.57
18.56
18.81
19.40
20.25
21.08
21.57
21.49
20.76
19.49
17.91
16.24
14.63
13.12
11.67
10.23
8.73
7.15
5.54
3.92
2.36
0.85
-0.68
-2.31
-4.12
-6.10
-8.16
-10.13
-11.88
-13.35
-14.64
-15.90
-17.38
-19.28
-21.71
-24.65
-27.83
-30.78
-32.88
-33.54
-32.40
-29.51
-25.33
-20.54
-15.83
-11.68
-8.20
-5.32
-2.83
-0.57
1.55
3.54
5.42
7.18
8.79
10.23
11.48
12.54
13.54
14.59
15.76
17.02
18.26
19.38
20.30
20.99
21.45
21.63
21.45
20.86
19.85
18.55
17.09
15.70
14.52
13.63
12.99
12.51
11.98
11.22
10.08
8.51
6.59
4.49
2.40
0.44
-1.38
-3.13
-4.89
-6.71
-8.58
-10.40
-12.09
-13.54
-14.73
-15.74
-16.74
-17.97
-19.68
-21.98
-24.83
-27.99
-31.08
-33.67
-35.34
-35.78
-34.82
-32.47
-28.94
-24.61
-19.95
-15.43
-11.37
-7.93
-5.03
-2.51
-0.17
2.17
4.54
6.92
9.18
11.13
12.61
13.50
13.79
13.57
13.00
12.34
11.80
11.57
11.77
12.37
13.27
14.22
14.97
15.28
15.03
14.26
13.16
11.99
11.05
10.55
10.51
10.78
11.09
11.17
10.84
10.15
9.24
8.34
7.59
6.99
6.46
5.85
5.03
3.92
2.47
0.70
-1.33
-3.52
-5.71
-7.83
-9.87
-11.97
-14.35
-17.25
-20.75
-24.75
-28.85
-32.49
-34.99
-35.73
-34.38
-31.00
-26.09
-20.43
-14.84
-9.91
-5.87
-2.63
0.09
2.49
4.60
6.35
7.60
8.36
8.77
9.04
9.38
9.85
10.46
11.12
11.72
12.22
12.50
12.53
12.28
11.78
11.09
10.29
9.49
8.77
8.15
7.65
7.22
6.81
6.38
5.92
5.42
4.90
4.33
3.64
2.80
1.76
0.51
-0.95
-2.61
-4.50
-6.61
-8.89
-11.19
-13.32
-15.15
-16.65
-18.00
-19.43
-21.23
-23.53
-26.31
-29.33
-32.16
-34.20
-34.88
-33.78
-30.85
-26.44
-21.25
-16.09
-11.63
-8.18
-5.64
-3.70
-1.99
-0.29
1.42
2.97
4.17
4.88
5.07
4.82
4.28
3.68
3.17
2.86
2.76
2.83
2.97
3.10
3.14
3.06
2.88
2.67
2.61
2.86
3.64
5.02
6.98
9.34
11.78
14.02
15.79
17.00
17.66
17.87
17.74
17.36
16.75
15.84
14.59
13.03
11.31
9.64
8.21
7.07
6.11
5.10
3.79
2.11
0.10
-1.98
-3.93
-5.61
-7.10
-8.62
-10.34
-12.35
-14.63
-17.12
-19.77
-22.59
-25.52
-28.30
-30.43
-31.30
-30.48
-27.93
-24.08
-19.65
-15.40
-11.78
-8.88
-6.55
-4.54
-2.71
-1.00
0.58
2.01
3.35
4.66
5.93
7.19
8.45
9.74
11.10
12.54
13.95
15.14
15.91
16.12
15.79
15.05
14.12
13.20
12.36
11.62
10.89
10.11
9.22
8.25
7.27
6.43
5.80
5.42
5.23
5.05
4.68
3.97
2.86
1.39
-0.27
-1.95
-3.53
-4.99
-6.47
-8.09
-10.06
-12.52
-15.54
-19.08
-22.91
-26.58
-29.48
-31.05
-30.87
-28.92
-25.55
-21.38
-17.12
-13.31
-10.18
-7.69
-5.66
-3.91
-2.35
-0.96
0.28
1.45
2.69
4.16
5.90
7.79
9.58
11.00
11.82
11.99
11.58
10.85
10.04
9.37
8.94
8.66
8.33
7.71
6.71
5.40
4.05
2.94
2.22
1.79
1.41
0.76
-0.34
-1.86
-3.62
-5.37
-6.95
-8.29
-9.44
-10.51
-11.64
-13.00
-14.72
-16.86
-19.28
-21.70
-23.70
-24.77
-24.52
-22.73
-19.54
-15.36
-10.85
-6.65
-3.19
-0.56
1.44
3.14
4.77
6.36
7.76
8.79
9.38
9.57
9.47
9.22
8.86
8.47
8.10
7.87
7.93
8.37
9.16
10.15
11.13
11.89
12.26
12.19
11.69
10.85
9.77
8.55
7.21
5.72
3.99
1.98
-0.27
-2.63
-4.91
-6.97
-8.70
-10.10
-11.24
-12.23
-13.22
-14.38
-15.82
-17.53
-19.38
-21.03
-22.06
-22.07
-20.84
-18.40
-15.06
-11.36
-7.90
-5.15
-3.32
-2.29
-1.66
-0.97
0.14
1.71
3.55
5.32
6.77
7.85
8.66
9.40
10.15
10.87
11.46
11.85
12.09
12.35
12.77
13.32
13.79
13.85
13.24
11.88
9.98
7.94
6.16
4.92
4.24
3.91
3.60
2.93
1.65
-0.29
-2.70
-5.19
-7.31
-8.71
-9.33
-9.46
-9.63
-10.45
-12.32
-15.30
-19.03
-22.85
-25.91
-27.46
-26.98
-24.43
-20.22
-15.14
-10.08
-5.73
-2.45
-0.17
1.49
2.94
4.46
6.10
7.73
9.15
10.23
10.93
11.36
11.67
12.01
12.48
13.10
13.86
14.73
15.71
16.78
17.86
18.74
19.17
18.89
17.73
15.69
12.97
9.92
6.96
4.54
2.91
2.12
1.93
1.94
1.68
0.84
-0.58
-2.37
-4.22
-5.95
-7.55
-9.18
-11.07
-13.39
-16.26
-19.75
-23.84
-28.37
-32.95
-37.02
-39.90
-41.04
-40.29
-37.87
-34.38
-30.49
-26.75
-23.44
-20.65
-18.31
-16.39
-14.92
-13.93
-13.52
-13.65
-14.23
-15.08
-16.02
-16.92
-17.78
-18.64
-19.57
-20.63
-21.82
-23.15
-24.64
-26.33
-28.14
-29.83
-30.88
-30.62
-28.28
-23.25
-15.16
-4.03
9.76
25.48
42.10
58.44
73.41
86.17
96.40
104.28
110.29
114.95
118.38
120.24
119.85
116.51
109.84
99.94
87.32
72.81
57.31
41.66
26.59
12.63
0.10
-10.86
-20.28
-28.16
-34.44
-38.99
-41.69
-42.71
-42.48
-41.70
-41.08
-40.99
-41.15
-40.77
-38.72
-34.16
-26.87
-17.53
-7.39
2.15
10.10
16.16
20.60
23.84
26.08
27.15
26.63
24.25
20.13
14.87
9.33
4.28
0.22
-2.84
-5.18
-7.22
-9.33
-11.74
-14.41
-17.17
-19.73
-21.77
-23.03
-23.44
-23.05
-22.04
-20.74
-19.50
-18.60
-18.18
-18.22
-18.49
-18.73
-18.73
-18.35
-17.59
-16.41
-14.82
-12.76
-10.27
-7.45
-4.55
-1.89
0.29
1.91
3.01
3.78
4.36
4.86
5.37
5.92
6.56
7.24
7.87
8.34
8.56
8.62
8.75
9.28
10.53
12.67
15.67
19.32
23.29
27.21
30.74
33.60
35.62
36.68
36.82
36.19
34.99
33.47
31.81
30.18
28.60
27.00
25.19
22.90
19.79
15.63
10.32
3.96
-3.09
-10.31
-17.14
-22.95
-27.27
-29.74
-30.12
-28.37
-24.69
-19.52
-13.53
-7.52
-2.31
1.50
3.51
3.67
2.19
-0.51
-3.98
-7.75
-11.49
-15.04
-18.38
-21.60
-24.89
-28.53
-32.81
-38.04
-44.46
-52.25
-61.42
-71.88
-83.40
-95.71
-108.44
-121.16
-133.29
-144.15
-152.87
-158.54
-160.29
-157.47
-149.81
-137.53
-121.33
-102.35
-81.90
-61.28
-41.56
-23.42
-7.21
7.03
19.45
30.30
39.80
48.13
55.34
61.41
66.29
70.00
72.66
74.47
75.57
76.01
75.71
74.47
72.21
68.97
64.99
60.52
55.80
50.90
45.77
40.27
34.27
27.70
20.56
12.92
4.90
-3.39
-11.84
-20.41
-29.12
-37.97
-46.95
-55.97
-64.87
-73.39
-81.19
-87.81
-92.68
-95.21
-94.89
-91.44
-84.81
-75.16
-62.80
-48.08
-31.40
-13.29
5.56
24.34
42.27
58.83
73.86
87.52
100.12
111.86
122.73
132.45
140.56
146.60
150.15
150.97
148.97
144.29
137.34
128.74
119.17
109.26
99.45
89.86
80.47
71.12
61.79
52.56
43.69
35.48
28.23
22.07
16.98
12.82
9.40
6.49
3.94
1.60
-0.65
-3.00
-5.67
-8.94
-13.00
-17.85
-23.33
-29.17
-35.20
-41.45
-48.18
-55.62
-63.79
-72.29
-80.41
-87.31
-92.38
-95.40
-96.56
-96.28
-95.02
-93.08
-90.53
-87.26
-82.94
-77.00
-68.68
-57.17
-41.86
-22.61
0.13
25.28
51.28
76.29
98.62
116.85
130.14
138.16
141.05
139.24
133.33
123.98
111.94
98.08
83.38
68.82
55.25
43.28
33.18
24.89
18.17
12.77
8.49
5.15
2.58
0.58
-1.12
-2.77
-4.54
-6.45
-8.38
-10.07
-11.25
-11.74
-11.45
-10.45
-8.94
-7.13
-5.18
-3.17
-1.12
0.90
2.71
3.99
4.37
3.64
1.89
-0.52
-3.00
-5.00
-6.09
-6.12
-5.10
-3.16
-0.46
2.78
6.35
9.93
13.26
16.10
18.39
20.13
21.43
22.34
22.87
23.02
22.78
22.19
21.29
20.07
18.50
16.52
14.11
11.25
8.04
4.53
0.73
-3.44
-8.10
-13.33
-19.10
-25.22
-31.36
-37.16
-42.26
-46.46
-49.78
-52.41
-54.72
-57.00
-59.37
-61.73
-63.72
-64.98
-65.27
-64.60
-63.25
-61.69
-60.38
-59.60
-59.38
-59.46
-59.43
-58.75
-56.99
-53.91
-49.57
-44.31
-38.60
-32.90
-27.54
-22.68
-18.37
-14.63
-11.49
-8.96
-6.86
-4.91
-2.67
0.27
4.06
8.60
13.52
18.40
22.97
27.16
31.11
35.02
39.06
43.33
47.83
52.46
57.06
61.35
65.04
68.03
70.63
73.56
77.78
84.13
92.92
103.66
115.21
126.12
134.98
140.74
142.77
140.78
134.82
125.26
112.82
98.55
83.60
68.95
55.11
42.09
29.35
16.17
1.90
-13.73
-30.39
-47.20
-62.82
-75.88
-85.36
-90.92
-93.13
-93.17
-92.50
-92.28
-92.96
-94.15
-94.70
-93.03
-87.48
-76.79
-60.64
-40.22
-18.43
0.69
13.03
16.02
9.76
-2.84
-16.99
-27.89
-32.38
-29.76
-21.58
-10.45
1.00
10.91
18.24
22.55
23.81
22.29
18.77
14.36
10.31
7.64
6.71
6.97
7.02
5.06
-0.52
-10.51
-24.48
-40.81
-57.13
-71.08
-81.06
-86.66
-88.65
-88.53
-87.89
-87.84
-88.72
-90.22
-91.73
-92.73
-93.01
-92.69
-92.02
-91.09
-89.78
-87.76
-84.70
-80.39
-74.84
-68.21
-60.85
-53.18
-45.80
-39.30
-34.07
-30.07
-26.73
-23.10
-18.30
-12.00
-4.45
3.73
12.08
20.56
29.50
39.30
49.91
60.85
71.44
81.17
89.85
97.48
103.90
108.60
110.93
110.42
107.24
102.32
97.17
93.50
92.70
95.34
100.87
107.72
113.67
116.60
115.18
109.36
100.08
88.75
76.56
64.05
51.35
38.57
26.23
15.23
6.41
0.05
-4.33
-7.70
-11.04
-14.86
-18.96
-22.56
-24.79
-25.14
-23.74
-21.35
-19.10
-18.03
-18.79
-21.45
-25.54
-30.36
-35.25
-39.78
-43.70
-46.88
-49.13
-50.21
-49.94
-48.35
-45.80
-42.89
-40.26
-38.27
-36.89
-35.68
-33.97
-31.27
-27.40
-22.71
-17.85
-13.53
-10.27
-8.13
-6.94
-6.34
-6.08
-6.08
-6.48
-7.44
-9.02
-11.11
-13.48
-15.90
-18.22
-20.38
-22.25
-23.63
-24.15
-23.50
-21.58
-18.61
-15.14
-11.81
-9.15
-7.40
-6.48
-6.12
-6.02
-5.95
-5.71
-5.13
-4.01
-2.15
0.50
3.86
7.65
11.57
15.27
18.53
21.29
23.63
25.71
27.70
29.69
31.52
32.86
33.26
32.33
29.88
26.02
21.12
15.66
10.12
4.92
0.32
-3.50
-6.50
-8.66
-10.06
-10.79
-10.93
-10.54
-9.78
-8.84
-8.05
-7.76
-8.23
-9.55
-11.54
-13.79
-15.73
-16.76
-16.41
-14.45
-10.98
-6.35
-1.15
4.00
8.56
12.13
14.57
15.82
16.00
15.27
13.80
11.79
9.43
6.94
4.60
2.75
1.69
1.62
2.50
4.00
5.54
6.45
6.30
5.01
2.95
0.83
-0.56
-0.65
0.79
3.62
7.48
11.87
16.24
20.04
22.74
23.93
23.38
21.15
17.53
12.95
7.88
2.67
-2.36
-6.94
-10.74
-13.46
-14.98
-15.42
-15.17
-14.73
-14.59
-15.01
-15.95
-17.19
-18.40
-19.23
-19.46
-18.92
-17.48
-15.09
-11.78
-7.81
-3.71
-0.13
2.37
3.60
3.92
4.16
5.29
7.96
12.21
17.45
22.73
27.14
30.19
31.84
32.36
32.04
31.02
29.32
27.03
24.44
22.03
20.23
19.25
18.92
18.80
18.43
17.56
16.22
14.71
13.42
12.68
12.61
13.16
14.11
15.17
16.07
16.69
17.10
17.55
18.46
20.22
23.18
27.61
33.69
41.51
50.96
61.62
72.75
83.36
92.53
99.69
104.88
108.78
112.50
117.21
123.72
132.36
142.94
154.88
167.28
178.99
188.66
194.98
196.92
194.14
186.96
176.17
162.62
146.77
128.55
107.61
83.76
57.30
29.15
0.60
-27.07
-52.92
-76.40
-97.28
-115.49
-131.03
-143.92
-154.31
-162.54
-169.06
-174.48
-179.37
-184.23
-189.40
-195.07
-201.23
-207.66
-213.85
-219.03
-222.31
-222.77
-219.70
-212.75
-201.98
-187.82
-170.93
-152.15
-132.47
-112.97
-94.74
-78.63
-65.14
-54.21
-45.41
-38.15
-31.98
-26.74
-22.53
-19.39
-17.24
-15.72
-14.30
-12.45
-9.70
-5.66
0.03
7.66
17.33
28.81
41.47
54.53
67.28
79.33
90.68
101.55
112.03
121.85
130.38
136.77
140.26
140.37
136.96
130.14
120.04
106.77
90.35
70.84
48.38
23.20
-4.55
-34.71
-66.96
-100.53
-133.97
-165.41
-193.04
-215.93
-234.29
-249.29
-262.28
-273.87
-283.49
-289.48
-289.75
-282.48
-266.63
-242.16
-209.99
-172.05
-131.18
-90.66
-53.50
-21.51
5.22
28.09
49.13
69.76
90.21
109.53
126.36
139.87
150.08
157.76
163.82
168.79
172.71
175.48
177.41
179.38
182.74
188.75
197.91
209.65
222.43
234.09
242.46
245.78
242.98
233.70
218.20
197.30
172.25
144.63
116.07
88.04
61.61
37.28
15.18
-4.76
-22.41
-37.26
-48.50
-55.34
-57.43
-55.23
-50.00
-43.52
-37.48
-33.07
-30.69
-30.12
-30.90
-32.65
-35.15
-38.41
-42.42
-47.13
-52.45
-58.21
-64.27
-70.56
-77.17
-84.47
-93.23
-104.57
-119.79
-140.02
-165.73
-196.17
-228.98
-260.25
-285.22
-299.52
-300.59
-288.49
-265.95
-237.32
-207.01
-178.19
-152.40
-129.88
-110.31
-93.30
-78.51
-65.40
-53.07
-40.55
-27.11
-12.65
2.31
16.99
30.78
43.47
55.21
66.24
76.70
86.50
95.37
103.06
109.34
114.09
117.33
119.15
119.76
119.49
118.77
118.11
118.08
119.25
122.12
126.99
133.82
142.21
151.44
160.62
168.85
175.44
179.96
182.23
182.27
180.17
175.97
169.70
161.37
151.06
138.92
124.98
109.05
90.63
69.06
43.80
14.72
-17.60
-51.79
-85.98
-118.12
-146.37
-169.35
-186.28
-196.88
-201.26
-199.83
-193.18
-182.01
-167.09
-149.26
-129.43
-108.59
-87.86
-68.33
-51.08
-36.88
-26.03
-18.16
-12.23
-6.79
-0.35
8.18
19.14
32.04
45.79
59.08
70.81
80.43
88.03
94.04
98.99
103.19
106.61
108.99
110.01
109.43
107.14
103.10
97.28
89.70
80.54
70.23
59.49
49.16
40.00
32.43
26.46
21.75
17.74
13.86
9.65
4.89
-0.38
-5.82
-10.99
-15.43
-18.93
-21.60
-23.89
-26.43
-29.78
-34.30
-40.00
-46.66
-53.92
-61.41
-68.72
-75.49
-81.34
-86.00
-89.39
-91.65
-93.12
-94.11
-94.84
-95.29
-95.31
-94.77
-93.71
-92.35
-90.96
-89.82
-88.96
-88.25
-87.40
-86.14
-84.24
-81.50
-77.75
-72.83
-66.61
-59.14
-50.62
-41.44
-31.98
-22.52
-13.11
-3.65
6.00
15.89
25.89
35.72
45.16
54.11
62.57
70.63
78.28
85.36
91.57
96.55
100.03
102.01
102.74
102.77
102.75
103.26
104.52
106.32
108.01
108.88
108.45
106.70
104.20
101.76
100.13
99.75
100.72
102.94
106.17
110.03
113.97
117.26
119.24
119.62
118.73
117.38
116.48
116.45
116.93
116.90
115.20
111.15
104.94
97.51
90.10
83.67
78.49
74.17
69.86
64.73
58.18
50.11
40.71
30.30
19.09
7.18
-5.41
-18.55
-31.84
-44.68
-56.38
-66.49
-75.06
-82.59
-89.91
-97.82
-106.70
-116.42
-126.30
-135.46
-143.07
-148.58
-151.82
-152.93
-152.19
-150.01
-146.80
-142.91
-138.60
-134.04
-129.22
-124.04
-118.33
-111.95
-104.87
-97.20
-89.28
-81.52
-74.40
-68.28
-63.31
-59.43
-56.44
-54.16
-52.50
-51.44
-50.92
-50.75
-50.71
-50.59
-50.41
-50.35
-50.69
-51.62
-53.14
-55.18
-57.74
-60.99
-65.17
-70.40
-76.44
-82.63
-88.05
-91.79
-93.16
-91.72
-87.35
-80.13
-70.38
-58.55
-45.17
-30.61
-15.02
1.68
19.58
38.49
57.71
76.15
92.57
105.97
115.89
122.41
126.11
127.83
128.44
128.77
129.50
131.02
133.41
136.45
139.66
142.55
144.73
145.97
146.19
145.38
143.49
140.35
135.77
129.53
121.60
112.16
101.61
90.56
79.61
69.21
59.45
50.02
40.38
29.94
18.36
5.65
-7.89
-21.84
-35.85
-49.69
-63.20
-76.20
-88.31
-98.98
-107.67
-114.05
-118.17
-120.44
-121.44
-121.66
-121.19
-119.80
-117.03
-112.57
-106.50
-99.39
-92.17
-85.83
-81.06
-78.09
-76.65
-75.94
-74.89
-72.35
-67.38
-59.71
-50.07
-40.23
-32.57
-29.24
-31.22
-37.80
-46.84
-55.48
-61.25
-62.81
-60.12
-54.08
-45.91
-36.69
-27.23
-18.17
-10.09
-3.46
1.44
4.72
6.77
8.13
9.32
10.70
12.50
14.87
17.86
21.46
25.63
30.42
36.07
43.05
51.89
62.91
76.05
90.75
106.13
121.17
134.90
146.42
154.97
160.12
161.85
160.66
157.33
152.57
146.64
139.26
129.88
118.14
104.14
88.46
71.89
55.05
38.26
21.72
5.79
-8.81
-21.12
-30.39
-36.46
-39.95
-42.04
-43.89
-46.18
-48.80
-51.05
-52.04
-51.24
-48.67
-44.86
-40.50
-36.15
-32.02
-28.05
-24.16
-20.44
-17.18
-14.88
-13.94
-14.50
-16.38
-19.07
-22.05
-25.01
-27.94
-31.10
-34.73
-38.81
-42.85
-46.16
-48.10
-48.37
-47.21
-45.27
-43.35
-42.05
-41.63
-41.98
-42.68
-43.16
-42.87
-41.33
-38.33
-33.94
-28.53
-22.70
-17.17
-12.51
-9.03
-6.63
-4.85
-3.06
-0.70
2.35
5.71
8.56
10.10
9.95
8.53
6.86
6.18
7.33
10.32
14.40
18.40
21.23
22.26
21.43
19.06
15.51
10.99
5.52
-0.91
-8.20
-15.93
-23.53
-30.40
-36.18
-40.94
-45.18
-49.58
-54.74
-60.81
-67.45
-73.89
-79.30
-82.96
-84.54
-84.06
-81.77
-78.03
-73.20
-67.60
-61.49
-55.07
-48.38
-41.38
-34.00
-26.26
-18.35
-10.58
-3.40
2.86
8.00
12.08
15.33
18.13
20.91
23.98
27.55
31.54
35.61
39.30
42.14
43.83
44.30
43.66
42.03
39.35
35.41
29.92
22.70
13.85
3.72
-7.05
-17.72
-27.45
-35.46
-41.15
-44.16
-44.53
-42.77
-39.78
-36.65
-34.25
-32.91
-32.29
-31.61
-30.03
-27.07
-22.94
-18.27
-13.80
-10.02
-7.03
-4.71
-2.95
-1.78
-1.15
-0.67
0.55
3.67
9.55
18.37
29.39
41.39
53.18
64.22
74.57
84.81
95.44
106.58
117.92
128.87
138.58
146.07
150.13
149.57
143.61
132.39
117.25
100.40
84.16
70.02
58.11
47.28
35.89
22.62
6.95
-10.71
-29.57
-48.83
-67.80
-85.73
-101.59
-114.07
-121.94
-124.59
-122.30
-116.17
-107.64
-97.88
-87.41
-76.28
-64.35
-51.75
-39.05
-27.04
-16.48
-7.72
-0.71
4.81
9.16
12.51
15.07
17.17
19.39
22.40
26.76
32.65
39.89
48.08
56.79
65.68
74.47
82.75
89.92
95.12
97.48
96.31
91.30
82.61
70.86
56.95
42.19
28.16
16.62
9.29
7.37
11.21
20.01
32.08
45.36
58.11
69.32
78.66
85.92
90.49
91.19
86.71
76.52
61.56
44.25
27.77
14.84
6.83
3.57
3.72
5.17
5.37
1.53
-8.82
-26.90
-51.60
-79.18
-104.15
-121.35
-128.19
-125.71
-117.98
-110.01
-105.62
-106.11
-110.50
-116.53
-121.89
-124.89
-124.53
-120.45
-112.97
-103.09
-92.44
-83.00
-76.42
-73.50
-73.82
-75.69
-76.71
-74.46
-67.49
-56.25
-43.22
-32.44
-28.01
-32.42
-45.41
-64.08
-84.08
-101.34
-113.34
-119.42
-120.27
-117.01
-110.71
-102.37
-93.13
-84.35
-77.37
-73.01
-71.23
-71.12
-71.34
-70.66
-68.21
-63.72
-57.25
-48.84
-38.47
-25.95
-11.07
6.12
25.24
45.48
65.82
85.22
102.82
118.15
131.08
141.86
150.94
158.92
166.33
173.48
180.25
186.02
189.76
190.37
186.96
179.21
167.54
152.99
137.00
120.92
105.72
91.74
78.74
66.19
53.60
40.89
28.46
17.06
7.49
0.28
-4.43
-6.91
-7.67
-7.26
-6.21
-4.93
-3.74
-2.82
-2.26
-1.98
-1.83
-1.61
-1.16
-0.35
0.86
2.38
4.10
5.89
7.67
9.48
11.47
13.82
16.59
19.61
22.55
25.03
26.79
27.82
28.34
28.71
29.31
30.46
32.47
35.57
39.84
45.13
50.96
56.60
61.25
64.38
65.92
66.30
66.18
66.09
66.13
65.84
64.49
61.40
56.33
49.54
41.51
32.55
22.51
10.91
-2.67
-18.08
-34.36
-49.89
-62.88
-72.06
-77.03
-78.26
-76.71
-73.37
-68.95
-63.80
-58.06
-51.92
-45.61
-39.48
-33.80
-28.77
-24.38
-20.55
-17.14
-14.07
-11.37
-9.17
-7.60
-6.70
-6.33
-6.18
-5.92
-5.35
-4.46
-3.56
-3.07
-3.32
-4.42
-6.13
-8.04
-9.72
-10.94
-11.77
-12.55
-13.71
-15.66
-18.56
-22.30
-26.45
-30.36
-33.40
-35.00
-34.84
-32.88
-29.34
-24.67
-19.46
-14.29
-9.62
-5.70
-2.48
0.24
2.71
5.07
7.25
9.09
10.46
11.44
12.26
13.20
14.42
15.87
17.33
18.64
19.81
21.03
22.58
24.59
26.94
29.21
30.93
31.69
31.38
30.16
28.46
26.74
25.36
24.46
23.86
23.23
22.22
20.61
18.36
15.60
12.42
8.84
4.73
-0.05
-5.58
-11.80
-18.51
-25.48
-32.41
-38.86
-44.25
-47.79
-48.74
-46.58
-41.28
-33.39
-23.90
-14.07
-4.99
2.50
8.03
11.66
13.86
15.43
17.31
20.38
25.29
32.19
40.77
50.30
59.75
67.99
74.03
77.24
77.48
75.21
71.27
66.57
61.74
56.91
51.66
45.39
37.68
28.62
18.89
9.53
1.60
-4.23
-7.86
-9.82
-11.02
-12.41
-14.66
-17.94
-21.91
-26.01
-29.73
-32.92
-35.81
-38.80
-42.24
-46.14
-50.15
-53.64
-55.97
-56.59
-55.21
-51.80
-46.61
-40.09
-32.86
-25.58
-18.84
-13.03
-8.31
-4.62
-1.83
0.29
1.96
3.36
4.67
5.95
7.21
8.36
9.30
9.98
10.51
11.02
11.69
12.57
13.61
14.67
15.55
16.17
16.47
16.45
16.07
15.27
14.04
12.40
10.53
8.58
6.65
4.69
2.57
0.15
-2.54
-5.30
-7.79
-9.81
-11.37
-12.79
-14.58
-17.23
-20.92
-25.37
-29.88
-33.57
-35.57
-35.40
-33.06
-28.99
-23.86
-18.35
-13.03
-8.24
-4.14
-0.76
1.93
4.05
5.72
7.10
8.24
9.18
9.85
10.29
10.56
10.84
11.30
11.99
12.90
13.92
14.96
16.01
17.03
17.92
18.51
18.56
18.00
16.87
15.39
13.81
12.28
10.82
9.34
7.73
5.93
3.88
1.54
-1.03
-3.73
-6.32
-8.57
-10.35
-11.77
-13.20
-15.19
-18.15
-22.20
-27.01
-31.89
-35.95
-38.35
-38.52
-36.36
-32.18
-26.68
-20.69
-14.99
-10.05
-6.00
-2.67
0.24
2.98
5.66
8.18
10.32
11.89
12.83
13.19
13.18
13.04
12.96
13.10
13.44
13.91
14.36
14.62
14.57
14.20
13.52
12.57
11.38
9.91
8.08
5.87
3.33
0.55
-2.32
-5.21
-8.22
-11.52
-15.27
-19.49
-24.03
-28.62
-33.01
-37.07
-40.75
-44.05
-46.95
-49.41
-51.47
-53.36
-55.40
-57.80
-60.40
-62.64
-63.73
-63.02
-60.42
-56.42
-51.89
-47.65
-44.11
-41.16
-38.43
-35.69
-33.00
-30.68
-29.00
-27.77
-26.22
-23.29
-17.91
-9.57
1.56
14.72
28.88
43.05
56.44
68.45
78.57
86.35
91.56
94.30
95.04
94.47
93.18
91.49
89.44
86.86
83.60
79.62
75.04
70.07
64.94
59.85
55.07
50.92
47.77
45.95
45.61
46.56
48.30
50.16
51.45
51.71
50.86
49.20
47.33
45.98
45.79
47.15
50.08
54.13
58.39
61.73
63.07
61.90
58.42
53.43
47.95
42.62
37.43
31.78
24.82
15.99
5.39
-6.34
-18.31
-29.78
-40.45
-50.35
-59.62
-68.27
-76.07
-82.64
-87.65
-90.99
-92.83
-93.51
-93.43
-92.79
-91.56
-89.51
-86.28
-81.61
-75.45
-68.04
-59.89
-51.59
-43.66
-36.46
-30.24
-25.09
-21.15
-18.34
-16.51
-15.35
-14.54
-13.89
-13.35
-12.93
-12.46
-11.43
-9.16
-5.05
1.03
8.52
16.36
23.28
28.31
31.09
31.83
31.14
29.61
27.67
25.46
22.90
19.96
16.70
13.31
10.01
6.89
3.96
1.13
-1.58
-4.02
-5.83
-6.69
-6.37
-4.91
-2.55
0.34
3.43
6.52
9.63
13.02
17.03
21.97
27.92
34.67
41.75
48.62
54.87
60.40
65.43
70.32
75.31
80.29
84.66
87.45
87.60
84.29
77.22
66.79
54.00
40.20
26.71
14.42
3.48
-6.69
-17.18
-29.05
-42.82
-58.09
-73.65
-87.94
-99.69
-108.39
-114.37
-118.37
-121.03
-122.39
-121.98
-119.13
-113.64
-106.09
-97.78
-90.28
-84.81
-81.81
-80.94
-81.35
-82.06
-82.27
-81.46
-79.35
-75.79
-70.92
-65.28
-59.89
-56.04
-54.94
-57.23
-62.66
-70.16
-78.25
-85.44
-90.65
-93.34
-93.39
-90.92
-86.25
-79.77
-72.06
-63.82
-55.83
-48.72
-42.71
-37.53
-32.51
-26.82
-19.88
-11.54
-2.26
7.07
15.39
21.77
25.59
26.73
25.61
23.14
20.59
19.39
20.79
25.49
33.43
43.76
55.03
65.56
73.85
78.94
80.57
79.26
76.10
72.41
69.37
67.62
67.18
67.54
68.02
68.05
67.32
65.79
63.60
60.95
58.10
55.42
53.37
52.47
53.11
55.36
58.92
63.12
67.16
70.38
72.33
73.03
72.76
71.95
70.95
69.89
68.60
66.79
64.23
60.92
57.16
53.38
50.02
47.34
45.32
43.75
42.28
40.51
38.21
35.26
31.70
27.73
23.59
19.53
15.74
12.32
9.28
6.49
3.69
0.64
-2.72
-6.04
-8.64
-9.61
-8.27
-4.29
2.22
10.87
21.18
32.62
44.48
55.75
65.19
71.66
74.52
73.94
70.73
65.95
60.43
54.55
48.34
41.73
34.81
27.85
21.12
14.78
8.88
3.28
-2.11
-7.36
-12.47
-17.39
-22.07
-26.41
-30.38
-33.98
-37.20
-40.02
-42.30
-43.77
-44.14
-43.27
-41.28
-38.65
-36.07
-34.25
-33.65
-34.31
-35.81
-37.44
-38.41
-38.11
-36.35
-33.34
-29.60
-25.72
-22.08
-18.73
-15.44
-11.86
-7.78
-3.29
1.26
5.34
8.44
10.28
10.77
9.99
8.15
5.49
2.33
-0.88
-3.64
-5.53
-6.37
-6.42
-6.33
-6.93
-8.89
-12.50
-17.54
-23.45
-29.60
-35.37
-40.22
-43.67
-45.28
-44.81
-42.30
-38.25
-33.44
-28.70
-24.66
-21.54
-19.21
-17.38
-15.82
-14.38
-13.05
-11.80
-10.65
-9.61
-8.82
-8.52
-9.01
-10.46
-12.83
-15.80
-18.82
-21.29
-22.68
-22.64
-21.02
-17.86
-13.35
-7.87
-1.88
4.16
9.86
15.10
20.00
24.82
29.73
34.61
39.04
42.41
44.18
44.07
42.20
38.93
34.72
30.04
25.25
20.58
16.18
12.15
8.52
5.28
2.48
0.16
-1.49
-2.36
-2.39
-1.69
-0.51
0.84
2.14
3.26
4.19
4.93
5.39
5.52
5.27
4.77
4.27
3.98
4.00
4.19
4.14
3.44
1.82
-0.71
-3.83
-7.14
-10.31
-13.21
-15.91
-18.46
-20.79
-22.62
-23.58
-23.38
-21.97
-19.63
-16.80
-13.92
-11.24
-8.81
-6.51
-4.26
-2.12
-0.21
1.28
2.27
2.75
2.85
2.69
2.34
1.84
1.21
0.48
-0.26
-0.86
-1.16
-1.01
-0.26
1.16
3.20
5.61
8.08
10.20
11.69
12.48
12.65
12.47
12.19
11.98
11.89
11.85
11.69
11.28
10.53
9.43
8.06
6.48
4.76
2.88
0.79
-1.62
-4.45
-7.80
-11.63
-15.73
-19.70
-22.93
-24.77
-24.72
-22.64
-18.80
-13.83
-8.54
-3.56
0.78
4.48
7.71
10.58
13.07
14.99
16.17
16.59
16.47
16.19
16.07
16.27
16.67
16.95
16.78
15.94
14.50
12.72
11.03
9.87
9.48
9.86
10.74
11.67
12.14
11.83
10.66
8.89
7.02
5.57
4.88
4.95
5.49
6.05
6.25
5.88
4.99
3.86
2.82
2.27
2.53
3.79
5.95
8.53
10.70
11.48
10.14
6.52
1.19
-4.79
-10.26
-14.47
-17.25
-19.04
-20.57
-22.45
-25.05
-28.33
-32.07
-35.94
-39.67
-43.07
-46.05
-48.56
-50.58
-52.00
-52.66
-52.38
-51.00
-48.50
-45.05
-40.93
-36.48
-31.95
-27.43
-22.94
-18.50
-14.22
-10.29
-6.89
-4.11
-1.93
-0.12
1.55
3.31
5.24
7.27
9.18
10.68
11.53
11.62
11.07
10.07
8.87
7.57
6.17
4.57
2.69
0.59
-1.58
-3.60
-5.26
-6.42
-6.90
-6.54
-5.13
-2.58
1.00
5.16
9.30
12.78
15.18
16.37
16.56
16.14
15.47
14.89
14.55
14.47
14.62
14.97
15.50
16.24
17.25
18.56
20.10
21.72
23.17
24.18
24.58
24.31
23.46
22.15
20.45
18.40
16.01
13.31
10.41
7.55
4.97
2.92
1.47
0.58
0.05
-0.33
-0.61
-0.78
-0.80
-0.65
-0.43
-0.34
-0.52
-1.02
-1.81
-2.84
-4.12
-5.82
-8.16
-11.33
-15.39
-20.22
-25.55
-30.97
-35.94
-39.84
-42.14
-42.52
-40.98
-37.88
-33.78
-29.30
-24.97
-21.09
-17.83
-15.17
-12.93
-10.85
-8.63
-6.02
-2.96
0.38
3.73
6.84
9.59
12.01
14.14
15.80
16.70
16.43
14.78
11.87
8.19
4.41
1.13
-1.37
-3.06
-4.04
-4.35
-3.90
-2.53
-0.23
2.71
5.79
8.47
10.43
11.64
12.32
12.71
12.91
12.82
12.29
11.24
9.75
7.98
6.10
4.25
2.62
1.53
1.40
2.58
5.25
9.12
13.59
17.88
21.38
23.86
25.52
26.72
27.76
28.54
28.65
27.57
24.90
20.61
15.01
8.61
1.90
-4.78
-11.23
-17.25
-22.61
-26.99
-30.11
-31.79
-32.00
-30.94
-28.88
-26.11
-22.97
-19.80
-17.00
-15.01
-14.16
-14.64
-16.25
-18.47
-20.51
-21.64
-21.44
-19.99
-17.81
-15.59
-13.90
-13.00
-12.82
-13.15
-13.92
-15.21
-17.33
-20.56
-25.04
-30.61
-36.84
-43.09
-48.63
-52.89
-55.45
-56.24
-55.38
-53.10
-49.61
-45.03
-39.50
-33.28
-26.74
-20.41
-14.86
-10.45
-7.34
-5.42
-4.36
-3.78
-3.40
-3.13
-3.04
-3.37
-4.30
-5.84
-7.67
-9.22
-9.90
-9.28
-7.32
-4.31
-0.72
3.06
6.88
10.74
14.69
18.63
22.22
25.06
26.87
27.67
27.74
27.54
27.46
27.75
28.41
29.43
30.74
32.36
34.28
36.43
38.67
40.78
42.56
43.88
44.64
44.71
43.84
41.73
38.21
33.38
27.76
22.19
17.56
14.49
13.08
12.96
13.46
13.99
14.27
14.28
14.24
14.33
14.64
15.16
15.81
16.49
17.16
17.74
18.17
18.46
18.71
19.13
19.92
21.19
22.88
24.76
26.57
28.17
29.63
31.17
32.91
34.85
36.81
38.62
40.30
42.03
44.04
46.28
48.32
49.41
48.79
46.11
41.61
35.95
29.97
24.18
18.65
13.14
7.29
0.88
-6.10
-13.62
-21.67
-30.31
-39.48
-48.95
-58.20
-66.58
-73.52
-78.76
-82.27
-84.21
-84.71
-83.85
-81.62
-78.10
-73.44
-67.91
-61.74
-55.06
-47.99
-40.69
-33.46
-26.78
-21.16
-16.93
-14.15
-12.59
-11.79
-11.22
-10.41
-9.04
-6.94
-4.16
-0.82
2.86
6.70
10.54
14.25
17.71
20.73
23.01
24.20
23.99
22.28
19.32
15.71
12.29
9.78
8.59
8.62
9.42
10.42
11.26
11.86
12.38
12.92
13.44
13.68
13.36
12.38
10.95
9.42
8.14
7.26
6.71
6.35
6.13
6.13
6.51
7.29
8.32
9.23
9.64
9.36
8.46
7.20
5.91
4.74
3.68
2.61
1.46
0.25
-0.80
-1.46
-1.54
-1.00
0.03
1.34
2.67
3.84
4.75
5.45
6.08
6.77
7.57
8.42
9.17
9.68
9.87
9.77
9.49
9.16
8.82
8.40
7.71
6.50
4.61
2.06
-0.92
-3.99
-6.77
-9.02
-10.67
-11.79
-12.56
-13.19
-13.87
-14.81
-16.20
-18.13
-20.46
-22.77
-24.40
-24.70
-23.28
-20.14
-15.66
-10.43
-5.11
-0.23
3.79
6.60
7.90
7.53
5.52
2.23
-1.71
-5.54
-8.56
-10.29
-10.55
-9.43
-7.16
-4.01
-0.28
3.74
7.69
11.14
13.56
14.51
13.75
11.43
8.09
4.59
1.84
0.50
0.77
2.36
4.64
6.90
8.61
9.53
9.63
9.02
7.71
5.69
2.99
-0.25
-3.70
-7.01
-9.88
-12.26
-14.38
-16.61
-19.31
-22.69
-26.77
-31.29
-35.86
-39.96
-43.01
-44.43
-43.76
-40.80
-35.73
-29.16
-21.99
-15.17
-9.36
-4.85
-1.48
1.15
3.41
5.49
7.32
8.69
9.46
9.62
9.36
9.05
9.02
9.58
10.91
13.08
16.04
19.60
23.44
27.16
30.34
32.74
34.30
35.13
35.41
35.21
34.48
33.04
30.77
27.73
24.22
20.70
17.60
15.12
13.15
11.30
9.10
6.22
2.62
-1.48
-5.72
-9.85
-13.82
-17.81
-22.10
-26.87
-32.15
-37.84
-43.68
-49.37
-54.45
-58.28
-60.15
-59.41
-55.77
-49.41
-40.97
-31.38
-21.62
-12.47
-4.43
2.25
7.52
11.45
14.17
15.85
16.64
16.70
16.11
14.99
13.50
11.91
10.58
9.92
10.20
11.56
13.89
16.92
20.30
23.73
26.99
29.96
32.63
34.95
36.88
38.39
39.45
40.00
40.00
39.37
38.03
35.94
33.14
29.77
25.99
22.00
17.88
13.65
9.27
4.73
0.05
-4.80
-9.85
-15.22
-20.93
-26.86
-32.58
-37.47
-40.87
-42.33
-41.76
-39.41
-35.75
-31.31
-26.59
-22.00
-17.86
-14.37
-11.57
-9.30
-7.44
-5.91
-4.92
-4.76
-5.64
-7.40
-9.43
-10.86
-10.93
-9.34
-6.38
-2.78
0.61
3.10
4.34
4.32
3.27
1.55
-0.45
-2.39
-4.01
-5.17
-5.94
-6.50
-7.05
-7.80
-8.83
-10.11
-11.51
-12.88
-14.01
-14.67
-14.78
-14.33
-13.52
-12.74
-12.38
-12.76
-13.93
-15.78
-18.06
-20.57
-23.20
-25.95
-28.78
-31.47
-33.59
-34.59
-34.00
-31.56
-27.39
-21.91
-15.70
-9.37
-3.44
1.73
6.01
9.41
12.08
14.26
16.19
17.97
19.62
21.08
22.27
23.13
23.75
24.23
24.66
25.18
25.87
26.84
28.16
29.83
31.74
33.62
35.13
35.97
36.00
35.24
33.85
32.08
30.08
27.91
25.62
23.24
20.89
18.75
16.96
15.58
14.49
13.46
12.23
10.64
8.68
6.50
4.28
2.19
0.28
-1.54
-3.38
-5.34
-7.47
-9.76
-12.19
-14.71
-17.20
-19.45
-21.14
-21.81
-21.12
-18.89
-15.31
-10.85
-6.17
-1.83
1.87
4.96
7.80
10.78
14.22
18.15
22.30
26.29
29.79
32.69
35.19
37.67
40.51
43.99
48.13
52.70
57.39
61.83
65.79
69.13
71.82
73.87
75.28
76.08
76.19
75.47
73.54
69.85
63.74
54.78
43.07
29.49
15.50
2.71
-7.68
-15.42
-21.25
-26.55
-32.72
-40.61
-50.20
-60.67
-70.83
-79.63
-86.49
-91.45
-94.97
-97.68
-100.03
-102.23
-104.18
-105.62
-106.18
-105.51
-103.33
-99.47
-94.06
-87.64
-81.11
-75.55
-71.91
-70.63
-71.49
-73.70
-76.13
-77.74
-77.86
-76.25
-73.11
-68.87
-64.00
-58.93
-53.99
-49.34
-45.00
-40.83
-36.55
-31.91
-26.72
-20.95
-14.71
-8.26
-1.93
3.92
8.96
12.88
15.49
16.64
16.35
14.70
11.92
8.28
4.14
-0.16
-4.34
-8.28
-12.15
-16.31
-21.27
-27.43
-34.97
-43.70
-53.06
-62.29
-70.58
-77.31
-82.33
-85.95
-88.74
-91.11
-92.79
-92.50
-88.22
-77.99
-60.99
-38.16
-11.89
14.98
40.31
63.11
83.14
100.24
114.04
124.34
131.86
138.43
146.25
156.39
167.60
176.51
179.18
173.27
159.52
141.44
123.61
109.40
99.78
93.48
88.18
81.95
74.10
65.13
56.14
48.07
41.26
35.46
30.14
24.89
19.84
15.52
12.63
11.61
12.33
14.11
15.96
17.12
17.28
16.74
16.11
16.00
16.79
18.65
21.63
25.76
31.02
37.16
43.64
49.75
54.93
59.13
62.98
67.60
74.05
82.89
93.82
105.79
117.56
128.12
137.07
144.57
151.14
157.40
163.81
170.58
177.51
183.78
187.71
186.83
178.39
