1680508382.00
64.000000
-0.00
-0.00
-0.00
-0.00
-0.00
-0.00
-0.00
-0.00
-0.00
-0.00
0.00
0.01
0.01
-0.00
-0.03
-0.05
-0.05
0.00
0.13
0.36
0.66
1.01
1.37
1.72
2.06
2.40
2.79
3.24
3.80
4.42
5.06
5.66
6.20
6.68
7.15
7.68
8.31
9.14
10.09
11.04
11.88
12.56
13.14
13.76
14.65
15.96
17.91
20.32
22.90
25.38
27.58
29.57
31.68
34.32
37.81
42.54
48.15
54.10
59.83
64.97
69.58
74.14
79.34
85.71
93.76
103.00
112.62
121.73
129.77
136.75
143.30
150.75
157.77
166.64
177.95
191.79
206.97
220.57
228.25
225.36
208.53
176.87
132.76
80.05
23.07
-34.94
-92.44
-149.16
-205.23
-260.37
-313.74
-363.87
-409.83
-450.91
-486.50
-515.74
-537.23
-549.22
-549.96
-538.37
-514.21
-478.67
-433.88
-382.45
-327.02
-269.84
-212.63
-156.66
-102.95
-52.37
-5.90
35.58
71.43
101.35
125.50
144.38
158.69
169.15
176.37
180.75
182.57
182.07
179.51
175.23
169.65
163.18
156.15
148.81
141.30
133.69
126.02
118.33
110.69
103.16
95.81
88.69
81.83
75.24
68.95
62.95
57.25
51.87
46.80
42.05
37.59
33.41
29.52
25.91
22.59
19.57
16.85
14.41
12.24
10.30
8.57
7.03
5.68
4.52
3.55
2.77
2.14
1.62
1.16
0.72
0.29
-0.11
-0.44
-0.67
-0.78
-0.81
-0.84
-0.97
-1.23
-1.64
-2.10
-2.50
-2.73
-2.74
-2.62
-2.51
-2.61
-3.04
-3.79
-4.70
-5.52
-6.04
-6.14
-5.95
-5.73
-5.82
-6.45
-7.62
-9.12
-10.58
-11.65
-12.13
-12.08
-11.77
-11.61
-11.97
-13.18
-15.35
-18.23
-21.12
-22.89
-22.29
-18.42
-11.22
-1.65
8.50
17.23
22.97
25.15
24.30
21.67
18.71
16.47
15.39
15.27
15.56
15.78
15.67
15.36
15.19
15.46
16.28
17.55
18.96
20.23
21.20
21.81
22.12
22.14
21.78
20.82
19.02
16.15
12.17
7.32
1.90
-3.59
-8.65
-12.95
-16.49
-19.52
-22.37
-25.33
-28.42
-31.49
-34.32
-36.67
-38.13
-37.91
-34.65
-26.81
-13.36
5.47
27.70
50.04
69.07
82.41
89.57
91.66
90.51
87.48
83.06
77.07
69.35
60.47
51.69
44.45
39.64
37.17
36.23
35.97
36.04
36.64
38.46
42.11
47.71
54.74
62.11
68.65
73.44
76.21
77.01
76.46
75.56
75.49
77.40
82.23
90.63
102.84
118.46
135.72
151.95
163.99
169.14
165.98
154.84
137.41
115.45
93.12
72.68
54.75
38.62
23.09
7.37
-8.67
-24.66
-40.23
-55.51
-71.56
-89.67
-110.95
-136.15
-165.53
-198.74
-234.44
-269.90
-301.01
-323.53
-334.08
-331.50
-317.43
-295.65
-270.58
-245.64
-222.40
-200.76
-180.10
-160.08
-140.94
-123.25
-107.25
-92.58
-78.38
-63.89
-48.91
-34.01
-20.20
-8.47
0.75
7.70
13.12
17.84
22.46
27.01
31.02
33.78
34.80
34.02
31.94
29.43
27.36
26.32
26.39
27.18
28.01
28.23
27.44
25.65
23.18
20.57
18.28
16.58
15.46
14.67
13.88
12.82
11.41
9.77
8.15
6.77
5.70
4.78
3.71
2.15
-0.10
-2.99
-6.20
-9.22
-11.46
-12.44
-11.82
-9.54
-5.77
-0.90
4.52
9.96
14.96
19.20
22.58
25.09
26.79
27.75
28.03
27.75
27.01
25.96
24.68
23.18
21.40
19.27
16.89
14.47
12.38
10.93
10.31
10.45
11.13
12.03
12.88
13.55
13.95
14.05
13.83
13.21
12.19
10.75
8.95
6.89
4.71
2.53
0.51
-1.28
-2.79
-4.06
-5.16
-6.21
-7.38
-8.86
-10.80
-13.22
-15.95
-18.64
-20.74
-21.70
-21.08
-18.73
-14.81
-9.73
-4.08
1.61
6.89
11.52
15.37
18.42
20.60
21.85
22.12
21.45
20.01
18.05
15.84
13.61
11.48
9.51
7.74
6.23
5.11
4.49
4.44
4.89
5.67
6.50
7.13
7.33
7.00
6.17
4.97
3.58
2.17
0.84
-0.40
-1.63
-3.01
-4.73
-6.92
-9.64
-12.82
-16.31
-19.85
-23.20
-26.09
-28.26
-29.40
-29.23
-27.52
-24.20
-19.40
-13.47
-6.91
-0.28
5.92
11.30
15.61
18.69
20.52
21.17
20.80
19.62
17.88
15.78
13.54
11.34
9.38
7.84
6.84
6.44
6.59
7.12
7.84
8.53
9.01
9.17
8.99
8.52
7.80
6.88
5.74
4.31
2.54
0.39
-2.03
-4.55
-6.94
-9.03
-10.75
-12.28
-13.91
-15.99
-18.76
-22.18
-25.92
-29.41
-31.99
-33.11
-32.41
-29.77
-25.35
-19.47
-12.60
-5.28
1.90
8.38
13.77
17.86
20.64
22.29
23.02
23.02
22.38
21.09
19.12
16.53
13.51
10.44
7.79
5.97
5.18
5.38
6.25
7.37
8.31
8.82
8.82
8.38
7.63
6.70
5.66
4.50
3.22
1.81
0.30
-1.27
-2.87
-4.49
-6.17
-7.97
-9.97
-12.28
-14.99
-18.14
-21.65
-25.27
-28.56
-30.94
-31.83
-30.77
-27.60
-22.47
-15.84
-8.37
-0.78
6.31
12.40
17.24
20.73
22.93
23.93
23.87
22.90
21.20
19.00
16.56
14.11
11.84
9.93
8.49
7.63
7.43
7.89
8.89
10.19
11.50
12.52
13.04
12.97
12.36
11.33
9.99
8.39
6.49
4.23
1.62
-1.19
-3.92
-6.30
-8.21
-9.77
-11.32
-13.24
-15.77
-18.84
-22.07
-24.89
-26.70
-27.00
-25.50
-22.14
-17.07
-10.70
-3.64
3.43
9.88
15.26
19.39
22.30
24.12
24.97
24.88
23.92
22.19
19.93
17.45
15.09
13.10
11.58
10.55
9.93
9.66
9.69
10.00
10.54
11.18
11.78
12.16
12.19
11.75
10.78
9.32
7.44
5.27
2.98
0.70
-1.47
-3.55
-5.63
-7.90
-10.54
-13.60
-16.95
-20.21
-22.87
-24.41
-24.43
-22.77
-19.54
-15.02
-9.61
-3.76
2.10
7.59
12.34
16.10
18.72
20.14
20.39
19.61
17.98
15.77
13.33
11.02
9.10
7.76
7.02
6.82
7.07
7.64
8.40
9.17
9.81
10.21
10.32
10.14
9.68
8.93
7.85
6.39
4.57
2.44
0.14
-2.19
-4.51
-6.79
-9.13
-11.65
-14.43
-17.52
-20.90
-24.42
-27.76
-30.46
-31.94
-31.68
-29.31
-24.86
-18.68
-11.47
-4.04
2.89
8.82
13.56
17.14
19.69
21.28
21.97
21.78
20.80
19.23
17.35
15.45
13.73
12.32
11.29
10.71
10.65
11.13
12.05
13.16
14.13
14.65
14.58
14.00
13.11
12.13
11.20
10.28
9.24
7.90
6.11
3.85
1.22
-1.61
-4.38
-6.91
-9.13
-11.13
-13.16
-15.52
-18.43
-21.89
-25.64
-29.20
-31.99
-33.46
-33.18
-30.94
-26.74
-20.87
-13.80
-6.13
1.46
8.34
14.03
18.26
21.02
22.46
22.82
22.38
21.33
19.87
18.13
16.30
14.61
13.27
12.45
12.24
12.60
13.42
14.55
15.82
17.07
18.09
18.70
18.76
18.23
17.21
15.86
14.32
12.69
11.03
9.30
7.54
5.76
3.98
2.18
0.25
-1.89
-4.25
-6.70
-9.03
-11.00
-12.51
-13.68
-14.75
-16.09
-17.98
-20.56
-23.68
-27.02
-30.10
-32.35
-33.24
-32.38
-29.59
-24.96
-18.83
-11.76
-4.47
2.35
8.10
12.50
15.52
17.35
18.26
18.45
18.02
16.93
15.23
13.04
10.65
8.44
6.74
5.72
5.39
5.66
6.39
7.45
8.73
10.08
11.32
12.25
12.71
12.62
11.99
10.91
9.51
7.91
6.20
4.41
2.57
0.65
-1.37
-3.48
-5.65
-7.87
-10.16
-12.59
-15.25
-18.18
-21.32
-24.52
-27.68
-30.78
-34.00
-37.60
-41.74
-46.38
-51.16
-55.56
-59.03
-61.21
-61.94
-61.31
-59.56
-57.00
-53.96
-50.77
-47.69
-44.87
-42.31
-39.80
-37.03
-33.60
-29.16
-23.49
-16.40
-7.92
1.83
12.55
23.83
35.17
46.08
56.09
64.84
72.04
77.45
80.95
82.53
82.32
80.57
77.60
73.74
69.25
64.37
59.25
54.01
48.71
43.44
38.28
33.37
28.85
24.81
21.24
17.97
14.78
11.46
7.90
4.11
0.14
-3.97
-8.22
-12.57
-16.80
-20.53
-23.25
-24.43
-23.74
-21.14
-16.84
-11.28
-5.03
1.28
7.07
11.87
15.42
17.65
18.71
18.87
18.41
17.56
16.51
15.39
14.27
13.21
12.20
11.26
10.44
9.86
9.65
9.91
10.59
11.57
12.62
13.51
14.05
14.15
13.76
12.92
11.68
10.20
8.62
7.09
5.68
4.33
2.94
1.34
-0.53
-2.62
-4.80
-6.92
-8.89
-10.69
-12.36
-13.94
-15.50
-17.11
-18.84
-20.82
-23.09
-25.65
-28.31
-30.73
-32.51
-33.21
-32.55
-30.37
-26.72
-21.81
-15.99
-9.65
-3.21
2.89
8.26
12.56
15.55
17.14
17.43
16.71
15.38
13.84
12.42
11.29
10.46
9.85
9.40
9.08
8.97
9.16
9.72
10.61
11.73
12.88
13.86
14.53
14.80
14.66
14.09
13.11
11.73
10.06
8.21
6.41
4.84
3.58
2.61
1.77
0.86
-0.32
-1.86
-3.74
-5.80
-7.85
-9.67
-11.12
-12.17
-12.88
-13.41
-13.99
-14.86
-16.22
-18.14
-20.59
-23.36
-26.13
-28.52
-30.10
-30.51
-29.50
-26.93
-22.91
-17.72
-11.82
-5.75
-0.03
4.93
8.88
11.66
13.24
13.68
13.12
11.80
10.02
8.12
6.37
4.90
3.74
2.82
2.08
1.55
1.34
1.58
2.32
3.47
4.79
6.02
6.90
7.29
7.19
6.65
5.78
4.70
3.52
2.37
1.38
0.57
-0.12
-0.84
-1.70
-2.74
-3.86
-4.99
-6.07
-7.20
-8.48
-10.01
-11.74
-13.49
-15.07
-16.36
-17.39
-18.27
-19.15
-20.11
-21.19
-22.33
-23.48
-24.56
-25.45
-25.97
-25.81
-24.62
-22.14
-18.27
-13.23
-7.50
-1.78
3.29
7.26
10.01
11.70
12.63
13.07
13.17
12.91
12.25
11.17
9.78
8.26
6.80
5.52
4.48
3.70
3.21
3.10
3.44
4.25
5.43
6.75
7.93
8.67
8.77
8.16
6.89
5.10
2.97
0.62
-1.82
-4.28
-6.73
-9.12
-11.42
-13.56
-15.51
-17.22
-18.73
-20.11
-21.44
-22.77
-24.05
-25.09
-25.62
-25.30
-23.86
-21.21
-17.46
-12.84
-7.71
-2.38
2.88
7.81
12.14
15.65
18.18
19.68
20.25
20.07
19.32
18.09
16.43
14.46
12.38
10.55
9.28
8.74
8.86
9.35
9.87
10.14
10.09
9.79
9.38
9.00
8.62
8.13
7.38
6.23
4.66
2.76
0.77
-1.00
-2.30
-2.96
-3.07
-2.93
-2.91
-3.31
-4.21
-5.41
-6.55
-7.24
-7.20
-6.35
-4.74
-2.52
0.16
3.18
6.43
9.80
13.12
16.18
18.76
20.59
21.47
21.25
19.93
17.69
14.87
11.90
9.13
6.76
4.77
2.96
1.14
-0.82
-2.90
-4.93
-6.70
-8.07
-8.97
-9.50
-9.79
-10.06
-10.43
-11.01
-11.78
-12.65
-13.49
-14.19
-14.75
-15.27
-15.89
-16.75
-17.91
-19.24
-20.53
-21.46
-21.70
-20.97
-19.08
-15.96
-11.74
-6.72
-1.35
3.89
8.52
12.22
14.79
16.23
16.60
16.06
14.82
13.15
11.35
9.63
8.14
6.87
5.76
4.70
3.71
2.88
2.37
2.30
2.65
3.30
4.01
4.52
4.66
4.36
3.68
2.78
1.86
1.05
0.42
-0.13
-0.75
-1.61
-2.81
-4.34
-6.17
-8.19
-10.35
-12.63
-15.00
-17.45
-19.95
-22.54
-25.20
-27.87
-30.34
-32.24
-33.06
-32.38
-29.95
-25.85
-20.42
-14.22
-7.83
-1.81
3.43
7.64
10.74
12.87
14.21
15.05
15.59
15.99
16.34
16.70
17.06
17.38
17.59
17.60
17.38
17.04
16.80
16.90
17.48
18.46
19.58
20.48
20.88
20.65
19.88
18.70
17.31
15.83
14.31
12.80
11.27
9.73
8.15
6.55
4.94
3.39
1.93
0.57
-0.75
-2.12
-3.64
-5.35
-7.22
-9.20
-11.18
-13.07
-14.82
-16.40
-17.87
-19.36
-21.02
-23.00
-25.32
-27.84
-30.18
-31.78
-32.07
-30.59
-27.19
-22.05
-15.66
-8.65
-1.72
4.57
9.81
13.84
16.61
18.24
18.91
18.83
18.24
17.35
16.32
15.23
14.13
13.09
12.20
11.60
11.42
11.77
12.66
13.97
15.51
17.07
18.41
19.34
19.75
19.59
18.96
18.02
16.96
15.94
14.95
13.92
12.76
11.44
10.05
8.70
7.49
6.41
5.36
4.25
3.05
1.85
0.76
-0.13
-0.87
-1.62
-2.56
-3.81
-5.38
-7.17
-9.03
-10.82
-12.52
-14.16
-15.81
-17.53
-19.32
-21.21
-23.26
-25.59
-28.31
-31.36
-34.37
-36.70
-37.62
-36.51
-33.14
-27.74
-20.91
-13.43
-6.02
0.74
6.51
11.15
14.60
16.90
18.15
18.53
18.22
17.44
16.43
15.38
14.48
13.83
13.46
13.36
13.47
13.78
14.32
15.09
16.04
17.08
18.05
18.82
19.31
19.49
19.32
18.80
17.90
16.67
15.23
13.73
12.32
11.02
9.73
8.34
6.74
4.98
3.17
1.47
-0.07
-1.49
-2.92
-4.47
-6.20
-8.07
-10.00
-11.91
-13.70
-15.33
-16.78
-18.07
-19.25
-20.41
-21.69
-23.23
-25.16
-27.48
-30.02
-32.37
-33.97
-34.22
-32.66
-29.11
-23.77
-17.15
-9.93
-2.81
3.65
9.06
13.28
16.31
18.27
19.33
19.69
19.56
19.11
18.50
17.79
17.03
16.23
15.42
14.69
14.19
14.01
14.21
14.73
15.41
16.10
16.61
16.87
16.83
16.55
16.06
15.44
14.73
13.92
12.99
11.82
10.33
8.51
6.44
4.35
2.44
0.87
-0.41
-1.54
-2.70
-4.01
-5.47
-7.05
-8.71
-10.44
-12.25
-14.10
-15.84
-17.26
-18.27
-18.97
-19.68
-20.82
-22.68
-25.23
-28.13
-30.74
-32.38
-32.48
-30.74
-27.15
-22.01
-15.81
-9.15
-2.61
3.33
8.34
12.24
14.98
16.63
17.30
17.20
16.50
15.38
13.97
12.34
10.56
8.76
7.13
5.89
5.23
5.25
5.87
6.92
8.14
9.32
10.33
11.13
11.74
12.16
12.31
12.14
11.57
10.60
9.30
7.78
6.12
4.39
2.60
0.81
-0.87
-2.31
-3.38
-4.11
-4.64
-5.22
-6.10
-7.39
-9.05
-10.91
-12.75
-14.41
-15.85
-17.15
-18.49
-20.03
-21.91
-24.10
-26.35
-28.25
-29.25
-28.87
-26.75
-22.87
-17.49
-11.13
-4.42
2.02
7.67
12.19
15.41
17.30
17.97
17.62
16.51
14.91
13.06
11.16
9.35
7.74
6.39
5.35
4.65
4.33
4.43
4.99
5.98
7.30
8.80
10.24
11.40
12.11
12.32
12.05
11.40
10.53
9.50
8.37
7.11
5.67
4.03
2.21
0.28
-1.63
-3.47
-5.25
-7.06
-9.00
-11.05
-13.09
-14.95
-16.54
-17.92
-19.33
-21.00
-22.98
-25.08
-26.91
-28.00
-27.98
-26.64
-23.97
-20.06
-15.13
-9.43
-3.36
2.64
8.10
12.62
15.93
17.96
18.78
18.53
17.45
15.74
13.61
11.23
8.75
6.34
4.19
2.48
1.40
1.03
1.38
2.37
3.82
5.56
7.38
9.07
10.43
11.27
11.43
10.91
9.76
8.20
6.46
4.74
3.12
1.59
0.05
-1.61
-3.46
-5.46
-7.49
-9.41
-11.11
-12.59
-13.94
-15.33
-16.90
-18.72
-20.75
-22.87
-24.87
-26.51
-27.58
-27.83
-27.01
-24.91
-21.42
-16.64
-10.88
-4.63
1.53
7.06
11.57
14.86
16.90
17.82
17.77
16.97
15.59
13.83
11.87
9.86
7.93
6.19
4.75
3.71
3.15
3.11
3.54
4.35
5.40
6.51
7.51
8.26
8.65
8.67
8.31
7.66
6.77
5.68
4.43
3.07
1.63
0.17
-1.26
-2.68
-4.11
-5.59
-7.09
-8.57
-9.94
-11.20
-12.46
-13.91
-15.75
-18.01
-20.55
-23.01
-24.92
-25.81
-25.33
-23.32
-19.81
-15.07
-9.54
-3.78
1.69
6.45
10.30
13.23
15.33
16.72
17.45
17.51
16.88
15.54
13.58
11.18
8.56
6.07
4.07
2.87
2.64
3.38
4.86
6.71
8.54
9.97
10.78
10.87
10.32
9.29
8.00
6.65
5.32
3.99
2.60
1.06
-0.60
-2.35
-4.06
-5.69
-7.23
-8.66
-10.01
-11.27
-12.48
-13.74
-15.23
-17.10
-19.40
-21.94
-24.39
-26.25
-27.07
-26.46
-24.19
-20.27
-14.92
-8.65
-2.15
3.86
8.80
12.40
14.65
15.81
16.16
15.91
15.20
14.09
12.68
11.08
9.46
7.99
6.84
6.13
5.94
6.30
7.10
8.17
9.31
10.29
10.96
11.24
11.06
10.43
9.37
8.00
6.53
5.16
4.00
3.05
2.14
1.05
-0.36
-2.09
-4.00
-5.94
-7.79
-9.54
-11.23
-12.86
-14.40
-15.80
-17.09
-18.41
-19.97
-21.93
-24.23
-26.53
-28.26
-28.76
-27.48
-24.19
-19.05
-12.55
-5.43
1.53
7.65
12.47
15.81
17.74
18.52
18.43
17.79
16.73
15.34
13.63
11.64
9.54
7.57
5.98
5.00
4.72
5.12
6.06
7.39
8.89
10.33
11.49
12.16
12.25
11.83
11.05
10.14
9.24
8.37
7.43
6.28
4.83
3.10
1.18
-0.79
-2.71
-4.53
-6.30
-8.03
-9.75
-11.42
-13.04
-14.65
-16.36
-18.31
-20.58
-23.11
-25.62
-27.73
-28.97
-28.96
-27.48
-24.49
-20.12
-14.68
-8.57
-2.28
3.67
8.81
12.79
15.47
16.89
17.21
16.69
15.57
14.07
12.36
10.61
9.01
7.73
6.94
6.70
6.98
7.65
8.59
9.65
10.78
11.92
13.04
14.07
14.86
15.23
15.04
14.22
12.78
10.89
8.74
6.52
4.43
2.59
1.06
-0.18
-1.25
-2.36
-3.76
-5.56
-7.73
-10.02
-12.11
-13.74
-14.85
-15.61
-16.35
-17.39
-18.91
-20.89
-23.10
-25.15
-26.61
-27.04
-26.08
-23.51
-19.35
-13.90
-7.70
-1.41
4.34
9.09
12.60
14.84
15.90
15.93
15.12
13.67
11.80
9.80
7.90
6.33
5.18
4.45
4.17
4.37
5.14
6.55
8.54
10.85
13.05
14.72
15.60
15.66
15.11
14.22
13.17
11.97
10.57
8.91
7.07
5.20
3.41
1.67
-0.12
-2.14
-4.43
-6.88
-9.26
-11.29
-12.79
-13.74
-14.32
-14.83
-15.58
-16.83
-18.64
-20.85
-23.13
-25.05
-26.17
-26.17
-24.88
-22.26
-18.41
-13.54
-8.00
-2.19
3.43
8.43
12.54
15.61
17.64
18.73
19.01
18.62
17.68
16.29
14.56
12.66
10.84
9.38
8.53
8.46
9.11
10.27
11.65
12.98
14.12
15.03
15.68
16.00
15.89
15.23
14.03
12.45
10.74
9.18
7.88
6.76
5.62
4.25
2.51
0.40
-1.93
-4.30
-6.53
-8.52
-10.27
-11.86
-13.43
-15.17
-17.23
-19.63
-22.25
-24.77
-26.73
-27.67
-27.20
-25.21
-21.76
-17.13
-11.75
-6.05
-0.48
4.60
8.89
12.15
14.29
15.32
15.37
14.69
13.53
12.14
10.66
9.21
7.88
6.78
6.07
5.90
6.39
7.53
9.18
11.08
12.87
14.25
15.02
15.13
14.69
13.87
12.84
11.66
10.36
8.93
7.39
5.79
4.16
2.46
0.59
-1.58
-4.06
-6.71
-9.25
-11.39
-13.00
-14.17
-15.18
-16.43
-18.23
-20.68
-23.63
-26.67
-29.21
-30.63
-30.40
-28.25
-24.24
-18.74
-12.32
-5.64
0.78
6.53
11.35
15.02
17.39
18.42
18.23
17.13
15.56
13.91
12.39
11.05
9.77
8.49
7.28
6.33
5.89
6.08
6.89
8.13
9.54
10.86
11.91
12.57
12.74
12.39
11.54
10.27
8.73
7.06
5.39
3.77
2.12
0.32
-1.73
-4.05
-6.53
-8.95
-11.09
-12.84
-14.27
-15.65
-17.30
-19.49
-22.25
-25.37
-28.39
-30.81
-32.13
-32.06
-30.44
-27.33
-22.91
-17.46
-11.36
-5.09
0.87
6.03
10.08
12.83
14.35
14.85
14.62
13.88
12.80
11.41
9.74
7.85
5.94
4.29
3.20
2.89
3.47
4.82
6.73
8.88
10.98
12.77
14.07
14.80
14.95
14.54
13.67
12.41
10.82
8.98
6.96
4.86
2.79
0.77
-1.19
-3.15
-5.13
-7.12
-8.99
-10.67
-12.15
-13.57
-15.13
-17.00
-19.15
-21.32
-23.10
-24.05
-23.82
-22.25
-19.34
-15.23
-10.15
-4.44
1.54
7.32
12.48
16.66
19.64
21.30
21.72
21.09
19.70
17.89
15.94
14.06
12.31
10.72
9.30
8.10
7.23
6.81
6.91
7.49
8.38
9.39
10.29
10.90
11.13
10.95
10.40
9.55
8.44
7.08
5.44
3.51
1.36
-0.87
-3.00
-4.91
-6.53
-7.98
-9.41
-11.03
-12.98
-15.34
-18.01
-20.84
-23.48
-25.49
-26.38
-25.69
-23.19
-18.96
-13.42
-7.20
-1.00
4.61
9.25
12.74
15.11
16.47
16.97
16.77
15.99
14.75
13.22
11.53
9.88
8.47
7.45
6.95
7.01
7.59
8.60
9.88
11.29
12.62
13.72
14.45
14.71
14.49
13.88
12.97
11.87
10.67
9.35
7.88
6.21
4.36
2.36
0.32
-1.72
-3.75
-5.80
-7.92
-10.09
-12.32
-14.60
-17.00
-19.62
-22.52
-25.61
-28.63
-31.15
-32.65
-32.69
-31.01
-27.63
-22.82
-17.00
-10.70
-4.41
1.46
6.61
10.84
14.03
16.11
17.11
17.13
16.39
15.16
13.76
12.45
11.44
10.84
10.65
10.81
11.22
11.76
12.34
12.92
13.49
14.06
14.57
14.93
15.01
14.69
13.91
12.68
11.07
9.21
7.25
5.30
3.48
1.82
0.31
-1.10
-2.53
-4.06
-5.74
-7.58
-9.52
-11.56
-13.69
-15.95
-18.40
-21.07
-23.95
-26.97
-29.96
-32.63
-34.59
-35.36
-34.55
-31.95
-27.59
-21.78
-15.02
-7.86
-0.87
5.49
10.86
14.97
17.71
19.12
19.36
18.70
17.40
15.74
13.90
12.05
10.35
8.99
8.12
7.89
8.32
9.32
10.67
12.08
13.32
14.24
14.78
14.90
14.60
13.82
12.60
11.05
9.36
7.67
5.99
4.21
2.17
-0.19
-2.72
-5.12
-7.09
-8.49
-9.47
-10.40
-11.68
-13.55
-16.05
-18.99
-21.99
-24.59
-26.28
-26.64
-25.33
-22.26
-17.62
-11.86
-5.58
0.59
6.11
10.63
13.99
16.19
17.35
17.67
17.39
16.71
15.78
14.68
13.44
12.10
10.80
9.73
9.11
9.08
9.59
10.40
11.20
11.73
11.91
11.84
11.68
11.53
11.33
10.91
10.07
8.69
6.84
4.66
2.31
-0.13
-2.65
-5.25
-7.91
-10.52
-13.00
-15.28
-17.44
-19.56
-21.77
-24.10
-26.44
-28.50
-29.88
-30.12
-28.85
-25.87
-21.25
-15.32
-8.65
-1.89
4.34
9.58
13.59
16.35
18.02
18.82
19.00
18.69
17.96
16.82
15.29
13.48
11.58
9.82
8.40
7.45
7.04
7.18
7.84
8.96
10.38
11.83
13.01
13.63
13.53
12.75
11.44
9.80
8.01
6.13
4.19
2.15
0.01
-2.15
-4.24
-6.16
-7.89
-9.49
-11.14
-13.07
-15.42
-18.26
-21.45
-24.73
-27.73
-30.06
-31.36
-31.39
-29.97
-27.11
-22.95
-17.73
-11.86
-5.72
0.24
5.65
10.18
13.61
15.87
17.04
17.36
17.10
16.55
15.90
15.24
14.57
13.91
13.31
12.84
12.57
12.51
12.61
12.74
12.80
12.72
12.48
12.04
11.39
10.50
9.37
8.05
6.60
5.08
3.56
2.03
0.47
-1.15
-2.85
-4.63
-6.44
-8.22
-9.91
-11.50
-13.00
-14.54
-16.24
-18.20
-20.49
-23.03
-25.67
-28.11
-29.98
-30.85
-30.36
-28.21
-24.35
-19.02
-12.74
-6.13
0.16
5.65
10.04
13.24
15.29
16.36
16.63
16.30
15.51
14.40
13.04
11.52
9.94
8.48
7.35
6.73
6.74
7.35
8.46
9.84
11.24
12.39
13.02
12.99
12.29
11.07
9.55
7.95
6.36
4.72
2.92
0.89
-1.35
-3.66
-5.82
-7.70
-9.21
-10.45
-11.58
-12.84
-14.45
-16.55
-19.03
-21.61
-23.78
-24.95
-24.64
-22.62
-18.92
-13.87
-7.97
-1.75
4.25
9.59
13.93
17.06
18.89
19.48
19.00
17.72
15.91
13.81
11.64
9.59
7.84
6.52
5.73
5.46
5.63
6.10
6.74
7.47
8.27
9.13
10.00
10.77
11.32
11.53
11.35
10.78
9.82
8.50
6.81
4.80
2.58
0.26
-2.01
-4.18
-6.23
-8.25
-10.35
-12.62
-15.14
-17.87
-20.68
-23.31
-25.44
-26.65
-26.59
-25.01
-21.86
-17.32
-11.76
-5.70
0.36
5.96
10.75
14.52
17.18
18.73
19.27
19.00
18.17
17.01
15.65
14.17
12.58
10.93
9.38
8.17
7.50
7.48
8.02
8.86
9.74
10.40
10.71
10.62
10.11
9.21
7.97
6.45
4.74
2.90
0.97
-1.02
-3.09
-5.20
-7.29
-9.30
-11.18
-12.91
-14.55
-16.23
-18.08
-20.21
-22.65
-25.25
-27.69
-29.55
-30.35
-29.69
-27.42
-23.64
-18.71
-13.10
-7.31
-1.76
3.23
7.46
10.77
13.08
14.39
14.78
14.44
13.60
12.50
11.33
10.14
8.94
7.72
6.55
5.60
5.09
5.17
5.86
6.99
8.23
9.25
9.83
9.90
9.59
9.01
8.29
7.47
6.51
5.37
4.02
2.47
0.78
-1.03
-2.92
-4.87
-6.93
-9.14
-11.50
-14.01
-16.58
-19.07
-21.29
-23.03
-24.03
-24.05
-22.84
-20.25
-16.34
-11.36
-5.78
-0.17
4.95
9.18
12.34
14.44
15.55
15.83
15.44
14.54
13.30
11.90
10.48
9.13
7.97
7.01
6.30
5.88
5.80
6.06
6.62
7.41
8.28
9.07
9.61
9.78
9.48
8.70
7.47
5.90
4.12
2.23
0.34
-1.54
-3.43
-5.37
-7.42
-9.65
-12.11
-14.77
-17.54
-20.17
-22.36
-23.69
-23.86
-22.65
-20.06
-16.33
-11.80
-6.94
-2.13
2.28
6.10
9.24
11.65
13.34
14.32
14.62
14.30
13.51
12.43
11.29
10.23
9.37
8.72
8.28
8.05
8.06
8.31
8.75
9.24
9.59
9.64
9.31
8.59
7.53
6.19
4.62
2.86
0.96
-1.02
-2.99
-4.85
-6.53
-7.98
-9.23
-10.41
-11.70
-13.37
-15.59
-18.36
-21.42
-24.30
-26.42
-27.33
-26.80
-24.83
-21.60
-17.36
-12.37
-6.91
-1.30
4.06
8.77
12.52
15.12
16.64
17.29
17.37
17.11
16.61
15.86
14.80
13.43
11.92
10.53
9.53
9.11
9.23
9.68
10.18
10.53
10.65
10.59
10.38
10.03
9.40
8.36
6.83
4.84
2.57
0.18
-2.18
-4.51
-6.82
-9.11
-11.32
-13.38
-15.23
-16.96
-18.77
-20.81
-23.18
-25.78
-28.33
-30.43
-31.67
-31.72
-30.36
-27.57
-23.50
-18.47
-12.90
-7.22
-1.76
3.19
7.45
10.83
13.20
14.47
14.73
14.24
13.30
12.22
11.14
10.06
8.94
7.77
6.67
5.80
5.33
5.31
5.69
6.30
6.99
7.60
8.05
8.27
8.22
7.89
7.31
6.54
5.63
4.58
3.35
1.85
-0.00
-2.20
-4.67
-7.25
-9.73
-11.94
-13.82
-15.45
-17.03
-18.78
-20.74
-22.75
-24.39
-25.16
-24.57
-22.40
-18.71
-13.83
-8.25
-2.47
3.08
8.07
12.27
15.54
17.78
18.98
19.21
18.63
17.49
16.00
14.33
12.60
10.83
9.12
7.62
6.53
6.02
6.13
6.70
7.43
8.02
8.26
8.11
7.66
7.07
6.45
5.81
5.07
4.16
2.99
1.61
0.08
-1.49
-3.06
-4.72
-6.57
-8.78
-11.42
-14.40
-17.45
-20.14
-21.99
-22.62
-21.78
-19.46
-15.80
-11.13
-5.81
-0.31
4.94
9.53
13.15
15.58
16.80
16.91
16.16
14.87
13.32
11.72
10.20
8.78
7.49
6.36
5.50
5.06
5.14
5.73
6.72
7.90
9.02
9.90
10.41
10.50
10.14
9.33
8.10
6.45
4.47
2.26
-0.04
-2.34
-4.59
-6.80
-9.04
-11.40
-13.94
-16.67
-19.53
-22.39
-25.09
-27.36
-28.88
-29.30
-28.25
-25.53
-21.21
-15.63
-9.34
-2.98
2.90
7.89
11.81
14.59
16.28
17.02
16.99
16.40
15.46
14.37
13.25
12.19
11.23
10.41
9.74
9.27
9.00
8.95
9.11
9.46
9.97
10.57
11.16
11.58
11.64
11.20
10.17
8.61
6.65
4.44
2.12
-0.26
-2.72
-5.24
-7.80
-10.31
-12.69
-14.96
-17.23
-19.65
-22.25
-24.95
-27.42
-29.26
-30.04
-29.44
-27.37
-23.90
-19.28
-13.85
-8.08
-2.40
2.75
7.08
10.43
12.78
14.21
14.80
14.61
13.70
12.17
10.19
8.04
6.00
4.28
3.03
2.26
1.97
2.08
2.50
3.10
3.66
3.93
3.67
2.76
1.20
-0.89
-3.36
-6.08
-9.00
-12.12
-15.45
-18.98
-22.69
-26.50
-30.34
-34.17
-37.97
-41.83
-45.87
-50.23
-54.99
-60.06
-65.16
-69.85
-73.61
-75.99
-76.67
-75.52
-72.55
-67.91
-61.80
-54.46
-46.07
-36.81
-26.77
-16.02
-4.66
7.14
19.10
30.82
41.86
51.73
60.01
66.42
70.85
73.39
74.35
74.13
73.11
71.55
69.61
67.31
64.65
61.65
58.35
54.79
50.96
46.80
42.26
37.36
32.22
27.06
22.09
17.47
13.26
9.34
5.57
1.77
-2.12
-6.06
-9.83
-13.12
-15.53
-16.72
-16.43
-14.57
-11.23
-6.64
-1.20
4.62
10.28
15.29
19.23
21.87
23.14
23.19
22.28
20.74
18.86
16.88
14.90
12.94
10.99
9.06
7.29
5.85
4.93
4.64
4.94
5.68
6.64
7.56
8.22
8.48
8.20
7.36
6.01
4.27
2.32
0.32
-1.61
-3.48
-5.34
-7.30
-9.43
-11.79
-14.39
-17.22
-20.22
-23.25
-26.05
-28.18
-29.14
-28.49
-25.99
-21.72
-16.08
-9.67
-3.11
3.09
8.60
13.18
16.67
18.98
20.09
20.13
19.36
18.15
16.78
15.42
14.10
12.81
11.55
10.42
9.63
9.32
9.57
10.27
11.21
12.11
12.72
12.89
12.55
11.68
10.30
8.43
6.16
3.64
1.08
-1.30
-3.38
-5.18
-6.88
-8.66
-10.71
-13.10
-15.83
-18.86
-22.10
-25.42
-28.57
-31.16
-32.74
-32.91
-31.45
-28.41
-24.03
-18.68
-12.75
-6.61
-0.57
5.03
9.86
13.61
16.11
17.34
17.51
16.93
15.94
14.82
13.68
12.55
11.40
10.27
9.27
8.57
8.31
8.51
9.08
9.82
10.49
10.88
10.83
10.33
9.41
8.15
6.63
4.94
3.17
1.38
-0.36
-2.00
-3.54
-5.03
-6.55
-8.16
-9.86
-11.61
-13.38
-15.16
-17.05
-19.17
-21.59
-24.24
-26.85
-29.01
-30.22
-30.02
-28.12
-24.45
-19.23
-12.94
-6.19
0.37
6.21
11.00
14.62
17.10
18.54
19.04
18.71
17.69
16.17
14.37
12.47
10.67
9.13
7.98
7.33
7.22
7.62
8.39
9.33
10.25
10.98
11.45
11.62
11.49
11.01
10.13
8.82
7.08
4.99
2.69
0.36
-1.82
-3.76
-5.41
-6.90
-8.45
-10.32
-12.69
-15.59
-18.80
-21.89
-24.31
-25.59
-25.36
-23.49
-20.05
-15.24
-9.44
-3.11
3.21
8.96
13.67
17.06
19.07
19.86
19.67
18.78
17.38
15.63
13.66
11.63
9.77
8.27
7.29
6.87
6.93
7.39
8.13
9.07
10.14
11.21
12.07
12.51
12.36
11.60
10.34
8.77
7.09
5.36
3.54
1.51
-0.79
-3.33
-5.94
-8.45
-10.71
-12.71
-14.59
-16.59
-18.94
-21.78
-25.05
-28.46
-31.52
-33.71
-34.50
-33.56
-30.76
-26.28
-20.48
-13.92
-7.18
-0.81
4.78
9.34
12.80
15.18
16.63
17.28
17.29
16.79
15.90
14.71
13.32
11.88
10.56
9.61
9.18
9.33
9.99
10.97
12.05
13.02
13.77
14.21
14.31
14.05
13.49
12.72
11.82
10.88
9.91
8.79
7.34
5.37
2.77
-0.40
-3.95
-7.58
-10.95
-13.81
-16.05
-17.75
-19.16
-20.58
-22.18
-23.95
-25.60
-26.70
-26.75
-25.42
-22.60
-18.45
-13.30
-7.60
-1.79
3.73
8.60
12.54
15.37
17.03
17.59
17.21
16.13
14.58
12.82
11.03
9.35
7.89
6.71
5.89
5.49
5.59
6.19
7.20
8.42
9.57
10.39
10.74
10.64
10.18
9.51
8.70
7.72
6.49
4.97
3.20
1.30
-0.61
-2.45
-4.24
-6.09
-8.10
-10.29
-12.62
-14.98
-17.27
-19.49
-21.76
-24.20
-26.87
-29.63
-32.10
-33.73
-33.94
-32.36
-28.89
-23.78
-17.57
-10.86
-4.27
1.75
6.88
10.95
13.88
15.68
16.38
16.10
15.07
13.57
11.89
10.24
8.71
7.29
5.99
4.86
4.08
3.87
4.38
5.56
7.14
8.73
9.99
10.75
11.04
11.01
10.80
10.43
9.84
8.93
7.60
5.86
3.76
1.41
-1.09
-3.60
-5.99
-8.10
-9.85
-11.26
-12.54
-14.01
-15.92
-18.40
-21.26
-24.11
-26.37
-27.52
-27.14
-25.10
-21.48
-16.62
-10.99
-5.12
0.51
5.56
9.86
13.37
16.11
18.05
19.14
19.35
18.66
17.24
15.29
13.12
10.96
9.01
7.42
6.27
5.65
5.60
6.09
7.00
8.08
9.05
9.64
9.71
9.23
8.32
7.15
5.85
4.51
3.09
1.52
-0.25
-2.21
-4.30
-6.44
-8.55
-10.65
-12.83
-15.24
-18.00
-21.07
-24.24
-27.04
-28.90
-29.28
-27.84
-24.58
-19.79
-13.97
-7.68
-1.42
4.46
9.66
13.96
17.20
19.29
20.30
20.42
19.93
19.10
18.13
17.08
15.89
14.55
13.09
11.70
10.61
10.03
10.02
10.52
11.30
12.05
12.49
12.47
12.00
11.16
10.12
8.98
7.78
6.48
5.03
3.38
1.54
-0.43
-2.47
-4.52
-6.55
-8.57
-10.62
-12.79
-15.18
-17.90
-20.98
-24.29
-27.57
-30.43
-32.45
-33.27
-32.68
-30.62
-27.17
-22.49
-16.82
-10.53
-4.06
2.12
7.60
12.10
15.52
17.87
19.23
19.68
19.34
18.33
16.86
15.12
13.32
11.63
10.19
9.07
8.34
8.04
8.17
8.65
9.32
10.00
10.49
10.67
10.50
10.00
9.21
8.20
7.01
5.68
4.18
2.48
0.56
-1.56
-3.81
-6.08
-8.29
-10.37
-12.32
-14.17
-16.02
-18.00
-20.20
-22.68
-25.35
-28.00
-30.33
-31.94
-32.48
-31.67
-29.38
-25.62
-20.57
-14.54
-8.01
-1.54
4.34
9.23
12.94
15.51
17.11
17.88
17.90
17.18
15.75
13.78
11.54
9.42
7.75
6.70
6.23
6.22
6.48
6.91
7.44
8.04
8.68
9.28
9.75
9.98
9.87
9.34
8.40
7.11
5.60
3.97
2.28
0.54
-1.31
-3.27
-5.33
-7.39
-9.41
-11.37
-13.36
-15.49
-17.84
-20.35
-22.83
-24.95
-26.33
-26.61
-25.57
-23.13
-19.35
-14.46
-8.83
-2.89
2.87
8.03
12.26
15.41
17.49
18.63
18.97
18.60
17.59
15.97
13.86
11.53
9.34
7.66
6.74
6.67
7.27
8.28
9.38
10.35
11.06
11.44
11.44
11.07
10.36
9.41
8.34
7.19
5.89
4.30
2.31
-0.10
-2.79
-5.56
-8.24
-10.83
-13.44
-16.21
-19.20
-22.25
-25.08
-27.36
-28.72
-28.88
-27.62
-24.81
-20.48
-14.87
-8.43
-1.71
4.69
10.32
14.85
18.16
20.20
21.08
20.95
20.06
18.71
17.17
15.63
14.20
12.88
11.70
10.75
10.14
10.03
10.43
11.25
12.23
13.06
13.48
13.31
12.56
11.31
9.76
8.10
6.45
4.88
3.32
1.68
-0.11
-2.08
-4.23
-6.49
-8.84
-11.27
-13.77
-16.33
-18.97
-21.71
-24.60
-27.60
-30.54
-33.06
-34.68
-34.88
-33.27
-29.75
-24.57
-18.22
-11.37
-4.62
1.56
6.91
11.29
14.67
17.02
18.31
18.59
18.03
16.93
15.61
14.34
13.23
12.28
11.42
10.68
10.18
10.10
10.59
11.63
13.01
14.44
15.60
16.29
16.42
16.08
15.39
14.46
13.36
12.04
10.42
8.41
5.96
3.10
-0.09
-3.47
-6.87
-10.08
-12.87
-15.10
-16.78
-18.10
-19.38
-20.99
-23.17
-25.95
-29.06
-32.06
-34.38
-35.47
-34.92
-32.51
-28.29
-22.59
-15.94
-8.96
-2.25
3.78
8.90
13.06
16.29
18.61
20.02
20.53
20.14
18.97
17.19
15.09
12.95
11.05
9.60
8.70
8.36
8.51
9.04
9.85
10.81
11.78
12.61
13.15
13.28
12.98
12.31
11.35
10.22
8.95
7.53
5.94
4.16
2.25
0.27
-1.71
-3.64
-5.52
-7.39
-9.31
-11.33
-13.52
-15.91
-18.54
-21.35
-24.20
-26.83
-28.87
-29.94
-29.72
-28.00
-24.79
-20.26
-14.73
-8.59
-2.28
3.81
9.28
13.80
17.13
19.17
20.01
19.83
18.89
17.40
15.55
13.49
11.47
9.75
8.60
8.18
8.43
9.16
10.10
11.05
11.91
12.64
13.20
13.48
13.33
12.62
11.38
9.73
7.86
5.95
4.07
2.18
0.17
-2.04
-4.43
-6.88
-9.28
-11.51
-13.62
-15.76
-18.10
-20.71
-23.46
-26.05
-28.02
-28.93
-28.49
-26.53
-23.09
-18.29
-12.43
-5.91
0.74
6.96
12.29
16.42
19.32
21.10
21.93
21.96
21.31
20.07
18.37
16.37
14.29
12.34
10.70
9.52
8.88
8.81
9.26
10.09
11.09
12.03
12.73
13.05
12.95
12.43
11.53
10.28
8.72
6.94
5.00
2.96
0.86
-1.24
-3.29
-5.22
-7.00
-8.68
-10.34
-12.16
-14.29
-16.86
-19.87
-23.18
-26.51
-29.49
-31.70
-32.72
-32.20
-29.95
-25.96
-20.50
-14.01
-7.12
-0.43
5.55
10.51
14.30
16.96
18.54
19.16
18.88
17.85
16.29
14.45
12.61
10.99
9.72
8.83
8.35
8.31
8.71
9.54
10.70
12.02
13.25
14.19
14.68
14.70
14.30
13.56
12.58
11.36
9.88
8.10
6.00
3.61
1.06
-1.54
-4.08
-6.55
-8.95
-11.31
-13.61
-15.87
-18.10
-20.38
-22.83
-25.49
-28.27
-30.86
-32.81
-33.63
-32.95
-30.59
-26.61
-21.30
-15.06
-8.38
-1.74
4.40
9.68
13.86
16.82
18.60
19.35
19.29
18.66
17.61
16.21
14.52
12.61
10.66
8.91
7.63
7.00
7.08
7.79
8.96
10.36
11.76
12.94
13.67
13.84
13.41
12.47
11.20
9.75
8.20
6.52
4.66
2.58
0.33
-1.98
-4.23
-6.39
-8.46
-10.48
-12.46
-14.36
-16.16
-17.90
-19.72
-21.75
-24.09
-26.68
-29.26
-31.43
-32.72
-32.70
-31.05
-27.68
-22.77
-16.69
-10.05
-3.45
2.58
7.67
11.68
14.60
16.48
17.41
17.48
16.81
15.60
14.04
12.35
10.66
9.05
7.66
6.63
6.11
6.20
6.85
7.88
8.99
9.91
10.46
10.63
10.47
10.09
9.52
8.77
7.81
6.67
5.35
3.92
2.41
0.83
-0.88
-2.75
-4.79
-6.93
-9.10
-11.19
-13.20
-15.19
-17.30
-19.62
-22.12
-24.58
-26.66
-27.89
-27.89
-26.37
-23.27
-18.72
-13.06
-6.72
-0.22
5.88
11.15
15.27
18.12
19.76
20.35
20.15
19.36
18.15
16.64
14.95
13.20
11.55
10.12
9.05
8.41
8.25
8.56
9.26
10.22
11.26
12.15
12.73
12.90
12.63
11.97
10.98
9.76
8.31
6.67
4.79
2.67
0.34
-2.15
-4.65
-7.06
-9.31
-11.48
-13.70
-16.17
-18.99
-22.10
-25.29
-28.20
-30.45
-31.64
-31.44
-29.62
-26.10
-20.98
-14.60
-7.48
-0.27
6.39
11.99
16.22
19.01
20.52
21.01
20.78
20.05
18.94
17.48
15.74
13.81
11.98
10.52
9.68
9.55
10.01
10.85
11.78
12.62
13.24
13.57
13.58
13.25
12.61
11.68
10.55
9.27
7.88
6.40
4.80
3.11
1.31
-0.62
-2.72
-4.99
-7.39
-9.78
-12.00
-13.94
-15.65
-17.30
-19.12
-21.26
-23.71
-26.32
-28.80
-30.86
-32.15
-32.37
-31.20
-28.43
-24.07
-18.37
-11.81
-4.96
1.66
7.68
12.88
17.07
20.07
21.73
21.99
21.01
19.16
16.92
14.74
12.89
11.49
10.47
9.77
9.36
9.24
9.42
9.86
10.50
11.25
12.01
12.72
13.31
13.73
13.89
13.70
13.09
12.07
10.70
9.08
7.30
5.42
3.42
1.25
-1.16
-3.78
-6.53
-9.24
-11.71
-13.84
-15.69
-17.45
-19.38
-21.67
-24.32
-27.15
-29.87
-32.15
-33.65
-34.09
-33.18
-30.69
-26.51
-20.78
-13.92
-6.57
0.54
6.82
11.90
15.72
18.34
19.91
20.55
20.35
19.45
18.02
16.35
14.68
13.23
12.08
11.22
10.59
10.16
9.95
10.05
10.52
11.30
12.23
13.05
13.44
13.25
12.42
11.12
9.56
7.94
6.36
4.76
3.08
1.24
-0.74
-2.77
-4.77
-6.70
-8.61
-10.59
-12.67
-14.84
-17.00
-19.11
-21.16
-23.25
-25.46
-27.80
-30.19
-32.42
-34.21
-35.27
-35.29
-33.99
-31.17
-26.81
-21.10
-14.43
-7.35
-0.41
5.92
11.32
15.57
18.59
20.37
21.01
20.68
19.62
18.06
16.24
14.33
12.49
10.84
9.50
8.58
8.12
8.12
8.54
9.28
10.19
11.07
11.74
12.02
11.82
11.17
10.15
8.93
7.64
6.31
4.94
3.44
1.76
-0.11
-2.10
-4.15
-6.20
-8.28
-10.48
-12.92
-15.69
-18.76
-22.00
-25.12
-27.78
-29.57
-30.18
-29.35
-26.96
-23.07
-17.91
-11.87
-5.42
0.92
6.68
11.55
15.32
17.96
19.54
20.21
20.16
19.53
18.43
16.96
15.25
13.49
11.95
10.89
10.44
10.57
11.09
11.77
12.42
13.01
13.56
14.06
14.42
14.47
14.03
13.02
11.47
9.53
7.32
4.95
2.47
-0.03
-2.43
-4.65
-6.65
-8.50
-10.35
-12.35
-14.58
-17.06
-19.75
-22.60
-25.51
-28.29
-30.61
-32.00
-31.98
-30.22
-26.62
-21.39
-14.96
-7.86
-0.63
6.21
12.20
16.97
20.27
22.05
22.53
22.09
21.13
20.00
18.81
17.51
16.04
14.39
12.73
11.34
10.50
10.32
10.73
11.55
12.48
13.34
14.04
14.50
14.62
14.28
13.36
11.81
9.76
7.46
5.20
3.16
1.33
-0.45
-2.41
-4.69
-7.26
-9.95
-12.55
-14.91
-17.06
-19.13
-21.33
-23.78
-26.46
-29.18
-31.58
-33.22
-33.68
-32.63
-29.91
-25.58
-19.90
-13.32
-6.37
0.42
6.57
11.71
15.58
18.07
19.28
19.43
18.88
17.99
17.00
16.02
15.06
14.05
13.00
11.99
11.16
10.64
10.51
10.76
11.31
12.00
12.67
13.17
13.39
13.29
12.86
12.17
11.22
10.00
8.49
6.63
4.45
2.04
-0.48
-2.99
-5.44
-7.81
-10.11
-12.32
-14.40
-16.32
-18.14
-20.00
-22.08
-24.55
-27.40
-30.44
-33.24
-35.28
-36.06
-35.20
-32.54
-28.14
-22.27
-15.39
-8.03
-0.76
5.87
11.43
15.64
18.37
19.70
19.81
18.98
17.48
15.59
13.51
11.39
9.38
7.60
6.16
5.17
4.70
4.77
5.35
6.37
7.71
9.17
10.54
11.58
12.14
12.14
11.65
10.82
9.81
8.72
7.58
6.28
4.73
2.83
0.64
-1.71
-4.08
-6.32
-8.43
-10.50
-12.65
-14.99
-17.52
-20.18
-22.86
-25.44
-27.73
-29.47
-30.29
-29.75
-27.51
-23.49
-17.93
-11.40
-4.61
1.82
7.44
12.06
15.64
18.19
19.71
20.19
19.70
18.42
16.66
14.75
12.96
11.47
10.37
9.69
9.48
9.76
10.48
11.48
12.50
13.31
13.74
13.74
13.37
12.70
11.80
10.68
9.29
7.63
5.69
3.49
1.08
-1.46
-4.03
-6.53
-8.89
-11.13
-13.33
-15.64
-18.18
-20.99
-24.02
-27.06
-29.76
-31.70
-32.38
-31.42
-28.59
-23.97
-17.91
-10.97
-3.76
3.13
9.24
14.27
18.06
20.59
22.00
22.49
22.33
21.69
20.68
19.34
17.69
15.87
14.11
12.67
11.74
11.38
11.51
12.00
12.67
13.34
13.87
14.10
13.94
13.35
12.40
11.23
9.92
8.51
6.96
5.22
3.26
1.13
-1.11
-3.37
-5.59
-7.75
-9.86
-11.96
-14.12
-16.44
-19.04
-21.98
-25.21
-28.53
-31.61
-34.01
-35.26
-34.96
-32.85
-28.88
-23.27
-16.47
-9.08
-1.72
5.02
10.74
15.20
18.30
20.11
20.79
20.56
19.70
18.44
16.99
15.45
13.91
12.47
11.28
10.53
10.42
11.02
12.27
13.88
15.50
16.74
17.33
17.15
16.28
14.89
13.22
11.48
9.79
8.16
6.54
4.80
2.85
0.59
-1.98
-4.84
-7.86
-10.87
-13.67
-16.16
-18.34
-20.44
-22.75
-25.51
-28.73
-32.08
-34.98
-36.78
-36.98
-35.31
-31.79
-26.64
-20.18
-12.88
-5.26
2.06
8.52
13.69
17.39
19.67
20.76
20.90
20.31
19.15
17.53
15.57
13.44
11.34
9.49
8.05
7.16
6.89
7.22
8.08
9.25
10.46
11.43
11.93
11.86
11.24
10.20
8.91
7.51
6.08
4.63
3.10
1.44
-0.41
-2.48
-4.74
-7.11
-9.49
-11.80
-13.97
-16.00
-17.99
-20.07
-22.34
-24.86
-27.57
-30.23
-32.44
-33.68
-33.43
-31.29
-27.12
-21.10
-13.72
-5.69
2.25
9.43
15.34
19.70
22.47
23.74
23.78
22.86
21.25
19.19
16.85
14.38
11.96
9.82
8.18
7.20
6.94
7.31
8.14
9.20
10.28
11.22
11.88
12.11
11.84
11.05
9.78
8.16
6.33
4.42
2.49
0.54
-1.42
-3.39
-5.40
-7.52
-9.85
-12.52
-15.60
-19.03
-22.59
-25.94
-28.64
-30.24
-30.36
-28.71
-25.22
-20.06
-13.60
-6.38
1.00
8.02
14.23
19.33
23.17
25.71
27.02
27.28
26.67
25.39
23.60
21.49
19.25
17.10
15.31
14.05
13.40
13.27
13.52
13.95
14.38
14.69
14.77
14.54
13.98
13.12
11.98
10.63
9.08
7.31
5.32
3.16
0.90
-1.35
-3.49
-5.53
-7.52
-9.53
-11.66
-13.92
-16.38
-19.09
-22.13
-25.58
-29.39
-33.33
-36.96
-39.64
-40.72
-39.67
-36.29
-30.72
-23.46
-15.21
-6.70
1.43
8.66
14.65
19.22
22.31
24.03
24.55
24.14
23.06
21.54
19.78
17.92
16.13
14.57
13.41
12.72
12.57
12.89
13.58
14.50
15.47
16.29
16.76
16.72
16.10
14.94
13.41
11.70
10.06
8.64
7.47
6.45
5.35
3.91
1.93
-0.63
-3.63
-6.82
-9.92
-12.71
-15.15
-17.31
-19.39
-21.63
-24.23
-27.27
-30.64
-34.04
-37.02
-39.09
-39.82
-38.91
-36.24
-31.86
-25.95
-18.80
-10.87
-2.75
4.86
11.32
16.17
19.23
20.65
20.81
20.17
19.13
17.95
16.75
15.55
14.37
13.30
12.50
12.13
12.31
13.03
14.12
15.33
16.40
17.13
17.43
17.31
16.79
15.93
14.76
13.32
11.64
9.79
7.87
5.93
3.97
1.95
-0.21
-2.57
-5.18
-8.01
-10.97
-13.97
-16.86
-19.53
-21.98
-24.27
-26.56
-29.03
-31.72
-34.49
-37.01
-38.80
-39.38
-38.40
-35.73
-31.43
-25.72
-18.93
-11.45
-3.77
3.61
10.18
15.57
19.55
22.14
23.49
23.76
23.14
21.74
19.68
17.17
14.54
12.15
10.35
9.32
9.09
9.52
10.36
11.35
12.28
12.95
13.27
13.18
12.69
11.82
10.65
9.26
7.72
6.08
4.37
2.59
0.71
-1.26
-3.29
-5.30
-7.30
-9.30
-11.41
-13.75
-16.37
-19.22
-22.11
-24.80
-26.99
-28.36
-28.61
-27.39
-24.51
-19.92
-13.91
-7.01
0.10
6.75
12.45
16.97
20.25
22.38
23.51
23.74
23.22
22.06
20.44
18.54
16.61
14.87
13.49
12.55
12.03
11.84
11.87
12.02
12.24
12.46
12.60
12.53
12.13
11.34
10.19
8.80
7.30
5.79
4.33
2.88
1.33
-0.41
-2.44
-4.77
-7.40
-10.19
-12.98
-15.56
-17.85
-19.91
-21.94
-24.22
-26.94
-30.10
-33.41
-36.34
-38.27
-38.61
-36.99
-33.26
-27.63
-20.49
-12.43
-4.12
3.83
10.88
16.66
20.97
23.80
25.26
25.56
24.94
23.65
21.94
20.02
18.12
16.40
15.02
14.04
13.48
13.29
13.41
13.73
14.18
14.62
14.91
14.94
14.62
13.94
12.99
11.89
10.71
9.43
7.99
6.30
4.28
1.94
-0.67
-3.48
-6.38
-9.29
-12.09
-14.71
-17.12
-19.36
-21.59
-23.92
-26.48
-29.22
-32.01
-34.63
-36.75
-38.04
-38.14
-36.73
-33.62
-28.82
-22.63
-15.55
-8.19
-1.12
5.21
10.54
14.75
17.83
19.84
20.87
21.00
20.35
19.08
17.36
15.48
13.72
12.36
11.59
11.46
11.86
12.61
13.54
14.50
15.40
16.17
16.71
16.93
16.75
16.11
14.99
13.44
11.49
9.23
6.79
4.33
1.94
-0.33
-2.55
-4.78
-7.07
-9.39
-11.60
-13.63
-15.49
-17.36
-19.47
-21.96
-24.84
-27.89
-30.76
-33.08
-34.51
-34.76
-33.61
-30.86
-26.46
-20.51
-13.41
-5.76
1.72
8.40
13.84
17.90
20.59
22.04
22.39
21.79
20.39
18.41
16.13
13.85
11.78
10.11
8.90
8.19
7.94
8.08
8.52
9.12
9.76
10.35
10.79
11.05
11.04
10.74
10.06
8.98
7.52
5.72
3.69
1.53
-0.66
-2.87
-5.11
-7.47
-10.02
-12.82
-15.85
-19.04
-22.23
-25.23
-27.78
-29.57
-30.26
-29.53
-27.21
-23.28
-17.96
-11.64
-4.83
1.93
8.15
13.46
17.61
20.55
22.35
23.18
23.22
22.68
21.65
20.24
18.56
16.78
15.09
13.64
12.56
11.88
11.59
11.62
11.88
12.27
12.66
12.91
12.90
12.52
11.76
10.65
9.26
7.65
5.84
3.87
1.77
-0.41
-2.57
-4.66
-6.63
-8.51
-10.42
-12.50
-14.92
-17.79
-21.11
-24.79
-28.58
-32.18
-35.23
-37.38
-38.26
-37.59
-35.15
-30.90
-25.07
-18.08
-10.54
-3.11
3.66
9.42
13.98
17.34
19.60
20.89
21.36
21.17
20.46
19.35
17.93
16.31
14.63
13.08
11.86
11.19
11.17
11.75
12.80
14.06
15.25
16.14
16.57
16.46
15.81
14.65
13.04
11.06
8.78
6.29
3.68
1.03
-1.65
-4.35
-7.07
-9.75
-12.31
-14.68
-16.89
-19.06
-21.40
-24.08
-27.13
-30.39
-33.53
-36.14
-37.80
-38.16
-36.89
-33.81
-28.89
-22.32
-14.64
-6.56
1.12
7.81
13.17
17.17
19.91
21.51
22.02
21.51
20.12
18.07
15.74
13.46
11.55
10.11
9.20
8.78
8.80
9.18
9.86
10.75
11.73
12.68
13.43
13.87
13.87
13.38
12.43
11.13
9.61
7.96
6.19
4.26
2.09
-0.28
-2.76
-5.22
-7.56
-9.77
-11.99
-14.37
-17.05
-20.08
-23.38
-26.77
-30.03
-32.94
-35.24
-36.65
-36.89
-35.64
-32.68
-27.94
-21.59
-14.04
-5.90
2.16
9.56
15.86
20.80
24.26
26.22
26.72
25.89
23.99
21.37
18.45
15.62
13.16
11.23
9.86
9.02
8.63
8.65
9.01
9.63
10.41
11.22
11.92
12.36
12.45
12.09
11.27
10.02
8.40
6.47
4.27
1.85
-0.77
-3.54
-6.38
-9.18
-11.89
-14.55
-17.20
-19.93
-22.76
-25.62
-28.31
-30.47
-31.68
-31.47
-29.52
-25.69
-20.16
-13.40
-6.03
1.28
8.03
13.85
18.57
22.06
24.27
25.20
24.96
23.79
22.00
19.92
17.79
15.79
14.01
12.59
11.60
11.11
11.13
11.52
12.10
12.65
12.97
12.90
12.39
11.43
10.13
8.60
6.97
5.29
3.56
1.72
-0.27
-2.38
-4.52
-6.59
-8.55
-10.49
-12.53
-14.84
-17.49
-20.49
-23.71
-27.04
-30.29
-33.28
-35.68
-37.11
-37.13
-35.37
-31.67
-26.13
-19.16
-11.38
-3.51
3.79
10.00
14.82
18.15
20.07
20.80
20.65
19.92
18.92
17.86
16.85
15.92
15.05
14.26
13.63
13.25
13.20
13.47
13.95
14.51
15.01
15.39
15.60
15.55
15.16
14.32
13.02
11.34
9.44
7.43
5.32
3.03
0.47
-2.33
-5.24
-8.01
-10.46
-12.59
-14.59
-16.74
-19.26
-22.23
-25.51
-28.86
-32.07
-34.89
-37.11
-38.37
-38.22
-36.21
-32.10
-25.99
-18.43
-10.23
-2.23
4.93
10.87
15.48
18.77
20.75
21.52
21.21
20.06
18.41
16.59
14.83
13.26
11.96
10.98
10.40
10.34
10.85
11.88
13.24
14.62
15.72
16.29
16.24
15.61
14.52
13.11
11.47
9.62
7.57
5.37
3.08
0.82
-1.34
-3.39
-5.38
-7.42
-9.59
-11.92
-14.35
-16.81
-19.23
-21.59
-23.99
-26.52
-29.22
-31.97
-34.45
-36.15
-36.51
-35.10
-31.75
-26.58
-19.97
-12.47
-4.65
2.94
9.81
15.54
19.82
22.48
23.56
23.26
21.97
20.05
17.80
15.36
12.86
10.39
8.13
6.28
5.02
4.41
4.32
4.51
4.70
4.68
4.31
3.50
2.20
0.37
-2.01
-4.93
-8.27
-11.89
-15.66
-19.47
-23.29
-27.13
-30.99
-34.92
-38.94
-43.13
-47.61
-52.52
-57.90
-63.60
-69.23
-74.16
-77.64
-78.97
-77.60
-73.23
-65.76
-55.33
-42.31
-27.26
-10.98
5.62
21.60
36.17
48.76
59.05
66.92
72.40
75.58
76.67
75.95
73.78
70.59
66.80
62.85
59.11
55.83
53.11
50.92
49.07
47.36
45.58
43.59
41.36
38.89
36.21
33.31
30.17
26.79
23.20
19.54
15.92
12.43
9.11
5.94
2.83
-0.27
-3.39
-6.58
-9.90
-13.39
-17.11
-21.09
-25.24
-29.38
-33.20
-36.26
-38.06
-38.09
-35.97
-31.62
-25.32
-17.66
-9.44
-1.47
5.64
11.51
15.99
19.08
20.88
21.57
21.39
20.61
19.49
18.24
16.98
15.82
14.83
14.09
13.62
13.42
13.44
13.65
14.03
14.59
15.31
16.04
16.58
16.70
16.21
15.05
13.31
11.14
8.76
6.31
3.92
1.63
-0.55
-2.71
-4.93
-7.28
-9.76
-12.28
-14.71
-17.04
-19.34
-21.80
-24.61
-27.89
-31.58
-35.47
-39.21
-42.35
-44.37
-44.77
-43.12
-39.22
-33.22
-25.58
-17.06
-8.47
-0.51
6.36
11.92
16.11
18.95
20.52
20.94
20.42
19.24
17.66
15.90
14.11
12.37
10.78
9.45
8.55
8.20
8.49
9.39
10.73
12.29
13.73
14.78
15.19
14.87
13.88
12.47
10.88
9.31
7.80
6.23
4.43
2.29
-0.16
-2.78
-5.36
-7.77
-9.99
-12.15
-14.40
-16.90
-19.71
-22.79
-25.97
-28.99
-31.49
-33.06
-33.25
-31.73
-28.33
-23.15
-16.58
-9.15
-1.49
5.82
12.32
17.72
21.86
24.67
26.18
26.50
25.74
24.11
21.80
19.09
16.27
13.71
11.72
10.52
10.15
10.49
11.31
12.33
13.30
14.05
14.43
14.33
13.64
12.36
10.59
8.51
6.33
4.20
2.14
0.04
-2.18
-4.57
-7.06
-9.59
-12.11
-14.69
-17.43
-20.44
-23.78
-27.36
-30.94
-34.17
-36.58
-37.67
-37.00
-34.32
-29.63
-23.23
-15.66
-7.57
0.37
7.58
13.63
18.27
21.42
23.17
23.73
23.35
22.26
20.66
18.71
16.58
14.46
12.52
10.92
9.74
9.08
8.99
9.53
10.70
12.34
14.15
15.71
16.64
16.71
15.93
14.47
12.60
10.51
8.30
6.02
3.66
1.21
-1.39
-4.18
-7.16
-10.29
-13.40
-16.35
-19.06
-21.65
-24.34
-27.35
-30.72
-34.26
-37.48
-39.82
-40.68
-39.62
-36.40
-31.04
-23.86
-15.45
-6.60
1.88
9.30
15.24
19.61
22.51
24.17
24.82
24.59
23.62
22.02
19.99
17.78
15.64
13.81
12.42
11.56
11.23
11.39
11.91
12.68
13.49
14.19
14.60
14.62
14.20
13.36
12.15
10.66
8.98
7.14
5.15
2.98
0.58
-2.09
-4.99
-7.99
-10.89
-13.51
-15.78
-17.83
-19.88
-22.21
-25.01
-28.31
-31.91
-35.49
-38.61
-40.82
-41.67
-40.80
-37.96
-33.12
-26.51
-18.65
-10.24
-2.03
5.33
11.44
16.08
19.27
21.11
21.79
21.50
20.46
18.91
17.05
15.08
13.20
11.61
10.46
9.88
9.91
10.52
11.57
12.88
14.25
15.45
16.31
16.69
16.53
15.89
14.86
13.56
12.05
10.31
8.30
6.02
3.53
0.99
-1.47
-3.77
-5.95
-8.13
-10.44
-12.98
-15.73
-18.69
-21.82
-25.06
-28.31
-31.36
-33.82
-35.21
-35.00
-32.77
-28.40
-22.05
-14.21
-5.61
2.94
10.71
17.17
22.05
25.34
27.17
27.79
27.43
26.33
24.72
22.81
20.80
18.80
16.89
15.12
13.58
12.40
11.75
11.69
12.20
13.06
13.94
14.50
14.49
13.84
12.63
11.05
9.29
7.48
5.65
3.75
1.69
-0.60
-3.15
-5.90
-8.70
-11.43
-13.99
-16.36
-18.65
-21.03
-23.63
-26.56
-29.76
-33.02
-35.99
-38.20
-39.09
-38.18
-35.16
-30.03
-23.15
-15.15
-6.82
1.13
8.13
13.84
18.12
21.01
22.68
23.34
23.29
22.76
21.90
20.78
19.40
17.79
16.09
14.56
13.46
12.95
13.07
13.64
14.44
15.21
15.76
16.01
15.94
15.58
14.95
14.07
12.93
11.53
9.87
7.96
5.80
3.45
0.94
-1.68
-4.38
-7.18
-10.06
-12.96
-15.78
-18.43
-20.90
-23.28
-25.78
-28.57
-31.71
-35.01
-38.04
-40.21
-40.97
-39.88
-36.74
-31.64
-24.90
-17.00
-8.56
-0.19
7.51
14.06
19.16
22.62
24.51
25.02
24.47
23.22
21.58
19.77
17.94
16.14
14.46
12.98
11.81
11.09
10.91
11.28
12.11
13.21
14.35
15.29
15.84
15.85
15.28
14.09
12.37
10.24
7.89
5.49
3.19
1.02
-1.10
-3.30
-5.73
-8.42
-11.28
-14.10
-16.65
-18.79
-20.55
-22.11
-23.81
-25.94
-28.68
-31.93
-35.35
-38.39
-40.45
-40.98
-39.63
-36.26
-30.98
-24.12
-16.19
-7.80
0.41
7.85
14.06
18.77
21.92
23.62
24.08
23.54
22.25
20.41
18.25
15.98
13.83
12.00
10.63
9.82
9.57
9.85
10.59
11.69
12.97
14.24
15.29
15.88
15.86
15.18
13.92
12.22
10.23
8.05
5.70
3.14
0.37
-2.51
-5.32
-7.87
-10.05
-11.95
-13.80
-15.91
-18.49
-21.54
-24.84
-28.05
-30.77
-32.61
-33.18
-32.15
-29.26
-24.43
-17.91
-10.20
-2.05
5.77
12.69
18.37
22.68
25.66
27.35
27.85
27.31
25.95
24.08
21.99
19.86
17.80
15.87
14.15
12.77
11.93
11.74
12.19
13.11
14.24
15.29
16.05
16.39
16.27
15.68
14.63
13.17
11.32
9.14
6.71
4.08
1.29
-1.65
-4.69
-7.75
-10.72
-13.47
-15.90
-17.99
-19.85
-21.75
-23.94
-26.62
-29.85
-33.45
-37.10
-40.27
-42.38
-42.84
-41.16
-37.11
-30.79
-22.71
-13.65
-4.53
3.84
10.91
16.38
20.21
22.51
23.44
23.23
22.14
20.50
18.62
16.76
15.09
13.73
12.72
12.07
11.78
11.82
12.14
12.71
13.46
14.33
15.20
15.94
16.39
16.45
16.06
15.25
14.02
12.42
10.46
8.18
5.65
2.97
0.21
-2.63
-5.55
-8.60
-11.72
-14.79
-17.62
-20.14
-22.36
-24.49
-26.75
-29.35
-32.35
-35.61
-38.83
-41.53
-43.16
-43.15
-41.05
-36.67
-30.17
-22.12
-13.31
-4.57
3.40
10.20
15.65
19.76
22.57
24.13
24.51
23.85
22.36
20.30
17.94
15.50
13.16
11.07
9.39
8.28
7.90
8.27
9.28
10.66
12.07
13.17
13.75
13.71
13.04
11.85
10.25
8.42
6.54
4.76
3.15
1.68
0.19
-1.48
-3.47
-5.80
-8.40
-11.13
-13.87
-16.57
-19.25
-21.96
-24.73
-27.53
-30.25
-32.63
-34.31
-34.83
-33.76
-30.82
-25.96
-19.38
-11.51
-2.91
5.83
14.17
21.59
27.63
31.91
34.16
34.37
32.80
29.92
26.36
22.70
19.35
16.56
14.40
12.84
11.86
11.39
11.38
11.70
12.15
12.51
12.64
12.41
11.83
10.90
9.65
8.08
6.16
3.88
1.28
-1.50
-4.29
-6.93
-9.35
-11.65
-14.01
-16.65
-19.72
-23.23
-27.00
-30.73
-34.05
-36.60
-38.01
-37.93
-36.02
-32.10
-26.19
-18.63
-10.05
-1.26
6.93
13.92
19.38
23.25
25.71
27.00
27.35
26.95
25.93
24.45
22.65
20.71
18.83
17.10
15.61
14.37
13.41
12.76
12.53
12.76
13.37
14.11
14.65
14.68
14.04
12.73
10.93
8.82
6.51
4.04
1.38
-1.46
-4.41
-7.33
-10.07
-12.52
-14.71
-16.77
-18.93
-21.40
-24.35
-27.79
-31.55
-35.29
-38.50
-40.59
-41.02
-39.35
-35.40
-29.30
-21.52
-12.76
-3.79
4.71
12.22
18.40
23.07
26.11
27.52
27.47
26.30
24.46
22.41
20.43
18.63
16.91
15.19
13.48
11.94
10.83
10.36
10.62
11.50
12.72
13.96
14.90
15.30
15.06
14.19
12.75
10.86
8.67
6.28
3.77
1.14
-1.62
-4.54
-7.59
-10.69
-13.74
-16.64
-19.36
-21.99
-24.65
-27.50
-30.60
-33.92
-37.24
-40.19
-42.29
-43.00
-41.87
-38.66
-33.41
-26.47
-18.40
-9.87
-1.52
6.10
12.57
17.59
21.00
22.80
23.15
22.37
20.87
19.00
17.00
15.00
13.04
11.20
9.64
8.59
8.26
8.74
9.91
11.48
13.07
14.31
15.01
15.09
14.62
13.72
12.45
10.84
8.86
6.50
3.83
1.02
-1.74
-4.29
-6.63
-8.93
-11.42
-14.27
-17.54
-21.11
-24.74
-28.12
-30.89
-32.65
-32.95
-31.38
-27.68
-21.91
-14.47
-6.06
2.46
10.31
16.92
21.94
25.29
27.03
27.39
26.64
25.11
23.09
20.81
18.40
15.98
13.67
11.65
10.10
9.15
8.86
9.17
9.88
10.78
11.63
12.22
12.40
12.08
11.21
9.81
7.97
5.75
3.24
0.52
-2.34
-5.29
-8.23
-11.10
-13.89
-16.65
-19.55
-22.74
-26.29
-30.04
-33.61
-36.38
-37.71
-37.04
-34.09
-28.89
-21.83
-13.54
-4.78
3.68
11.21
17.34
21.88
24.76
26.15
26.31
25.59
24.36
22.92
21.45
19.99
18.54
17.07
15.67
14.56
13.95
13.97
14.52
15.31
15.99
16.24
15.95
15.15
13.96
12.49
10.77
8.81
6.58
4.11
1.49
-1.18
-3.81
-6.36
-8.81
-11.17
-13.46
-15.78
-18.28
-21.20
-24.71
-28.85
-33.40
-37.84
-41.47
-43.52
-43.39
-40.74
-35.62
-28.42
-19.76
-10.44
-1.24
7.13
14.15
19.50
23.09
25.02
25.52
24.94
23.60
21.83
19.87
17.84
15.83
13.95
12.30
11.05
10.36
10.34
10.95
12.04
13.34
14.55
15.40
15.69
15.35
14.39
12.97
11.27
9.46
7.67
5.87
3.97
1.85
-0.59
-3.36
-6.39
-9.52
-12.62
-15.61
-18.48
-21.32
-24.27
-27.47
-30.96
-34.68
-38.32
-41.37
-43.23
-43.28
-41.12
-36.65
-30.14
-22.14
-13.37
-4.54
3.74
11.00
16.90
21.23
23.94
25.08
24.90
23.74
22.01
20.04
18.03
16.08
14.21
12.47
11.00
9.98
9.52
9.64
10.18
10.86
11.47
11.84
11.95
11.84
11.53
10.99
10.15
8.97
7.42
5.52
3.34
0.94
-1.66
-4.42
-7.29
-10.19
-13.07
-15.91
-18.79
-21.81
-25.04
-28.42
-31.71
-34.41
-35.91
-35.60
-33.07
-28.24
-21.37
-13.09
-4.18
4.52
12.30
18.66
23.38
26.44
27.96
28.15
27.25
25.49
23.17
20.59
18.05
15.82
14.04
12.77
11.98
11.53
11.31
11.24
11.26
11.34
11.45
11.52
11.43
11.08
10.36
9.22
7.67
5.78
3.63
1.29
-1.19
-3.77
-6.44
-9.20
-12.05
-15.00
-18.13
-21.48
-25.09
-28.90
-32.66
-35.93
-38.08
-38.48
-36.67
-32.57
-26.50
-19.09
-11.06
-3.07
4.42
11.09
16.70
21.02
23.84
25.11
24.98
23.83
22.13
20.30
18.58
17.05
15.71
14.55
13.66
13.15
13.11
13.57
14.44
15.57
16.73
17.70
18.28
18.34
17.81
16.72
15.15
13.19
10.92
8.36
5.53
2.45
-0.81
-4.21
-7.71
-11.26
-14.83
-18.38
-21.85
-25.24
-28.60
-32.01
-35.47
-38.82
-41.64
-43.31
-43.19
-40.79
-36.01
-29.15
-20.81
-11.74
-2.72
5.63
12.82
18.52
22.56
24.94
25.83
25.53
24.39
22.74
20.78
18.67
16.55
14.57
12.94
11.84
11.37
11.52
12.17
13.13
14.17
15.11
15.77
16.00
15.70
14.82
13.37
11.43
9.10
6.50
3.78
1.04
-1.65
-4.30
-6.95
-9.68
-12.47
-15.24
-17.84
-20.19
-22.35
-24.57
-27.15
-30.29
-33.94
-37.69
-40.88
-42.72
-42.57
-40.03
-35.07
-27.99
-19.37
-9.99
-0.66
7.87
15.02
20.46
24.07
25.99
26.48
25.83
24.33
22.25
19.75
17.04
14.31
11.77
9.62
8.03
7.11
6.88
7.28
8.17
9.33
10.49
11.39
11.83
11.73
11.15
10.22
9.07
7.77
6.27
4.49
2.40
0.06
-2.40
-4.88
-7.30
-9.73
-12.28
-15.01
-17.94
-20.98
-24.10
-27.26
-30.51
-33.78
-36.85
-39.20
-40.21
-39.25
-35.98
-30.45
-23.08
-14.54
-5.60
3.04
10.79
17.22
22.07
25.24
26.78
26.88
25.81
23.87
21.37
18.65
16.01
13.71
11.96
10.80
10.17
9.94
10.01
10.29
10.73
11.22
11.66
11.92
11.95
11.73
11.30
10.63
9.65
8.19
6.10
3.38
0.15
-3.35
-6.82
-10.07
-13.04
-15.82
-18.58
-21.51
-24.67
-27.93
-30.97
-33.28
-34.28
-33.46
-30.54
-25.57
-18.83
-10.87
-2.33
6.10
13.79
20.21
25.04
28.14
29.60
29.65
28.58
26.70
24.27
21.56
18.85
16.38
14.38
12.96
12.15
11.93
12.17
12.73
13.38
13.89
14.06
13.78
13.10
12.18
11.14
9.98
8.55
6.63
4.09
0.99
-2.43
-5.87
-9.12
-12.14
-15.05
-18.02
-21.19
-24.57
-28.10
-31.64
-35.07
-38.19
-40.70
-42.18
-42.09
-39.97
-35.53
-28.90
-20.57
-11.31
-2.01
6.59
13.94
19.77
23.99
26.64
27.82
27.71
26.57
24.71
22.48
20.13
17.84
15.71
13.81
12.27
11.21
10.71
10.75
11.20
11.84
12.49
13.01
13.32
13.33
12.93
11.98
10.42
8.30
5.82
3.19
0.60
-1.88
-4.35
-6.91
-9.64
-12.52
-15.46
-18.35
-21.23
-24.19
-27.41
-30.97
-34.76
-38.39
-41.18
-42.37
-41.34
-37.77
-31.82
-24.06
-15.29
-6.33
2.14
9.64
15.87
20.66
23.92
25.65
26.01
25.30
23.88
22.10
20.22
18.34
16.50
14.75
13.25
12.15
11.62
11.70
12.23
12.95
13.55
13.81
13.64
13.08
12.20
11.06
9.63
7.88
5.77
3.41
0.94
-1.48
-3.79
-6.04
-8.36
-10.86
-13.56
-16.40
-19.29
-22.21
-25.24
-28.53
-32.14
-35.92
-39.44
-42.02
-42.86
-41.37
-37.27
-30.72
-22.35
-13.07
-3.84
4.51
11.47
16.83
20.66
23.12
24.40
24.63
23.93
22.41
20.20
17.56
14.79
12.22
10.16
8.87
8.49
8.94
10.01
11.28
12.23
12.45
11.68
10.01
7.78
5.49
3.66
2.63
2.49
3.14
4.33
5.73
7.11
8.24
8.97
9.15
8.69
7.55
5.80
3.60
1.15
-1.34
-3.74
-6.00
-8.15
-10.22
-12.30
-14.44
-16.75
-19.33
-22.25
-25.48
-28.82
-31.91
-34.18
-35.02
-33.90
-30.50
-24.87
-17.45
-8.92
-0.12
8.21
15.52
21.42
25.75
28.40
29.41
28.96
27.33
24.92
22.14
19.29
16.58
14.17
12.20
10.81
10.07
9.94
10.23
10.72
11.19
11.51
11.67
11.74
11.70
11.49
10.95
9.92
8.30
6.05
3.28
0.16
-3.06
-6.14
-8.96
-11.55
-14.13
-17.03
-20.49
-24.56
-29.02
-33.42
-37.17
-39.70
-40.50
-39.21
-35.68
-29.97
-22.43
-13.65
-4.40
4.52
12.41
18.79
23.39
26.19
27.36
27.18
26.02
24.23
22.10
19.85
17.63
15.59
13.89
12.74
12.30
12.63
13.61
14.98
16.41
17.57
18.27
18.39
17.94
16.97
15.55
13.71
11.52
9.02
6.31
3.47
0.57
-2.40
-5.47
-8.68
-12.06
-15.51
-18.96
-22.39
-25.86
-29.53
-33.49
-37.61
-41.44
-44.31
-45.44
-44.25
-40.54
-34.50
-26.64
-17.64
-8.24
0.93
9.27
16.33
21.81
25.57
27.71
28.44
28.08
26.94
25.32
23.42
21.43
19.52
17.86
16.60
15.82
15.53
15.64
16.06
16.63
17.24
17.75
18.00
17.86
17.22
16.04
14.37
12.35
10.12
7.80
5.48
3.14
0.68
-1.98
-4.92
-8.10
-11.41
-14.70
-17.82
-20.75
-23.58
-26.46
-29.52
-32.77
-36.10
-39.18
-41.58
-42.75
-42.16
-39.43
-34.40
-27.30
-18.70
-9.42
-0.31
7.84
14.52
19.43
22.54
24.02
24.15
23.30
21.83
20.03
18.11
16.23
14.52
13.08
12.00
11.29
10.93
10.89
11.17
11.77
12.66
13.70
14.64
15.20
15.17
14.47
13.18
11.51
9.66
7.79
5.94
4.10
2.18
0.07
-2.30
-4.96
-7.81
-10.71
-13.48
-16.00
-18.24
-20.31
-22.35
-24.54
-27.03
-29.82
-32.75
-35.39
-37.11
-37.15
-34.90
-30.09
-22.96
-14.21
-4.82
4.24
12.19
18.58
23.24
26.18
27.54
27.55
26.51
24.73
22.53
20.17
17.84
15.69
13.85
12.41
11.44
10.98
10.99
11.38
12.06
12.85
13.60
14.12
14.26
13.92
13.11
11.89
10.32
8.48
6.37
3.98
1.35
-1.42
-4.23
-6.97
-9.64
-12.32
-15.14
-18.21
-21.56
-25.12
-28.69
-32.00
-34.64
-36.14
-36.05
-33.98
-29.78
-23.61
-15.94
-7.49
0.97
8.75
15.40
20.71
24.61
27.11
28.22
27.94
26.35
23.71
20.43
17.06
14.12
11.94
10.62
10.04
10.00
10.33
10.97
11.88
13.00
14.17
15.14
15.65
15.55
14.82
13.57
12.00
10.27
8.44
6.51
4.35
1.88
-0.95
-4.09
-7.41
-10.71
-13.87
-16.82
-19.65
-22.48
-25.49
-28.76
-32.23
-35.74
-38.96
-41.43
-42.65
-42.11
-39.45
-34.55
-27.63
-19.18
-9.94
-0.71
7.80
15.01
20.55
24.28
26.30
26.85
26.31
25.03
23.34
21.40
19.32
17.17
15.09
13.29
12.00
11.38
11.43
12.02
12.91
13.87
14.70
15.25
15.41
15.09
14.24
12.86
11.07
9.02
6.91
4.91
3.07
1.34
-0.39
-2.25
-4.36
-6.77
-9.44
-12.23
-14.96
-17.45
-19.64
-21.62
-23.63
-25.94
-28.77
-32.11
-35.66
-38.88
-41.08
-41.61
-39.96
-35.98
-29.88
-22.22
-13.79
-5.43
2.12
8.40
13.21
16.59
18.66
19.55
19.44
18.51
17.02
15.31
13.71
12.45
11.58
11.08
10.82
10.74
10.87
11.27
11.98
12.91
13.86
14.59
14.88
14.63
13.83
12.56
10.92
9.03
7.01
4.99
3.06
1.25
-0.47
-2.18
-3.94
-5.74
-7.52
-9.23
-10.88
-12.61
-14.59
-17.00
-19.92
-23.29
-26.95
-30.62
-33.91
-36.29
-37.17
-35.99
-32.48
-26.73
-19.27
-10.89
-2.41
5.48
12.33
17.87
21.95
24.53
25.63
25.41
24.17
22.21
19.84
17.27
14.70
12.35
10.48
9.33
9.05
9.57
10.67
12.03
13.34
14.42
15.16
15.49
15.38
14.81
13.78
12.33
10.51
8.39
5.97
3.27
0.34
-2.70
-5.69
-8.52
-11.17
-13.70
-16.28
-19.02
-21.97
-25.08
-28.14
-30.81
-32.63
-33.08
-31.72
-28.34
-23.04
-16.30
-8.78
-1.21
5.81
11.84
16.66
20.22
22.55
23.74
23.95
23.40
22.31
20.90
19.31
17.64
15.98
14.41
13.06
12.04
11.49
11.49
12.03
13.01
14.23
15.42
16.25
16.47
15.94
14.67
12.83
10.67
8.39
6.07
3.66
1.05
-1.83
-4.93
-8.13
-11.24
-14.13
-16.81
-19.38
-22.00
-24.80
-27.80
-30.95
-34.11
-37.08
-39.54
-41.07
-41.15
-39.31
-35.29
-29.18
-21.48
-12.95
-4.39
3.52
10.35
15.90
20.09
22.93
24.46
24.84
24.30
23.13
21.56
19.77
17.83
15.84
13.96
12.43
11.52
11.35
11.90
12.98
14.33
15.65
16.69
17.29
17.30
16.68
15.43
13.65
11.54
9.26
6.98
4.75
2.55
0.26
-2.21
-4.93
-7.88
-10.96
-14.01
-16.86
-19.42
-21.71
-23.90
-26.23
-28.87
-31.90
-35.12
-38.14
-40.39
-41.23
-40.13
-36.78
-31.22
-23.86
-15.42
-6.73
1.46
8.57
14.30
18.55
21.35
22.81
23.10
22.46
21.14
19.39
17.40
15.35
13.39
11.71
10.46
9.76
9.64
10.04
10.84
11.90
13.04
14.09
14.82
15.04
14.64
13.64
12.17
10.37
8.38
6.25
3.94
1.41
-1.37
-4.34
-7.42
-10.49
-13.41
-16.02
-18.26
-20.16
-21.86
-23.59
-25.58
-27.94
-30.63
-33.44
-35.99
-37.77
-38.26
-36.98
-33.64
-28.28
-21.23
-13.15
-4.80
3.10
10.02
15.67
19.96
22.90
24.57
25.10
24.64
23.39
21.55
19.36
17.05
14.86
13.04
11.76
11.17
11.25
11.83
12.69
13.57
14.28
14.71
14.85
14.65
14.07
13.02
11.42
9.28
6.69
3.86
1.00
-1.70
-4.12
-6.26
-8.20
-10.11
-12.15
-14.50
-17.29
-20.52
-24.03
-27.47
-30.32
-31.97
-31.86
-29.63
-25.24
-18.99
-11.48
-3.50
4.17
10.93
16.39
20.45
23.18
24.78
25.46
25.39
24.65
23.30
21.36
18.99
16.43
14.02
12.12
10.93
10.50
10.67
11.21
11.88
12.50
12.92
13.05
12.83
12.22
11.26
10.01
8.53
6.80
4.76
2.36
-0.36
-3.25
-6.13
-8.84
-11.37
-13.87
-16.52
-19.50
-22.85
-26.51
-30.33
-34.04
-37.28
-39.55
-40.26
-38.90
-35.22
-29.31
-21.67
-13.02
-4.23
3.98
11.02
16.58
20.53
22.97
24.13
24.31
23.79
22.78
21.41
19.77
17.95
16.13
14.51
13.28
12.60
12.52
13.01
13.97
15.17
16.33
17.11
17.28
16.73
15.53
13.91
12.07
10.19
8.26
6.20
3.88
1.21
-1.82
-5.12
-8.50
-11.76
-14.77
-17.46
-19.93
-22.37
-25.00
-27.97
-31.26
-34.63
-37.64
-39.75
-40.40
-39.10
-35.63
-30.04
-22.71
-14.28
-5.54
2.70
9.83
15.47
19.55
22.19
23.65
24.18
23.98
23.13
21.70
19.82
17.65
15.43
13.42
11.81
10.72
10.21
10.27
10.88
11.96
13.36
14.83
15.99
16.48
16.06
14.70
12.62
10.17
7.71
5.45
3.39
1.38
-0.76
-3.09
-5.59
-8.11
-10.58
-12.98
-15.43
-18.02
-20.80
-23.72
-26.66
-29.51
-32.21
-34.71
-36.89
-38.47
-38.96
-37.79
-34.51
-29.02
-21.67
-13.16
-4.40
3.80
10.87
16.56
20.82
23.73
25.36
25.77
25.07
23.45
21.16
18.54
15.90
13.53
11.64
10.38
9.79
9.87
10.53
11.61
12.91
14.20
15.25
15.87
15.89
15.27
14.07
12.42
10.49
8.37
6.11
3.68
1.07
-1.70
-4.55
-7.40
-10.20
-12.98
-15.84
-18.93
-22.32
-25.94
-29.48
-32.44
-34.16
-34.02
-31.58
-26.77
-19.93
-11.73
-3.04
5.33
12.72
18.73
23.24
26.31
28.09
28.77
28.52
27.50
25.83
23.69
21.23
18.68
16.28
14.27
12.82
12.03
11.88
12.21
12.84
13.55
14.13
14.42
14.25
13.49
12.14
10.28
8.09
5.74
3.36
0.96
-1.55
-4.25
-7.16
-10.19
-13.17
-15.98
-18.57
-21.09
-23.79
-26.90
-30.52
-34.51
-38.45
-41.76
-43.80
-44.04
-42.16
-38.09
-31.97
-24.17
-15.25
-5.87
3.21
11.27
17.79
22.48
25.39
26.72
26.85
26.10
24.77
23.10
21.29
19.46
17.71
16.10
14.68
13.56
12.89
12.79
13.28
14.22
15.34
16.31
16.89
16.96
16.51
15.55
14.11
12.21
9.93
7.41
4.83
2.28
-0.26
-2.96
-5.96
-9.29
-12.80
-16.22
-19.35
-22.11
-24.66
-27.30
-30.31
-33.76
-37.47
-40.96
-43.54
-44.52
-43.33
-39.76
-33.95
-26.41
-17.83
-8.99
-0.56
6.91
13.06
17.73
20.93
22.82
23.63
23.61
22.94
21.78
20.28
18.60
16.97
15.56
14.52
13.90
13.67
13.73
14.00
14.39
14.81
15.17
15.33
15.18
14.60
13.57
12.10
10.31
8.31
6.18
3.99
1.71
-0.70
-3.30
-6.09
-9.03
-12.01
-14.89
-17.60
-20.13
-22.56
-25.02
-27.65
-30.50
-33.49
-36.44
-39.01
-40.81
-41.33
-40.08
-36.68
-30.99
-23.27
-14.16
-4.54
4.63
12.60
18.90
23.41
26.23
27.56
27.64
26.70
24.99
22.79
20.39
18.08
16.09
14.59
13.62
13.15
13.09
13.34
13.83
14.50
15.28
16.06
16.65
16.82
16.37
15.22
13.41
11.09
8.44
5.61
2.71
-0.22
-3.13
-6.02
-8.89
-11.79
-14.83
-18.10
-21.65
-25.42
-29.26
-32.89
-35.94
-37.88
-38.22
-36.49
-32.48
-26.27
-18.32
-9.36
-0.23
8.29
15.61
21.41
25.56
28.12
29.24
29.20
28.29
26.85
25.12
23.24
21.26
19.24
17.26
15.48
14.13
13.37
13.21
13.52
14.04
14.48
14.64
14.40
13.73
12.64
11.13
9.21
6.93
4.41
1.81
-0.74
-3.18
-5.58
-8.04
-10.70
-13.58
-16.62
-19.74
-22.86
-25.95
-29.05
-32.18
-35.23
-37.99
-40.08
-40.99
-40.18
-37.26
-32.08
-24.86
-16.22
-7.01
1.88
9.73
16.09
20.76
23.73
25.09
25.04
23.91
22.11
20.09
18.18
16.56
15.25
14.20
13.38
12.86
12.75
13.16
14.02
15.20
16.46
17.53
18.21
18.36
17.90
16.85
15.27
13.26
10.96
8.46
5.81
3.02
0.09
-3.00
-6.16
-9.28
-12.25
-15.01
-17.57
-20.04
-22.57
-25.31
-28.33
-31.66
-35.20
-38.75
-41.88
-44.04
-44.62
-43.06
-39.08
-32.83
-24.84
-15.91
-6.90
1.42
8.55
14.22
18.38
21.13
22.61
23.01
22.54
21.43
19.95
18.39
16.99
15.94
15.30
15.07
15.16
15.50
16.09
16.90
17.90
18.96
19.87
20.37
20.28
19.51
18.11
16.18
13.88
11.35
8.72
6.05
3.37
0.64
-2.21
-5.19
-8.30
-11.44
-14.48
-17.32
-19.93
-22.38
-24.84
-27.45
-30.32
-33.39
-36.48
-39.30
-41.46
-42.56
-42.18
-39.96
-35.66
-29.26
-21.11
-11.86
-2.44
6.26
13.57
19.13
22.99
25.34
26.46
26.55
25.74
24.15
21.92
19.32
16.67
14.28
12.44
11.29
10.84
11.00
11.60
12.45
13.37
14.20
14.87
15.30
15.46
15.30
14.80
13.91
12.56
10.73
8.45
5.80
2.88
-0.18
-3.30
-6.47
-9.65
-12.88
-16.17
-19.55
-23.07
-26.72
-30.38
-33.73
-36.32
-37.54
-36.88
-34.00
-28.90
-21.90
-13.62
-4.84
3.70
11.38
17.84
22.89
26.52
28.78
29.75
29.54
28.37
26.49
24.21
21.79
19.38
17.06
14.92
13.11
11.88
11.45
11.91
13.07
14.55
15.87
16.63
16.64
15.92
14.59
12.85
10.81
8.55
6.10
3.49
0.75
-2.07
-4.94
-7.84
-10.75
-13.69
-16.63
-19.61
-22.65
-25.83
-29.20
-32.75
-36.36
-39.71
-42.24
-43.27
-42.16
-38.52
-32.39
-24.27
-15.01
-5.58
3.20
10.77
16.90
21.55
24.78
26.64
27.19
26.55
25.02
22.96
20.76
18.72
16.91
15.32
13.91
12.76
12.03
11.90
12.44
13.48
14.73
15.84
16.55
16.73
16.38
15.55
14.27
12.56
10.51
8.21
5.77
3.28
0.73
-1.96
-4.85
-7.93
-11.05
-14.03
-16.71
-19.11
-21.44
-23.96
-26.92
-30.39
-34.20
-37.91
-40.91
-42.50
-42.09
-39.31
-34.16
-26.97
-18.41
-9.28
-0.37
7.71
14.60
20.18
24.43
27.36
28.91
29.07
27.94
25.82
23.25
20.76
18.78
17.44
16.61
16.04
15.56
15.26
15.35
16.12
17.60
19.61
21.67
23.24
23.84
23.08
20.69
16.57
10.85
4.00
-3.19
-9.74
-14.90
-18.36
-20.45
-21.89
-23.49
-25.67
-28.33
-30.96
-33.00
-34.18
-34.71
-35.13
-36.03
-37.66
-39.80
-41.78
-42.71
-41.87
-38.91
-33.98
-27.60
-20.42
-13.01
-5.77
1.07
7.31
12.69
16.85
19.47
20.41
19.76
17.92
15.40
12.69
10.10
7.75
5.61
3.65
1.93
0.56
-0.34
-0.77
-0.91
-1.05
-1.54
-2.61
-4.27
-6.40
-8.80
-11.33
-13.98
-16.86
-20.12
-23.91
-28.27
-33.15
-38.42
-43.86
-49.27
-54.41
-59.11
-63.22
-66.66
-69.31
-70.96
-71.26
-69.69
-65.66
-58.67
-48.42
-35.01
-18.95
-1.11
17.37
35.33
51.74
65.75
76.81
84.59
89.09
90.50
89.31
86.16
81.72
76.62
71.29
65.99
60.83
55.90
51.28
47.10
43.50
40.57
38.33
36.68
35.38
34.10
32.53
30.44
27.79
24.70
21.36
17.95
14.61
11.33
8.10
4.88
1.67
-1.54
-4.73
-7.98
-11.31
-14.81
-18.57
-22.63
-26.96
-31.38
-35.51
-38.76
-40.50
-40.17
-37.48
-32.49
-25.59
-17.45
-8.79
-0.33
7.35
13.81
18.79
22.18
24.09
24.73
24.42
23.46
22.10
20.50
18.77
17.03
15.39
13.99
12.98
12.42
12.32
12.62
13.21
13.91
14.54
14.88
14.74
14.03
12.76
11.03
9.07
7.05
5.02
2.96
0.71
-1.88
-4.84
-8.13
-11.59
-15.04
-18.32
-21.40
-24.33
-27.21
-30.14
-33.16
-36.15
-38.75
-40.45
-40.61
-38.68
-34.38
-27.82
-19.52
-10.33
-1.16
7.14
13.99
19.10
22.43
24.14
24.49
23.78
22.25
20.20
17.88
15.54
13.43
11.78
10.73
10.36
10.60
11.34
12.37
13.48
14.46
15.18
15.51
15.35
14.66
13.43
11.75
9.79
7.76
5.82
4.05
2.36
0.61
-1.41
-3.78
-6.48
-9.39
-12.37
-15.30
-18.15
-20.97
-23.87
-26.98
-30.36
-33.98
-37.63
-40.96
-43.45
-44.56
-43.76
-40.74
-35.46
-28.21
-19.60
-10.43
-1.55
6.25
12.42
16.66
19.02
19.82
19.57
18.88
18.22
17.90
17.94
18.15
18.29
18.19
17.82
17.28
16.76
16.37
16.13
16.02
15.99
15.95
15.82
15.47
14.78
13.64
12.03
10.03
7.80
5.46
3.12
0.77
-1.62
-4.03
-6.36
-8.43
-10.14
-11.57
-12.92
-14.55
-16.74
-19.56
-22.85
-26.20
-29.13
-31.13
-31.80
-30.82
-28.02
-23.40
-17.23
-10.03
-2.53
4.53
10.59
15.33
18.74
20.95
22.13
22.42
21.89
20.65
18.86
16.76
14.63
12.71
11.23
10.35
10.16
10.65
11.67
12.96
14.18
15.01
15.23
14.76
13.66
12.09
10.20
8.13
5.94
3.65
1.26
-1.21
-3.76
-6.33
-8.91
-11.55
-14.30
-17.26
-20.49
-24.00
-27.73
-31.48
-34.91
-37.58
-38.92
-38.40
-35.69
-30.73
-23.86
-15.70
-7.03
1.38
8.92
15.17
19.90
23.07
24.79
25.26
24.78
23.67
22.23
20.64
19.00
17.37
15.78
14.32
13.19
12.56
12.54
13.09
14.00
14.95
15.57
15.62
15.00
13.76
12.05
10.02
7.79
5.43
2.94
0.34
-2.34
-5.08
-7.80
-10.44
-12.95
-15.37
-17.86
-20.61
-23.83
-27.58
-31.75
-35.93
-39.58
-42.08
-42.84
-41.51
-37.92
-32.24
-24.84
-16.33
-7.41
1.22
8.93
15.32
20.15
23.41
25.20
25.78
25.38
24.30
22.79
21.04
19.20
17.35
15.58
14.01
12.83
12.21
12.26
12.97
14.15
15.47
16.59
17.23
17.23
16.58
15.36
13.71
11.77
9.69
7.52
5.29
2.96
0.44
-2.32
-5.28
-8.35
-11.41
-14.42
-17.36
-20.31
-23.37
-26.58
-29.95
-33.44
-36.91
-40.10
-42.54
-43.60
-42.63
-39.24
-33.42
-25.66
-16.75
-7.55
1.23
9.11
15.78
21.01
24.58
26.35
26.42
25.08
22.79
20.05
17.24
14.55
12.14
10.08
8.56
7.72
7.69
8.43
9.79
11.49
13.21
14.73
15.82
16.36
16.26
15.53
14.23
12.46
10.36
8.08
5.70
3.27
0.81
-1.67
-4.18
-6.71
-9.25
-11.83
-14.48
-17.25
-20.24
-23.51
-27.12
-31.02
-35.01
-38.67
-41.42
-42.60
-41.59
-38.10
-32.13
-24.11
-14.74
-4.84
4.78
13.44
20.66
26.10
29.62
31.25
31.18
29.77
27.43
24.59
21.59
18.68
16.01
13.73
11.96
10.85
10.47
10.78
11.62
12.70
13.76
14.55
14.93
14.88
14.44
13.70
12.69
11.42
9.82
7.83
5.43
2.70
-0.20
-3.08
-5.82
-8.46
-11.12
-14.03
-17.35
-21.16
-25.40
-29.88
-34.20
-37.80
-39.95
-39.94
-37.30
-31.94
-24.30
-15.19
-5.63
3.45
11.39
17.81
22.57
25.71
27.33
27.64
26.90
25.46
23.64
21.69
19.77
17.89
16.08
14.40
13.00
12.09
11.82
12.22
13.10
14.19
15.22
15.97
16.37
16.41
16.07
15.31
14.08
12.41
10.43
8.27
6.04
3.71
1.18
-1.65
-4.72
-7.87
-10.91
-13.79
-16.64
-19.76
-23.39
-27.60
-32.21
-36.82
-40.92
-43.95
-45.38
-44.80
-41.93
-36.78
-29.70
-21.35
-12.57
-4.19
3.08
8.84
12.93
15.45
16.67
16.94
16.67
16.16
15.65
15.22
14.83
14.37
13.74
12.95
12.07
11.30
10.85
10.93
11.60
12.84
14.43
16.10
17.50
18.29
18.25
17.25
15.36
12.85
10.15
7.70
5.73
4.19
2.70
0.73
-2.13
-5.98
-10.51
-15.20
-19.55
-23.28
-26.44
-29.27
-32.07
-35.01
-38.05
-40.98
-43.43
-44.84
-44.58
-42.09
-37.04
-29.55
-20.25
-10.11
-0.24
8.42
15.25
20.01
22.80
23.89
23.64
22.34
20.19
17.35
14.03
10.55
7.35
4.87
3.46
3.20
3.91
5.27
6.91
8.55
10.04
11.24
12.04
12.33
12.04
11.22
10.02
8.68
7.47
6.56
5.99
5.65
5.33
4.80
3.90
2.57
0.80
-1.38
-4.04
-7.29
-11.24
-15.90
-21.02
-26.08
-30.35
-33.06
-33.55
-31.50
-26.95
-20.32
-12.23
-3.48
5.16
12.94
19.29
23.80
26.33
26.98
26.11
24.17
21.62
18.82
16.03
13.49
11.38
9.85
8.93
8.48
8.28
8.11
7.92
7.81
7.97
8.44
9.03
9.35
8.97
7.65
5.47
2.81
0.11
-2.29
-4.31
-6.09
-7.88
-9.90
-12.25
-14.91
-17.84
-21.04
-24.55
-28.33
-32.18
-35.60
-37.91
-38.43
-36.72
-32.77
-27.00
-20.06
-12.62
-5.10
2.29
9.46
16.25
22.34
27.33
30.83
32.65
32.87
31.74
29.61
26.71
23.27
19.46
15.53
11.85
8.82
6.76
5.82
5.85
6.52
7.38
8.08
8.45
8.44
8.06
7.30
6.06
4.26
1.96
-0.64
-3.15
-5.28
-6.87
-8.08
-9.28
-10.94
-13.42
-16.91
-21.33
-26.41
-31.69
-36.60
-40.54
-42.88
-43.13
-41.00
-36.46
-29.77
-21.49
-12.36
-3.22
5.17
12.24
17.70
21.52
23.92
25.12
25.41
24.96
23.92
22.47
20.83
19.25
17.98
17.18
16.83
16.80
16.90
16.91
16.69
16.16
15.33
14.24
12.94
11.48
9.89
8.18
6.35
4.41
2.35
0.17
-2.16
-4.63
-7.27
-10.05
-12.93
-15.83
-18.79
-21.87
-25.23
-29.03
-33.25
-37.63
-41.64
-44.53
-45.59
-44.25
-40.31
-33.96
-25.74
-16.42
-6.80
2.35
10.42
16.99
21.86
25.01
26.59
26.89
26.22
24.86
23.05
20.97
18.79
16.68
14.77
13.19
11.98
11.13
10.61
10.37
10.42
10.77
11.37
12.09
12.74
13.09
12.93
12.11
10.60
8.45
5.79
2.80
-0.30
-3.37
-6.31
-9.14
-11.96
-14.90
-18.03
-21.37
-24.86
-28.40
-31.85
-34.97
-37.39
-38.60
-38.02
-35.20
-30.01
-22.73
-14.01
-4.70
4.32
12.37
19.03
24.13
27.68
29.80
30.66
30.46
29.37
27.58
25.27
22.63
19.89
17.30
15.08
13.34
12.15
11.45
11.16
11.16
11.34
11.58
11.71
11.56
10.98
9.88
8.25
6.14
3.65
0.89
-2.02
-4.97
-7.89
-10.69
-13.41
-16.16
-19.11
-22.39
-26.05
-29.96
-33.78
-37.01
-39.08
-39.41
-37.61
-33.54
-27.40
-19.67
-11.02
-2.15
6.29
13.84
20.19
25.15
28.67
30.78
31.61
31.38
30.30
28.63
26.56
24.28
22.01
19.98
18.36
17.26
16.66
16.39
16.25
16.06
15.71
15.13
14.33
13.32
12.15
10.90
9.62
8.32
6.92
5.27
3.17
0.52
-2.69
-6.29
-10.09
-13.84
-17.39
-20.72
-23.90
-27.10
-30.49
-34.19
-38.13
-42.07
-45.51
-47.79
-48.24
-46.32
-41.81
-34.86
-25.97
-15.91
-5.54
4.29
12.92
19.95
25.21
28.77
30.84
31.66
31.50
30.55
28.95
26.87
24.46
21.96
19.63
17.69
16.28
15.45
15.14
15.24
15.63
16.17
16.69
16.97
16.82
16.11
14.86
13.25
11.48
9.73
7.99
6.08
3.77
0.93
-2.46
-6.18
-9.93
-13.43
-16.54
-19.26
-21.75
-24.24
-26.93
-29.97
-33.33
-36.91
-40.43
-43.53
-45.75
-46.56
-45.49
-42.18
-36.54
-28.81
-19.56
-9.63
0.12
8.91
16.25
21.90
25.82
28.18
29.19
29.13
28.28
26.90
25.19
23.30
21.34
19.42
17.65
16.15
15.02
14.31
13.99
13.99
14.21
14.52
14.80
14.91
14.75
14.24
13.35
12.05
10.32
8.21
5.81
3.29
0.78
-1.64
-3.99
-6.42
-9.07
-11.98
-15.05
-18.08
-20.79
-23.06
-24.95
-26.70
-28.62
-30.92
-33.61
-36.44
-38.95
-40.57
-40.74
-39.06
-35.35
-29.64
-22.22
-13.58
-4.37
4.68
12.86
19.62
24.65
27.92
29.62
30.08
29.61
28.42
26.62
24.27
21.47
18.50
15.75
13.58
12.24
11.72
11.78
12.15
12.63
13.10
13.54
13.89
14.00
13.71
12.89
11.59
9.93
8.10
6.15
3.99
1.48
-1.44
-4.67
-7.99
-11.13
-13.96
-16.54
-19.08
-21.88
-25.10
-28.81
-32.81
-36.76
-40.12
-42.25
-42.55
-40.58
-36.16
-29.50
-21.10
-11.68
-2.01
7.23
15.50
22.39
27.65
31.21
33.10
33.55
32.81
31.21
29.06
26.61
24.07
21.59
19.28
17.24
15.55
14.29
13.48
13.09
13.04
13.16
13.31
13.34
13.17
12.77
12.17
11.35
10.27
8.88
7.14
5.03
2.63
0.03
-2.66
-5.40
-8.22
-11.15
-14.20
-17.26
-20.15
-22.76
-25.13
-27.49
-30.18
-33.46
-37.34
-41.42
-45.02
-47.31
-47.61
-45.52
-40.99
-34.32
-26.05
-16.84
-7.37
1.75
10.00
16.98
22.41
26.16
28.24
28.86
28.37
27.17
25.64
24.02
22.48
21.10
19.95
19.12
18.63
18.43
18.38
18.34
18.22
18.01
17.80
17.61
17.39
16.95
16.08
14.64
12.64
10.27
7.80
5.48
3.43
1.57
-0.29
-2.41
-4.98
-8.03
-11.42
-14.85
-18.01
-20.72
-23.03
-25.23
-27.68
-30.68
-34.28
-38.29
-42.23
-45.50
-47.47
-47.54
-45.28
-40.52
-33.44
-24.60
-14.79
-4.91
4.28
12.25
18.72
23.57
26.79
28.38
28.46
27.24
25.12
22.50
19.75
17.10
14.65
12.48
10.67
9.39
8.76
8.88
9.69
10.97
12.37
13.52
14.14
14.06
13.31
12.05
10.50
8.85
7.19
5.54
3.82
1.97
-0.05
-2.28
-4.71
-7.30
-9.96
-12.57
-14.99
-17.17
-19.19
-21.20
-23.47
-26.15
-29.28
-32.70
-36.07
-38.88
-40.56
-40.56
-38.46
-34.10
-27.63
-19.57
-10.59
-1.43
7.23
14.93
21.32
26.22
29.50
31.18
31.36
30.31
28.36
25.88
23.17
20.46
17.89
15.60
13.74
12.46
11.89
11.97
12.52
13.24
13.82
14.07
13.96
13.55
12.92
12.09
10.96
9.39
7.29
4.65
1.63
-1.58
-4.79
-7.86
-10.72
-13.39
-15.95
-18.54
-21.33
-24.45
-27.86
-31.30
-34.32
-36.32
-36.72
-35.08
-31.21
-25.26
-17.61
-8.88
0.19
8.88
16.52
22.68
27.13
29.90
31.15
31.13
30.10
28.30
25.92
23.15
20.23
17.42
15.00
13.18
12.08
11.72
11.98
12.71
13.72
14.86
15.95
16.78
17.12
16.72
15.48
13.45
10.88
8.07
5.27
2.54
-0.22
-3.19
-6.47
-9.95
-13.38
-16.47
-19.09
-21.36
-23.62
-26.25
-29.54
-33.53
-37.95
-42.31
-45.96
-48.19
-48.40
-46.20
-41.50
-34.55
-25.91
-16.27
-6.40
3.02
11.44
18.47
23.86
27.54
29.59
30.25
29.86
28.78
27.27
25.49
23.54
21.51
19.52
17.79
16.51
15.83
15.72
16.04
16.58
17.14
17.61
17.88
17.89
17.48
16.54
14.99
12.90
10.49
8.02
5.66
3.42
1.19
-1.21
-3.90
-6.86
-9.96
-13.01
-15.86
-18.43
-20.79
-23.08
-25.55
-28.41
-31.85
-35.82
-40.01
-43.85
-46.56
-47.36
-45.69
-41.37
-34.63
-26.06
-16.44
-6.58
2.80
11.11
17.96
23.12
26.55
28.38
28.89
28.35
27.02
25.10
22.77
20.23
17.71
15.52
13.93
13.08
13.02
13.63
14.71
15.94
17.05
17.73
17.81
17.23
16.06
14.46
12.63
10.76
8.91
7.09
5.24
3.27
1.14
-1.14
-3.55
-6.06
-8.64
-11.24
-13.81
-16.24
-18.47
-20.48
-22.44
-24.60
-27.25
-30.55
-34.37
-38.26
-41.51
-43.31
-42.96
-40.09
-34.72
-27.31
-18.60
-9.49
-0.78
6.95
13.41
18.51
22.29
24.77
25.95
25.87
24.69
22.69
20.29
17.89
15.81
14.23
13.21
12.74
12.74
13.15
13.84
14.66
15.42
15.98
16.26
16.24
15.93
15.37
14.49
13.22
11.45
9.12
6.26
3.04
-0.34
-3.65
-6.74
-9.58
-12.22
-14.77
-17.36
-20.10
-23.08
-26.34
-29.81
-33.23
-36.14
-37.89
-37.84
-35.53
-30.84
-24.06
-15.81
-6.82
2.14
10.43
17.51
23.01
26.71
28.62
28.97
28.18
26.73
25.00
23.24
21.52
19.84
18.19
16.63
15.26
14.21
13.56
13.35
13.52
13.94
14.44
14.84
15.00
14.79
14.17
13.11
11.62
9.75
7.58
5.22
2.76
0.23
-2.40
-5.22
-8.24
-11.44
-14.71
-17.98
-21.26
-24.70
-28.49
-32.72
-37.25
-41.60
-45.10
-46.94
-46.48
-43.37
-37.64
-29.71
-20.28
-10.19
-0.32
8.55
15.87
21.33
24.88
26.78
27.42
27.26
26.68
25.91
24.97
23.80
22.36
20.68
18.99
17.59
16.77
16.69
17.30
18.36
19.51
20.36
20.64
20.21
19.10
17.41
15.33
12.96
10.38
7.61
4.70
1.72
-1.25
-4.10
-6.82
-9.48
-12.18
-15.00
-17.95
-20.98
-24.04
-27.18
-30.46
-33.96
-37.62
-41.16
-44.07
-45.71
-45.45
-42.86
-37.85
-30.68
-22.02
-12.66
-3.45
4.96
12.17
18.00
22.43
25.46
27.14
27.54
26.86
25.40
23.55
21.65
19.96
18.60
17.63
17.05
16.87
17.10
17.72
18.64
19.71
20.72
21.48
21.85
21.74
21.15
20.06
18.48
16.41
13.86
10.89
7.62
4.25
0.94
-2.15
-5.02
-7.72
-10.38
-13.07
-15.82
-18.58
-21.35
-24.17
-27.17
-30.52
-34.31
-38.47
-42.68
-46.39
-48.93
-49.64
-48.06
-44.00
-37.64
-29.45
-20.09
-10.33
-0.93
7.46
14.31
19.33
22.48
23.91
23.97
23.08
21.65
19.98
18.27
16.67
15.26
14.20
13.63
13.65
14.29
15.49
17.15
19.08
21.12
23.01
24.48
25.24
25.05
23.82
21.67
18.85
15.68
12.41
9.14
5.88
2.60
-0.67
-3.86
-6.87
-9.67
-12.31
-14.91
-17.63
-20.57
-23.77
-27.25
-30.92
-34.65
-38.22
-41.24
-43.17
-43.40
-41.37
-36.78
-29.69
-20.58
-10.28
0.24
10.10
18.62
25.46
30.55
33.95
35.80
36.19
35.27
33.21
30.33
27.02
23.71
20.73
18.29
16.43
15.07
14.17
13.73
13.77
14.22
14.88
15.42
15.50
14.91
13.65
11.93
10.00
7.98
5.84
3.47
0.79
-2.13
-5.12
-8.01
-10.73
-13.36
-16.04
-18.86
-21.80
-24.80
-27.81
-30.89
-34.18
-37.71
-41.30
-44.40
-46.23
-45.91
-42.80
-36.73
-28.12
-17.86
-7.08
3.11
11.92
18.98
24.30
28.10
30.64
32.11
32.60
32.19
30.94
29.00
26.55
23.79
20.96
18.33
16.17
14.66
13.90
13.80
14.17
14.76
15.36
15.81
15.99
15.79
15.12
13.96
12.39
10.56
8.66
6.76
4.83
2.69
0.22
-2.69
-5.94
-9.37
-12.77
-15.90
-18.61
-20.84
-22.65
-24.25
-25.94
-28.10
-30.99
-34.66
-38.85
-43.00
-46.37
-48.18
-47.75
-44.71
-39.02
-31.05
-21.48
-11.13
-0.86
8.60
16.69
23.04
27.50
30.11
31.10
30.80
29.56
27.66
25.34
22.75
20.09
17.62
15.62
14.31
13.80
14.05
14.93
16.24
17.75
19.22
20.39
21.04
21.05
20.41
19.25
17.69
15.84
13.76
11.46
8.98
6.43
3.90
1.47
-0.88
-3.25
-5.78
-8.53
-11.49
-14.51
-17.40
-20.01
-22.28
-24.32
-26.35
-28.63
-31.38
-34.72
-38.49
-42.38
-45.82
-48.20
-48.91
-47.50
-43.77
-37.81
-29.99
-20.89
-11.22
-1.71
6.98
14.31
19.99
23.87
26.02
26.63
25.99
24.42
22.24
19.73
17.17
14.78
12.77
11.30
10.43
10.20
10.55
11.39
12.60
14.04
15.53
16.87
17.78
18.09
17.70
16.66
15.13
13.32
11.37
9.36
7.33
5.28
3.20
1.05
-1.24
-3.75
-6.48
-9.31
-12.04
-14.47
-16.56
-18.47
-20.56
-23.20
-26.60
-30.66
-34.96
-38.81
-41.43
-42.16
-40.55
-36.49
-30.22
-22.24
-13.24
-3.98
4.82
12.58
18.87
23.49
26.40
27.76
27.79
26.73
24.79
22.14
18.97
15.64
12.60
10.36
9.35
9.72
11.36
13.90
16.87
19.75
22.16
23.83
24.59
24.32
22.99
20.65
17.48
13.81
10.05
6.52
3.41
0.67
-1.90
-4.56
-7.48
-10.67
-13.98
-17.21
-20.29
-23.27
-26.36
-29.76
-33.55
-37.54
-41.32
-44.22
-45.55
-44.69
-41.28
-35.31
-27.19
-17.61
-7.46
2.42
11.31
18.75
24.55
28.71
31.40
32.81
33.12
32.47
30.98
28.75
25.93
22.76
19.51
16.54
14.15
12.58
11.90
12.04
12.82
14.01
15.36
16.65
17.66
18.18
18.04
17.20
15.72
13.76
11.48
8.98
6.22
3.14
-0.27
-3.92
-7.59
-11.09
-14.33
-17.34
-20.27
-23.24
-26.32
-29.58
-33.06
-36.82
-40.88
-45.04
-48.84
-51.55
-52.37
-50.65
-46.13
-39.00
-29.85
-19.50
-8.81
1.45
10.64
18.30
24.13
28.00
29.96
30.29
29.44
27.89
26.14
24.49
23.09
21.91
20.86
19.92
19.15
18.70
18.66
19.03
19.63
20.24
20.64
20.70
20.39
19.72
18.65
17.09
14.98
12.39
9.48
6.54
3.74
1.15
-1.36
-3.96
-6.78
-9.82
-12.94
-15.95
-18.73
-21.28
-23.74
-26.33
-29.29
-32.76
-36.71
-40.93
-45.04
-48.51
-50.75
-51.18
-49.35
-45.04
-38.33
-29.67
-19.75
-9.42
0.48
9.30
16.62
22.22
26.07
28.25
28.93
28.41
27.02
25.11
22.96
20.78
18.71
16.87
15.40
14.44
14.11
14.38
15.16
16.24
17.40
18.46
19.32
19.90
20.11
19.85
19.03
17.58
15.52
12.98
10.14
7.18
4.21
1.23
-1.81
-5.03
-8.40
-11.83
-15.09
-18.00
-20.51
-22.77
-25.09
-27.81
-31.12
-34.98
-39.07
-42.87
-45.77
-47.20
-46.66
-43.82
-38.56
-31.08
-21.90
-11.76
-1.54
7.91
15.96
22.19
26.46
28.84
29.56
28.99
27.51
25.51
23.27
20.97
18.71
16.61
14.85
13.61
13.11
13.35
14.21
15.37
16.47
17.23
17.48
17.22
16.49
15.43
14.11
12.56
10.76
8.66
6.23
3.51
0.62
-2.29
-5.10
-7.78
-10.46
-13.31
-16.50
-20.13
-24.19
-28.53
-32.90
-36.91
-40.01
-41.55
-40.91
-37.71
-31.91
-23.96
-14.63
-4.86
4.49
12.74
19.50
24.62
28.11
30.07
30.67
30.09
28.58
26.42
23.96
21.53
19.39
17.67
16.37
15.47
14.92
14.79
15.11
15.90
17.04
18.28
19.31
19.82
19.63
18.63
16.89
14.55
11.82
8.87
5.86
2.87
-0.13
-3.17
-6.28
-9.39
-12.42
-15.30
-18.07
-20.88
-23.95
-27.52
-31.66
-36.28
-41.07
-45.51
-48.96
-50.76
-50.34
-47.35
-41.77
-33.88
-24.31
-13.88
-3.49
6.04
14.10
20.34
24.69
27.29
28.46
28.52
27.77
26.45
24.76
22.84
20.88
19.05
17.51
16.41
15.80
15.71
16.08
16.85
17.89
19.09
20.27
21.21
21.64
21.33
20.13
18.07
15.36
12.34
9.33
6.53
3.99
1.59
-0.84
-3.45
-6.29
-9.31
-12.40
-15.45
-18.43
-21.41
-24.49
-27.80
-31.39
-35.26
-39.30
-43.28
-46.86
-49.54
-50.70
-49.73
-46.13
-39.75
-30.88
-20.25
-8.94
1.91
11.36
18.83
24.13
27.43
29.10
29.50
28.92
27.57
25.61
23.26
20.80
18.57
16.84
15.75
15.27
15.28
15.65
16.28
17.13
18.20
19.40
20.54
21.35
21.57
21.04
19.69
17.64
15.09
12.30
9.53
6.98
4.71
2.64
0.58
-1.73
-4.44
-7.57
-10.95
-14.35
-17.51
-20.29
-22.66
-24.69
-26.57
-28.55
-30.90
-33.81
-37.30
-41.09
-44.67
-47.29
-48.22
-46.86
-42.93
-36.51
-28.08
-18.38
-8.28
1.39
9.96
17.00
22.34
25.96
27.97
28.53
27.88
26.35
24.32
22.15
20.09
18.25
16.65
15.34
14.45
14.16
14.63
15.83
17.55
19.38
20.91
21.78
21.84
21.10
19.64
17.61
15.15
12.43
9.64
6.95
4.42
2.01
-0.40
-2.97
-5.79
-8.79
-11.84
-14.82
-17.66
-20.48
-23.51
-26.95
-30.90
-35.15
-39.18
-42.22
-43.47
-42.26
-38.32
-31.81
-23.30
-13.59
-3.54
6.10
14.71
21.91
27.41
31.13
33.09
33.45
32.49
30.54
27.99
25.22
22.60
20.37
18.71
17.67
17.21
17.23
17.64
18.32
19.15
20.01
20.70
21.04
20.86
20.12
18.80
17.00
14.85
12.46
9.96
7.42
4.92
2.48
0.06
-2.41
-4.99
-7.73
-10.59
-13.49
-16.39
-19.32
-22.36
-25.67
-29.33
-33.37
-37.74
-42.28
-46.70
-50.56
-53.24
-53.97
-52.07
-47.16
-39.35
-29.30
-18.09
-6.87
3.42
12.21
19.32
24.74
28.58
30.89
31.75
31.33
29.97
28.10
26.09
24.24
22.68
21.40
20.38
19.67
19.35
19.48
20.05
20.92
21.86
22.60
22.95
22.79
22.07
20.79
18.95
16.59
13.75
10.60
7.34
4.17
1.24
-1.46
-4.01
-6.62
-9.42
-12.52
-15.82
-19.19
-22.42
-25.38
-28.07
-30.65
-33.35
-36.39
-39.87
-43.70
-47.52
-50.73
-52.61
-52.43
-49.69
-44.26
-36.44
-26.88
-16.43
-6.00
3.63
11.86
18.32
22.84
25.48
26.51
26.29
25.25
23.78
22.15
20.56
19.14
17.96
17.07
16.46
16.08
15.89
15.89
16.12
16.66
17.46
18.34
19.01
19.16
18.56
17.21
15.28
13.02
10.66
8.33
6.06
3.80
1.49
-0.93
-3.44
-6.02
-8.59
-11.06
-13.40
-15.66
-18.01
-20.70
-23.91
-27.66
-31.70
-35.44
-38.16
-39.10
-37.68
-33.64
-27.19
-18.93
-9.73
-0.56
7.78
14.81
20.33
24.34
26.93
28.17
28.19
27.17
25.42
23.27
21.05
18.91
16.94
15.15
13.65
12.60
12.24
12.70
13.92
15.59
17.26
18.47
18.92
18.49
17.30
15.54
13.43
11.10
8.62
5.95
3.06
-0.10
-3.54
-7.21
-10.99
-14.70
-18.12
-21.14
-23.85
-26.52
-29.57
-33.28
-37.59
-41.98
-45.59
-47.40
-46.59
-42.77
-36.02
-26.84
-16.01
-4.46
6.88
17.22
25.93
32.63
37.22
39.82
40.72
40.30
38.94
37.01
34.88
32.88
31.23
30.01
29.25
28.90
28.97
29.43
30.35
31.85
33.94
36.53
39.31
41.83
43.64
44.51
44.25
43.16
41.94
41.30
41.54
42.36
43.06
42.86
41.37
38.15
33.52
28.25
23.06
18.19
13.44
8.61
3.81
-0.60
-5.41
-11.65
-20.36
-32.37
-47.67
-65.18
-82.91
-98.91
-112.30
-124.56
-137.04
-149.44
-159.42
-163.78
-160.44
-149.93
-135.80
-116.20
-93.21
-70.50
-50.64
-33.17
-16.12
1.37
18.30
32.75
43.48
49.64
52.11
52.84
53.57
55.04
56.76
58.11
58.76
58.78
57.84
56.17
54.40
53.28
53.13
53.64
54.50
55.35
55.76
54.92
52.36
48.27
43.26
38.02
32.75
27.50
22.03
15.67
7.37
-3.44
-16.45
-30.46
-43.81
-55.58
-64.89
-71.89
-77.60
-83.34
-90.29
-99.28
-110.88
-122.69
-134.93
-145.13
-148.89
-141.79
-121.62
-90.31
-53.76
-19.76
5.20
18.06
20.58
17.10
11.90
7.43
3.94
0.64
-2.78
-5.51
-6.34
-4.00
1.54
8.86
16.17
21.72
24.76
25.64
25.39
24.96
25.08
25.66
25.88
24.99
22.33
17.79
11.91
5.64
-0.06
-4.35
-6.97
-8.25
-8.46
-8.32
-8.55
-9.70
-11.89
-14.79
-17.59
-19.33
-19.25
-16.45
-11.12
-4.26
2.69
8.78
14.46
22.18
36.26
56.62
83.88
116.07
148.40
174.19
186.69
180.83
154.52
109.27
50.13
-14.18
-73.70
-119.18
-144.28
-147.22
-130.82
-100.91
-63.78
-23.78
18.40
64.46
116.49
174.53
235.02
290.80
332.71
352.35
344.93
311.48
258.43
195.76
133.55
79.21
36.01
3.45
-20.94
-39.73
-54.41
-65.64
-73.95
-80.28
-85.86
-91.84
-98.67
-105.96
-112.58
-117.29
-119.36
-118.66
-115.61
-110.63
-103.99
-95.75
-85.94
-74.88
-63.23
-51.86
-41.46
-32.32
-24.29
-17.06
-10.49
-4.97
-1.37
-0.92
-4.75
-13.47
-26.87
-43.43
-60.07
-72.16
-74.56
-63.58
-39.45
-7.46
23.14
42.33
43.40
25.71
-5.11
-39.62
-68.46
-85.55
-89.60
-83.35
-71.55
-58.89
-48.83
-43.36
-43.20
-47.99
-56.10
-64.48
-68.73
-64.13
-46.97
-16.37
24.60
69.04
107.63
131.54
134.86
116.10
78.00
26.06
-33.89
-97.55
-162.71
-228.37
-292.58
-350.75
-395.45
-418.22
-412.75
-377.60
-316.86
-238.35
-150.48
-59.59
30.54
117.25
197.10
265.23
316.66
348.82
363.54
367.07
367.76
372.80
385.49
404.57
425.34
442.32
451.66
452.44
446.36
436.35
424.76
412.30
397.90
379.48
355.31
324.85
288.93
249.10
206.80
162.81
117.35
70.69
23.68
-22.04
-64.54
-102.29
-134.80
-162.53
-186.24
-206.23
-221.78
-231.40
-233.52
-227.41
-213.76
-194.56
-172.49
-150.03
-128.82
-109.42
-91.64
-75.01
-59.31
-44.93
-32.71
-23.77
-18.98
-18.68
-22.50
-29.59
-38.83
-49.14
-59.78
-70.43
-81.25
-92.86
-106.08
-121.59
-139.41
-158.68
-177.55
-193.62
-204.59
-209.04
-206.83
-199.07
-187.63
-174.46
-161.08
-148.38
-136.80
-126.78
-118.93
-114.07
-112.90
-115.49
-121.02
-127.72
-133.37
-135.79
-133.44
-125.64
-112.54
-94.96
-74.13
-51.50
-28.58
-6.83
12.49
28.37
40.20
47.71
50.95
50.26
46.24
39.74
31.79
23.59
16.27
10.76
7.65
7.04
8.68
11.94
16.13
20.54
24.59
27.87
30.10
31.17
31.01
29.66
27.21
23.85
19.78
15.29
10.64
6.09
1.82
-2.16
-5.95
-9.80
-14.01
-18.79
-24.12
-29.66
-34.77
-38.54
-39.99
-38.36
-33.33
-25.17
-14.72
-3.15
8.31
18.67
27.29
33.90
38.45
40.97
41.51
40.16
37.19
33.08
28.48
24.03
20.23
17.27
15.08
13.45
12.12
11.02
10.18
9.76
9.85
10.41
11.22
11.99
12.41
12.26
11.46
10.07
8.23
6.06
3.70
1.17
-1.51
-4.38
-7.54
-11.15
-15.51
-20.81
-27.07
-33.81
-39.98
-44.17
-44.94
-41.40
-33.53
-22.24
-9.06
4.34
16.61
26.93
34.99
40.76
44.34
45.89
45.59
43.75
40.75
37.05
33.02
28.98
25.15
21.73
18.87
16.71
15.35
14.77
14.83
15.30
15.84
16.15
15.95
15.10
13.54
11.28
8.34
4.82
0.85
-3.31
-7.31
-10.81
-13.61
-15.79
-17.74
-20.04
-23.24
-27.61
-32.93
-38.39
-42.80
-44.73
-42.94
-36.81
-26.50
-13.05
1.92
16.67
29.78
40.49
48.61
54.35
57.92
59.48
59.04
56.76
52.98
48.29
43.34
38.71
34.76
31.63
29.28
27.56
26.17
24.73
22.83
20.17
16.62
12.24
7.10
1.13
-6.00
-14.77
-25.66
-38.91
-54.40
-71.65
-89.86
-107.96
-124.67
-138.74
-149.17
-155.46
-157.81
-156.91
-153.63
-148.58
-141.83
-132.97
-121.36
-106.69
-89.27
-70.03
-50.26
-31.05
-12.94
4.19
20.79
37.20
53.20
67.96
80.51
90.20
97.19
102.30
106.70
111.32
116.52
122.22
128.11
134.09
140.24
146.74
153.58
160.39
166.52
171.26
174.00
174.37
172.19
167.34
159.82
149.74
137.38
123.22
107.83
91.77
75.38
58.81
41.98
24.74
6.98
-11.21
-29.30
-46.39
-61.11
-71.98
-77.78
-77.85
-72.44
-62.61
-50.02
-36.59
-24.15
-14.15
-7.46
-4.31
-4.20
-6.16
-8.92
-11.27
-12.34
-11.72
-9.41
-5.67
-0.90
4.50
10.26
16.23
22.37
28.78
35.58
42.87
50.67
58.84
67.17
75.38
83.18
90.30
96.60
102.02
106.73
111.04
115.36
119.88
124.45
128.38
130.53
129.70
125.02
116.42
104.88
92.26
80.99
73.39
71.15
74.88
84.06
97.20
112.21
126.79
138.83
146.72
149.54
147.25
140.64
131.15
120.47
110.16
101.19
93.84
87.83
82.64
77.98
73.90
70.81
69.11
68.98
70.08
71.69
72.96
73.23
72.26
70.19
67.31
63.75
59.23
53.10
44.54
32.93
18.16
0.78
-18.11
-37.15
-54.95
-70.29
-82.16
-89.76
-92.62
-90.74
-84.86
-76.38
-67.19
-59.13
-53.48
-50.68
-50.34
-51.63
-53.67
-55.94
-58.20
-60.45
-62.63
-64.52
-65.84
-66.52
-66.84
-67.52
-69.48
-73.51
-79.88
-88.29
-97.93
-107.83
-117.17
-125.51
-132.71
-138.81
-143.78
-147.45
-149.47
-149.47
-147.21
-142.68
-136.16
-128.19
-119.51
-110.96
-103.28
-97.08
-92.68
-90.20
-89.54
-90.49
-92.68
-95.55
-98.32
-100.13
-100.28
-98.45
-94.91
-90.43
-85.95
-82.23
-79.52
-77.60
-75.95
-74.16
-72.07
-69.77
-67.42
-65.03
-62.51
-59.72
-56.73
-53.86
-51.57
-50.18
-49.66
-49.65
-49.56
-48.91
-47.48
-45.35
-42.80
-40.13
-37.56
-35.15
-32.91
-30.75
-28.59
-26.35
-23.99
-21.56
-19.17
-16.96
-15.03
-13.43
-12.15
-11.20
-10.64
-10.64
-11.33
-12.73
-14.69
-16.82
-18.71
-20.00
-20.58
-20.59
-20.35
-20.20
-20.28
-20.54
-20.75
-20.71
-20.31
-19.63
-18.86
-18.20
-17.76
-17.56
-17.57
-17.73
-18.06
-18.52
-19.03
-19.41
-19.40
-18.77
-17.43
-15.52
-13.37
-11.41
-9.99
-9.25
-9.09
-9.19
-9.16
-8.68
-7.64
-6.16
-4.48
-2.89
-1.61
-0.73
-0.20
0.11
0.30
0.41
0.44
0.35
0.09
-0.32
-0.82
-1.31
-1.71
-1.90
-1.82
-1.48
-0.96
-0.37
0.14
0.48
0.60
0.49
0.13
-0.49
-1.40
-2.54
-3.80
-5.01
-5.97
-6.55
-6.69
-6.42
-5.82
-5.10
-4.45
-4.10
-4.13
-4.54
-5.16
-5.73
-6.06
-6.05
-5.78
-5.39
-5.06
-4.92
-4.97
-5.14
-5.27
-5.22
-4.89
-4.25
-3.40
-2.51
-1.79
-1.40
-1.39
-1.65
-1.97
-2.10
-1.78
-0.87
0.69
2.73
4.96
7.01
8.59
9.56
10.03
10.27
10.57
11.10
11.84
12.63
13.29
13.74
14.03
14.27
14.58
14.91
15.18
15.31
15.27
15.16
15.05
14.97
14.78
14.27
13.21
11.59
9.62
7.75
6.42
5.91
6.14
6.75
7.29
7.43
7.10
6.47
5.86
5.58
5.78
6.54
7.79
9.42
11.21
12.76
13.63
13.40
11.94
9.44
6.50
3.81
2.01
1.39
1.85
3.03
4.42
5.58
6.23
6.36
6.09
5.67
5.38
5.42
5.96
7.02
8.58
10.56
12.89
15.50
18.30
21.19
24.08
26.91
29.67
32.43
35.29
38.29
41.38
44.41
47.19
49.58
51.54
53.24
55.01
57.17
59.93
63.22
66.71
69.77
71.85
72.56
71.87
70.05
67.53
64.71
61.82
58.91
55.91
52.62
48.90
44.62
39.73
34.32
28.60
22.90
17.64
13.15
9.64
7.11
5.43
4.32
3.54
2.91
2.32
1.79
1.36
1.13
1.19
1.64
2.54
3.95
5.85
8.10
10.53
12.82
14.70
15.93
16.43
16.22
15.48
14.40
13.17
11.89
10.58
9.20
7.65
5.85
3.74
1.32
-1.41
-4.45
-7.80
-11.56
-15.83
-20.67
-26.02
-31.62
-37.03
-41.77
-45.49
-48.01
-49.42
-49.87
-49.54
-48.60
-47.20
-45.57
-44.06
-43.05
-42.87
-43.56
-44.81
-46.08
-46.74
-46.37
-44.89
-42.59
-39.95
-37.42
-35.20
-33.18
-30.93
-28.03
-24.10
-19.12
-13.43
-7.69
-2.65
1.07
3.33
4.50
5.36
6.80
9.31
12.68
15.96
17.68
16.39
11.10
1.53
-11.76
-27.70
-45.01
-62.59
-79.72
-96.11
-111.71
-126.45
-140.02
-151.89
-161.51
-168.67
-173.72
-177.50
-181.10
-185.43
-190.91
-197.39
-204.24
-210.42
-214.64
-215.47
-211.58
-202.13
-187.00
-167.00
-143.73
-119.12
-95.02
-72.93
-53.77
-37.92
-25.30
-15.46
-7.72
-1.34
4.21
9.18
13.44
16.67
18.47
18.56
16.88
13.59
9.27
4.71
0.91
-1.32
-1.52
0.25
3.55
7.84
12.81
18.34
24.35
30.49
36.15
40.68
43.80
45.79
47.51
50.04
54.17
60.11
67.46
75.47
83.46
91.00
98.00
104.52
110.47
115.53
119.20
121.05
120.98
119.34
116.80
114.11
111.75
109.83
108.07
106.02
103.20
99.32
94.21
87.84
80.37
72.09
63.42
54.77
46.38
38.25
30.17
21.98
13.78
6.01
-0.67
-5.71
-8.96
-10.67
-11.61
-12.55
-13.84
-15.35
-16.83
-18.16
-19.56
-21.46
-24.15
-27.83
-32.13
-36.22
-38.99
-39.60
-37.75
-33.81
-28.58
-23.01
-18.33
-15.13
-13.01
-10.78
-7.01
-0.82
8.00
19.08
31.67
43.35
52.00
56.51
57.03
54.29
49.01
42.07
34.63
28.07
20.51
10.46
-1.80
-13.68
-21.89
-24.34
-20.68
-12.06
-0.74
5.75
1.54
-14.72
-39.65
-68.33
-98.19
-129.61
-164.42
-204.14
-254.87
-318.73
-391.60
-464.18
-526.65
-574.00
-606.21
-626.06
-597.15
-501.02
-348.41
-176.61
-22.50
98.34
189.15
261.76
327.36
391.30
446.02
484.01
502.36
504.39
497.99
489.53
481.85
474.32
464.08
443.30
407.24
357.36
295.57
230.87
171.80
124.47
92.18
75.16
67.65
62.45
53.59
38.46
18.47
-3.85
-25.65
-44.48
-58.86
-69.81
-78.66
-85.95
-90.73
-91.01
-86.29
-78.12
-69.38
-63.33
-62.80
-68.59
-79.09
-90.66
-98.71
-99.86
-92.77
-78.22
-58.56
-36.73
-15.34
3.97
20.55
34.63
46.44
55.90
62.64
66.25
66.59
63.98
59.13
52.92
46.26
39.77
33.83
28.63
24.16
20.33
17.00
14.02
11.40
9.19
7.45
6.16
5.07
3.81
2.02
-0.57
-4.07
-8.57
-14.23
-21.31
-29.95
-39.85
-50.00
-58.71
-63.90
-63.85
-57.68
-45.72
-29.36
-10.52
8.93
27.56
44.44
59.04
70.90
79.60
84.81
86.43
84.80
80.62
74.80
68.18
61.25
54.13
46.75
39.05
31.22
23.69
17.02
11.66
7.80
5.19
3.38
1.79
-0.06
-2.46
-5.49
-9.06
-12.96
-16.95
-20.84
-24.59
-28.35
-32.47
-37.42
-43.64
-51.30
-60.04
-68.90
-76.27
-80.22
-79.01
-71.60
-58.05
-39.49
-17.92
4.40
25.48
43.92
58.99
70.46
78.41
82.99
84.35
82.73
78.47
72.13
64.40
56.03
47.61
39.50
31.81
24.42
17.28
10.49
4.35
-0.73
-4.45
-6.74
-7.89
-8.39
-8.80
-9.54
-10.84
-12.74
-15.16
-18.01
-21.17
-24.59
-28.22
-32.06
-36.15
-40.61
-45.66
-51.48
-58.07
-64.96
-71.07
-74.85
-74.61
-69.01
-57.63
-41.14
-21.13
0.27
21.03
39.60
55.07
67.12
75.71
80.96
83.04
82.19
78.81
73.46
66.76
59.36
51.69
44.01
36.41
28.87
21.50
14.55
8.42
3.48
0.01
-2.01
-2.87
-3.06
-3.16
-3.67
-4.90
-6.96
-9.75
-13.00
-16.42
-19.75
-22.87
-25.80
-28.78
-32.17
-36.32
-41.46
-47.53
-54.06
-60.14
-64.49
-65.71
-62.62
-54.56
-41.64
-24.81
-5.63
14.09
32.63
48.69
61.49
70.73
76.43
78.81
78.23
75.10
69.88
63.06
55.13
46.52
37.62
28.79
20.33
12.50
5.54
-0.34
-4.95
-8.21
-10.08
-10.73
-10.50
-9.91
-9.53
-9.82
-11.06
-13.17
-15.88
-18.81
-21.66
-24.31
-26.91
-29.77
-33.27
-37.67
-43.06
-49.23
-55.66
-61.41
-65.20
-65.60
-61.36
-51.85
-37.32
-19.00
1.21
21.20
39.22
54.16
65.63
73.68
78.50
80.31
79.25
75.59
69.78
62.41
54.11
45.40
36.60
27.90
19.37
11.19
3.59
-3.12
-8.59
-12.57
-14.95
-15.82
-15.54
-14.69
-13.93
-13.86
-14.76
-16.60
-19.07
-21.76
-24.42
-27.02
-29.75
-32.93
-36.90
-41.94
-48.12
-55.22
-62.56
-68.93
-72.68
-72.11
-65.97
-53.93
-36.77
-16.19
5.66
26.72
45.50
61.07
73.02
81.23
85.67
86.46
83.90
78.54
71.16
62.65
53.73
44.85
36.23
27.89
19.84
12.23
5.36
-0.44
-4.89
-7.88
-9.45
-9.86
-9.50
-8.84
-8.41
-8.68
-9.94
-12.23
-15.32
-18.78
-22.25
-25.50
-28.58
-31.80
-35.62
-40.46
-46.54
-53.62
-60.91
-67.05
-70.29
-68.97
-62.03
-49.34
-31.88
-11.44
9.83
29.96
47.45
61.45
71.59
77.85
80.42
79.62
75.93
69.96
62.39
53.86
44.85
35.67
26.52
17.57
9.08
1.44
-4.84
-9.34
-11.84
-12.46
-11.64
-10.02
-8.28
-7.00
-6.54
-7.07
-8.54
-10.75
-13.43
-16.33
-19.34
-22.51
-26.09
-30.43
-35.86
-42.51
-50.16
-58.13
-65.23
-69.87
-70.38
-65.52
-54.90
-39.26
-20.32
-0.29
18.82
35.60
49.39
60.05
67.60
72.03
73.27
71.42
66.89
60.44
52.89
44.97
37.10
29.42
21.96
14.82
8.23
2.51
-2.00
-5.08
-6.68
-6.96
-6.28
-5.11
-4.01
-3.51
-4.00
-5.67
-8.48
-12.21
-16.50
-20.99
-25.30
-29.29
-33.00
-36.80
-41.25
-46.94
-54.11
-62.39
-70.63
-76.97
-79.29
-75.82
-65.74
-49.52
-28.81
-6.01
16.41
36.44
52.91
65.31
73.67
78.25
79.32
77.27
72.55
65.77
57.59
48.68
39.56
30.69
22.38
14.86
8.29
2.81
-1.42
-4.26
-5.60
-5.47
-4.15
-2.16
-0.22
0.94
0.78
-0.88
-3.89
-7.89
-12.44
-17.14
-21.73
-26.14
-30.45
-34.94
-40.01
-46.07
-53.28
-61.42
-69.56
-76.16
-79.28
-77.11
-68.55
-53.66
-33.76
-11.07
11.82
32.68
50.00
63.12
72.02
76.95
78.24
76.17
71.11
63.57
54.27
44.05
33.79
24.17
15.67
8.50
2.65
-1.94
-5.38
-7.67
-8.75
-8.55
-7.16
-4.87
-2.30
-0.19
0.79
0.26
-1.74
-4.87
-8.65
-12.70
-16.83
-21.09
-25.64
-30.65
-36.32
-42.81
-50.26
-58.51
-66.93
-74.17
-78.39
-77.65
-70.57
-56.88
-37.65
-15.01
8.42
30.20
48.56
62.54
71.93
76.93
77.93
75.41
69.94
62.15
52.83
42.77
32.75
23.36
14.96
7.76
1.92
-2.44
-5.15
-6.12
-5.39
-3.26
-0.26
2.84
5.23
6.20
5.32
2.58
-1.59
-6.51
-11.48
-16.06
-20.22
-24.38
-29.11
-35.02
-42.37
-50.87
-59.55
-66.85
-70.84
-69.76
-62.51
-49.13
-30.80
-9.61
12.00
31.82
48.30
60.61
68.58
72.47
72.71
69.80
64.26
56.61
47.47
37.56
27.72
18.84
11.63
6.45
3.24
1.60
0.95
0.79
0.83
1.01
1.39
1.99
2.65
3.02
2.61
0.87
-2.52
-7.56
-13.62
-19.50
-23.58
-24.35
-21.07
-14.34
-6.05
1.19
5.19
5.31
2.86
0.64
1.85
8.59
21.11
37.60
54.82
69.05
77.13
77.21
69.20
54.74
36.73
18.41
2.31
-10.63
-21.17
-31.11
-42.10
-54.49
-66.72
-75.74
-78.04
-71.00
-53.70
-27.14
6.19
43.19
81.05
117.96
153.52
188.80
225.66
265.63
308.47
351.27
388.75
414.76
424.60
416.79
393.58
359.68
320.14
278.46
236.00
192.68
148.38
103.82
60.41
19.43
-18.94
-55.88
-93.53
-134.24
-180.14
-232.86
-293.23
-360.42
-430.94
-498.01
-552.40
-584.96
-589.74
-566.06
-518.32
-453.76
-379.70
-301.81
-224.10
-150.03
-83.52
-28.73
11.62
37.82
53.32
62.84
69.84
74.88
76.05
71.20
59.65
44.01
29.70
22.34
24.28
32.79
41.03
41.30
28.76
2.58
-32.84
-69.01
-96.43
-108.40
-102.81
-81.29
-46.92
-2.73
46.56
95.48
139.00
173.02
194.39
201.09
193.52
174.66
148.75
116.22
74.40
20.22
-47.11
-125.04
-207.71
-286.24
-350.87
-378.89
-356.29
-290.58
-208.39
-136.06
-85.70
-55.78
-38.49
-26.34
-14.98
-6.07
-2.83
-5.70
-11.13
-13.82
-10.65
-1.32
12.67
29.84
47.11
61.94
73.83
84.31
95.13
106.84
119.50
129.21
134.79
135.24
130.53
122.04
112.45
104.25
98.56
95.06
92.48
90.09
86.82
82.23
77.01
72.61
70.27
70.17
71.76
74.27
78.02
83.85
93.13
107.35
127.25
151.84
177.79
200.01
212.90
212.45
197.22
168.65
130.16
85.44
36.85
-15.29
-72.11
-134.58
-201.57
-269.24
-331.52
-381.80
-415.05
-429.28
-425.89
-408.59
-381.63
-348.05
-309.06
-264.67
-215.28
-163.56
-115.39
-79.42
-64.44
-75.92
-112.60
-165.47
-219.68
-259.18
-271.89
-253.22
-206.66
-141.94
-72.00
-9.76
34.52
55.24
52.92
34.29
10.74
-5.38
-5.19
13.27
44.56
78.79
106.19
120.83
121.35
109.19
85.67
50.50
2.49
-57.88
-126.32
-194.44
-251.74
-289.34
-303.09
-294.90
-271.17
-239.58
-206.01
-172.89
-139.72
-104.83
-67.51
-28.76
9.10
43.83
74.78
103.30
132.00
163.12
196.94
231.09
261.21
282.76
292.92
291.92
282.78
270.00
257.66
247.96
240.85
234.70
227.59
218.34
206.90
193.96
180.28
166.18
151.35
135.15
117.18
97.68
77.73
58.86
42.51
29.35
19.06
10.48
2.29
-6.36
-15.46
-24.24
-31.75
-37.55
-42.10
-46.61
-52.41
-60.14
-69.23
-77.87
-83.63
-84.32
-78.73
-67.05
-50.60
-31.38
-11.37
7.80
25.12
39.95
51.96
60.96
66.88
69.92
70.54
69.46
67.54
65.59
64.16
63.44
63.24
63.21
63.04
62.65
62.30
62.39
63.27
65.07
67.54
70.20
72.49
73.89
74.13
73.16
71.16
68.42
65.18
61.57
57.51
52.82
47.29
40.86
33.66
25.96
18.11
10.40
3.00
-4.04
-10.88
-17.88
-25.53
-34.32
-44.40
-55.40
-66.47
-76.50
-84.57
-90.14
-93.17
-93.99
-93.06
-90.78
-87.44
-83.08
-77.50
-70.30
-61.03
-49.49
-35.89
-20.93
-5.58
9.23
22.96
35.39
46.44
55.91
63.44
68.66
71.46
72.07
70.99
68.77
65.82
62.44
58.93
55.72
53.34
52.28
52.68
54.30
56.59
58.89
60.72
61.90
62.52
62.78
62.76
62.34
61.27
59.29
56.39
52.81
48.99
45.30
41.91
38.75
35.56
32.09
28.27
24.20
20.09
16.16
12.51
9.15
5.99
2.88
-0.30
-3.70
-7.37
-11.30
-15.37
-19.48
-23.67
-28.14
-33.23
-39.23
-46.20
-53.83
-61.54
-68.54
-73.89
-76.66
-75.93
-71.01
-61.58
-47.94
-30.98
-12.01
7.60
26.71
44.44
59.98
72.41
80.77
84.40
83.42
79.08
73.57
69.56
69.67
75.85
88.79
107.23
127.69
144.86
153.08
148.45
130.58
102.99
71.72
42.77
19.82
3.42
-7.93
-15.84
-20.56
-20.91
-15.61
-4.82
9.16
22.60
31.93
35.22
32.78
26.68
19.64
13.94
10.73
10.04
11.13
13.06
15.05
16.69
17.81
18.29
17.95
16.54
13.99
10.66
7.43
5.43
5.54
7.90
11.62
15.04
16.43
14.91
11.05
6.85
5.11
8.29
17.50
31.78
48.11
62.18
69.65
67.46
54.58
32.05
2.12
-32.81
-71.10
-112.28
-156.81
-205.18
-257.16
-310.93
-363.11
-409.49
-446.29
-471.38
-484.74
-488.18
-484.31
-475.32
-462.13
-444.39
-421.08
-391.36
-355.12
-313.02
-266.16
-215.77
-163.08
-109.44
-56.30
-5.22
42.59
86.55
127.06
165.79
205.77
250.95
304.89
368.77
439.52
509.66
568.71
606.69
617.72
602.18
566.22
518.93
468.65
420.31
374.85
330.66
285.62
238.43
188.65
136.12
80.68
22.70
-35.95
-91.37
-138.29
-171.72
-188.82
-190.13
-179.35
-161.92
-143.23
-127.15
-115.51
-108.39
-104.77
-103.20
-102.26
-100.84
-98.35
-94.86
-91.02
-87.77
-85.96
-86.02
-87.79
-90.61
-93.61
-95.97
-97.18
-97.06
-95.67
-93.30
-90.38
-87.40
-84.81
-82.77
-80.89
-78.04
-72.52
-62.65
-47.53
-27.73
-5.30
16.81
35.77
49.81
58.59
62.88
63.80
62.12
57.99
51.21
41.77
30.28
18.03
6.77
-1.86
-6.58
-6.67
-1.98
7.20
20.13
35.68
52.35
68.39
82.12
92.26
98.14
99.77
97.71
92.75
85.76
77.48
68.50
59.35
50.45
42.13
34.62
28.04
22.53
18.15
14.93
12.80
11.47
10.56
9.59
8.12
5.78
2.36
-2.22
-7.88
-14.42
-21.54
-28.88
-36.14
-43.14
-49.79
-56.10
-62.05
-67.62
-72.84
-77.83
-82.85
-88.21
-94.03
-100.03
-105.37
-108.79
-108.96
-104.89
-96.35
-83.93
-68.96
-53.11
-37.94
-24.62
-13.77
-5.52
0.33
4.10
6.16
6.84
6.45
5.26
3.59
1.72
-0.07
-1.60
-2.76
-3.52
-3.88
-3.84
-3.43
-2.69
-1.71
-0.65
0.29
0.89
0.97
0.39
-0.93
-3.04
-5.89
-9.36
-13.17
-17.03
-20.63
-23.83
-26.66
-29.42
-32.51
-36.31
-40.98
-46.28
-51.59
-55.89
-58.06
-57.10
-52.39
-43.90
-32.20
-18.37
-3.75
10.28
22.60
32.49
39.63
44.07
46.13
46.23
44.85
42.38
39.14
35.32
31.05
26.47
21.82
17.39
13.50
10.45
8.38
7.28
7.02
7.43
8.33
9.54
10.81
11.80
12.14
11.47
9.59
6.57
2.70
-1.56
-5.79
-9.70
-13.26
-16.64
-20.12
-24.02
-28.60
-33.93
-39.77
-45.56
-50.32
-52.85
-52.02
-47.10
-38.10
-25.86
-11.80
2.47
15.53
26.43
34.77
40.49
43.77
44.80
43.85
41.22
37.34
32.71
27.83
23.13
18.89
15.30
12.41
10.21
8.69
7.83
7.58
7.85
8.42
8.95
9.04
8.38
6.78
4.30
1.17
-2.29
-5.83
-9.32
-12.76
-16.28
-20.03
-24.17
-28.89
-34.28
-40.31
-46.58
-52.25
-56.11
-56.84
-53.42
-45.56
-33.87
-19.71
-4.88
8.97
20.66
29.60
35.71
39.22
40.50
39.92
37.90
34.89
31.34
27.66
24.15
21.00
18.30
16.09
14.41
13.29
12.77
12.84
13.40
14.29
15.26
16.01
16.19
15.48
13.64
10.57
6.38
1.33
-4.18
-9.75
-15.08
-20.06
-24.79
-29.50
-34.46
-39.94
-46.00
-52.44
-58.76
-64.02
-67.04
-66.65
-62.01
-52.96
-40.17
-24.98
-9.05
5.98
18.95
29.21
36.66
41.47
43.99
44.65
43.88
42.14
39.80
37.12
34.27
31.35
28.48
25.86
23.79
22.49
22.10
22.51
23.40
24.39
25.06
25.14
24.49
23.06
20.89
18.00
14.41
10.13
5.24
-0.15
-5.81
-11.49
-16.97
-22.09
-26.87
-31.41
-35.94
-40.70
-45.93
-51.68
-57.73
-63.38
-67.54
-68.86
-66.14
-58.75
-46.93
-31.79
-15.06
1.42
16.06
27.89
36.57
42.27
45.48
46.74
46.56
45.31
43.31
40.81
38.11
35.51
33.22
31.33
29.77
28.44
27.30
26.44
26.02
26.20
26.93
27.89
28.55
28.39
27.04
24.48
21.04
17.22
13.53
10.24
7.35
4.55
1.48
-2.17
-6.47
-11.27
-16.25
-21.09
-25.58
-29.68
-33.51
-37.30
-41.38
-46.05
-51.48
-57.54
-63.60
-68.57
-71.04
-69.71
-63.78
-53.27
-39.15
-22.96
-6.51
8.63
21.40
31.27
38.19
42.39
44.19
43.98
42.17
39.24
35.71
32.13
28.92
26.32
24.38
23.05
22.28
22.14
22.78
24.24
26.42
28.86
30.94
32.05
31.78
30.15
27.53
24.43
21.32
18.40
15.60
12.60
9.04
4.74
-0.26
-5.66
-10.99
-15.87
-20.06
-23.63
-26.85
-30.11
-33.78
-38.16
-43.34
-49.14
-55.00
-59.91
-62.58
-61.67
-56.32
-46.45
-32.92
-17.33
-1.55
12.77
24.53
33.33
39.29
42.82
44.39
44.43
43.29
41.24
38.57
35.61
32.68
30.09
28.00
26.47
25.52
25.09
25.20
25.89
27.13
28.74
30.39
31.65
32.14
31.68
30.27
28.16
25.63
22.94
20.19
17.34
14.23
10.73
6.81
2.57
-1.71
-5.70
-9.21
-12.23
-14.99
-17.83
-21.01
-24.60
-28.42
-32.15
-35.54
-38.50
-41.13
-43.68
-46.47
-49.76
-53.73
-58.40
-63.47
-68.19
-71.42
-71.80
-68.19
-60.09
-47.90
-32.85
-16.64
-0.99
12.79
23.93
32.21
37.72
40.78
41.80
41.23
39.59
37.33
34.84
32.38
30.13
28.22
26.75
25.83
25.52
25.84
26.70
27.96
29.44
30.97
32.35
33.38
33.80
33.44
32.24
30.28
27.80
25.08
22.34
19.68
17.06
14.36
11.48
8.39
5.13
1.82
-1.42
-4.45
-7.22
-9.71
-12.01
-14.24
-16.55
-19.09
-21.92
-25.02
-28.27
-31.47
-34.43
-37.06
-39.42
-41.80
-44.64
-48.37
-53.21
-58.92
-64.75
-69.46
-71.56
-69.82
-63.60
-53.14
-39.47
-24.15
-8.82
5.18
16.97
26.20
32.85
37.13
39.34
39.85
39.03
37.26
34.86
32.10
29.22
26.42
23.89
21.81
20.30
19.46
19.29
19.72
20.66
21.95
23.37
24.65
25.49
25.60
24.81
23.11
20.65
17.70
14.58
11.52
8.57
5.69
2.66
-0.68
-4.40
-8.45
-12.60
-16.54
-20.02
-22.90
-25.19
-27.09
-28.86
-30.83
-33.31
-36.53
-40.57
-45.28
-50.10
-54.14
-56.18
-55.12
-50.24
-41.51
-29.69
-16.12
-2.35
10.27
20.85
29.00
34.68
38.09
39.52
39.29
37.81
35.45
32.56
29.39
26.02
22.55
19.16
16.15
13.89
12.71
12.68
13.63
15.21
17.02
18.73
20.11
21.03
21.31
20.85
19.57
17.54
14.94
12.09
9.24
6.58
4.13
1.80
-0.56
-3.13
-6.00
-9.21
-12.69
-16.32
-19.94
-23.42
-26.65
-29.62
-32.38
-35.12
-38.10
-41.64
-45.98
-51.09
-56.53
-61.44
-64.72
-65.31
-62.44
-55.93
-46.13
-33.87
-20.24
-6.43
6.44
17.50
26.16
32.25
36.00
37.82
38.24
37.66
36.35
34.47
32.16
29.58
26.94
24.44
22.28
20.60
19.52
19.13
19.40
20.19
21.22
22.13
22.60
22.43
21.62
20.30
18.65
16.84
14.93
12.91
10.66
8.09
5.13
1.82
-1.75
-5.46
-9.19
-12.92
-16.65
-20.38
-24.08
-27.67
-31.03
-34.09
-36.87
-39.48
-42.12
-45.06
-48.47
-52.32
-56.23
-59.45
-60.89
-59.47
-54.46
-45.76
-34.10
-20.76
-7.25
5.14
15.56
23.68
29.57
33.45
35.58
36.22
35.62
34.08
31.90
29.34
26.57
23.71
20.88
18.25
16.07
14.57
13.92
14.14
15.12
16.64
18.42
20.15
21.54
22.32
22.28
21.36
19.60
17.20
14.38
11.31
8.12
4.79
1.29
-2.41
-6.30
-10.27
-14.20
-17.94
-21.40
-24.56
-27.47
-30.30
-33.28
-36.69
-40.70
-45.30
-50.12
-54.43
-57.24
-57.48
-54.39
-47.66
-37.67
-25.35
-12.02
0.99
12.56
22.02
29.12
33.96
36.84
38.05
37.91
36.68
34.65
32.12
29.37
26.62
24.00
21.57
19.33
17.37
15.82
14.82
14.47
14.70
15.29
15.85
16.01
15.48
14.18
12.18
9.68
6.87
3.87
0.67
-2.80
-6.61
-10.76
-15.08
-19.32
-23.28
-26.84
-30.09
-33.28
-36.72
-40.58
-44.86
-49.32
-53.47
-56.60
-57.83
-56.31
-51.41
-42.97
-31.48
-18.03
-4.05
9.09
20.33
29.09
35.25
39.00
40.63
40.53
39.11
36.80
34.03
31.12
28.28
25.56
22.91
20.27
17.66
15.24
13.24
11.95
11.55
12.03
13.14
14.44
15.42
15.63
14.86
13.15
10.67
7.71
4.51
1.20
-2.19
-5.73
-9.47
-13.45
-17.64
-22.01
-26.48
-31.00
-35.49
-39.88
-44.10
-48.21
-52.42
-57.03
-62.35
-68.36
-74.54
-79.78
-82.61
-81.68
-76.27
-66.66
-54.09
-40.39
-27.44
-16.75
-9.17
-4.82
-3.10
-2.84
-2.51
-0.58
4.04
11.62
21.52
32.43
42.87
51.68
58.28
62.61
64.92
65.46
64.46
62.15
58.84
54.94
50.90
46.98
43.25
39.65
36.12
32.75
29.78
27.51
26.15
25.67
25.80
26.06
25.97
25.15
23.49
21.05
18.05
14.78
11.43
8.12
4.84
1.54
-1.86
-5.47
-9.31
-13.38
-17.59
-21.77
-25.74
-29.31
-32.45
-35.32
-38.26
-41.68
-45.81
-50.52
-55.13
-58.51
-59.38
-56.69
-50.00
-39.67
-26.78
-12.80
0.75
12.70
22.33
29.40
33.98
36.34
36.84
35.85
33.80
31.04
27.89
24.57
21.25
18.04
15.14
12.73
11.03
10.23
10.34
11.26
12.73
14.46
16.18
17.63
18.65
19.08
18.77
17.62
15.59
12.75
9.27
5.41
1.41
-2.59
-6.55
-10.50
-14.50
-18.63
-22.98
-27.68
-32.85
-38.49
-44.26
-49.43
-52.91
-53.54
-50.46
-43.41
-32.93
-20.18
-6.68
6.19
17.35
26.26
32.76
37.04
39.37
40.09
39.52
37.96
35.69
32.95
29.91
26.68
23.37
20.08
17.02
14.45
12.65
11.72
11.60
12.00
12.47
12.59
12.13
11.05
9.53
7.79
5.98
4.08
1.93
-0.68
-3.90
-7.69
-11.82
-15.84
-19.27
-21.69
-22.94
-23.26
-23.25
-23.71
-25.36
-28.55
-33.09
-38.20
-42.70
-45.30
-44.87
-40.80
-33.08
-22.34
-9.75
3.30
15.51
25.86
33.87
39.40
42.65
43.89
43.48
41.78
39.18
36.09
32.84
29.59
26.37
23.14
19.87
16.78
14.20
12.51
11.94
12.43
13.66
15.10
16.21
16.56
15.97
14.50
12.42
10.03
7.59
5.18
2.74
0.09
-2.98
-6.56
-10.61
-14.94
-19.28
-23.33
-26.94
-30.12
-33.07
-36.22
-40.06
-44.95
-50.91
-57.32
-63.04
-66.57
-66.53
-62.10
-53.30
-41.01
-26.66
-11.86
2.03
14.08
23.83
31.17
36.22
39.24
40.54
40.48
39.43
37.77
35.78
33.67
31.48
29.18
26.71
24.10
21.57
19.45
18.14
17.86
18.57
19.90
21.28
22.11
21.95
20.64
18.30
15.27
11.99
8.83
6.02
3.56
1.25
-1.20
-4.07
-7.49
-11.44
-15.75
-20.13
-24.32
-28.15
-31.53
-34.56
-37.45
-40.56
-44.20
-48.49
-53.14
-57.35
-59.95
-59.70
-55.70
-47.66
-36.14
-22.36
-7.88
5.78
17.46
26.56
32.95
36.89
38.80
39.15
38.29
36.47
33.87
30.63
26.92
22.96
18.99
15.31
12.23
10.05
8.97
9.05
10.14
11.89
13.83
15.48
16.46
16.59
15.88
14.48
12.57
10.30
7.72
4.83
1.63
-1.88
-5.61
-9.45
-13.28
-17.00
-20.63
-24.29
-28.23
-32.69
-37.75
-43.12
-48.10
-51.58
-52.36
-49.54
-42.84
-32.74
-20.36
-7.09
5.78
17.27
26.82
34.20
39.37
42.38
43.38
42.64
40.57
37.71
34.54
31.38
28.37
25.47
22.63
19.93
17.58
15.84
14.94
14.93
15.65
16.80
18.01
18.90
19.18
18.62
17.10
14.70
11.67
8.36
5.12
2.11
-0.75
-3.70
-7.02
-10.78
-14.87
-18.98
-22.80
-26.21
-29.33
-32.53
-36.21
-40.74
-46.22
-52.43
-58.71
-64.05
-67.20
-66.92
-62.39
-53.43
-40.75
-25.75
-10.15
4.39
16.72
26.32
33.18
37.64
40.11
40.97
40.58
39.25
37.28
34.95
32.42
29.83
27.17
24.52
21.95
19.69
18.03
17.21
17.33
18.29
19.70
21.09
21.92
21.80
20.61
18.49
15.81
12.98
10.32
7.93
5.64
3.15
0.16
-3.46
-7.66
-12.18
-16.68
-20.89
-24.64
-27.93
-30.93
-33.89
-37.16
-40.99
-45.49
-50.38
-54.96
-58.21
-58.98
-56.34
-49.94
-40.10
-27.79
-14.37
-1.21
10.59
20.32
27.70
32.78
35.78
37.04
36.96
35.91
34.22
32.07
29.60
26.85
23.91
20.92
18.12
15.80
14.19
13.43
13.52
14.29
15.51
16.83
17.94
18.56
18.49
17.67
16.19
14.19
11.85
9.26
6.46
3.40
0.06
-3.57
-7.43
-11.41
-15.37
-19.18
-22.77
-26.19
-29.54
-33.07
-37.01
-41.51
-46.42
-51.15
-54.75
-56.02
-53.95
-48.04
-38.50
-26.30
-12.86
0.37
12.18
21.86
29.16
34.16
37.09
38.23
37.86
36.23
33.65
30.43
26.89
23.25
19.72
16.46
13.63
11.43
10.03
9.48
9.69
10.47
11.49
12.45
13.13
13.39
13.11
12.25
10.75
8.60
5.87
2.70
-0.75
-4.31
-7.92
-11.60
-15.42
-19.51
-23.96
-28.85
-34.21
-39.86
-45.48
-50.40
-53.73
-54.46
-51.77
-45.28
-35.31
-22.83
-9.21
4.08
15.86
25.44
32.58
37.37
40.08
40.97
40.30
38.39
35.62
32.38
29.02
25.77
22.68
19.72
16.93
14.43
12.46
11.29
11.04
11.60
12.65
13.75
14.49
14.60
13.96
12.60
10.59
8.07
5.19
2.09
-1.08
-4.25
-7.43
-10.67
-14.06
-17.58
-21.17
-24.74
-28.26
-31.80
-35.56
-39.80
-44.69
-50.15
-55.70
-60.46
-63.23
-62.84
-58.50
-50.11
-38.38
-24.63
-10.40
2.97
14.57
24.01
31.21
36.25
39.22
40.27
39.69
37.90
35.44
32.78
30.19
27.76
25.42
23.16
21.07
19.38
18.34
18.09
18.60
19.66
20.99
22.25
23.15
23.45
23.01
21.72
19.60
16.77
13.44
9.87
6.28
2.78
-0.62
-4.02
-7.57
-11.35
-15.36
-19.47
-23.51
-27.27
-30.64
-33.63
-36.45
-39.44
-42.96
-47.25
-52.19
-57.19
-61.18
-62.87
-61.08
-55.18
-45.33
-32.45
-18.01
-3.57
9.55
20.52
28.99
35.00
38.76
40.61
40.90
39.99
38.28
36.12
33.78
31.40
29.01
26.59
24.20
22.02
20.32
19.40
19.38
20.14
21.38
22.64
23.56
23.95
23.78
23.13
22.07
20.61
18.74
16.51
14.00
11.35
8.68
6.00
3.26
0.38
-2.72
-6.01
-9.41
-12.83
-16.19
-19.47
-22.64
-25.67
-28.51
-31.16
-33.62
-36.05
-38.70
-41.90
-45.87
-50.57
-55.53
-59.82
-62.21
-61.48
-56.86
-48.28
-36.46
-22.68
-8.48
4.79
16.21
25.39
32.26
37.00
39.78
40.77
40.16
38.24
35.42
32.19
28.96
26.01
23.45
21.26
19.45
18.10
17.38
17.44
18.27
19.69
21.36
22.90
23.95
24.28
23.73
22.23
19.87
16.79
13.25
9.46
5.56
1.60
-2.47
-6.62
-10.73
-14.58
-17.94
-20.72
-23.07
-25.34
-27.98
-31.36
-35.64
-40.66
-45.93
-50.66
-53.86
-54.53
-51.84
-45.41
-35.48
-22.90
-9.01
4.74
17.08
27.19
34.76
39.85
42.74
43.75
43.18
41.33
38.54
35.15
31.57
28.11
25.01
22.35
20.16
18.41
17.09
16.18
15.68
15.59
15.87
16.43
17.09
17.63
17.77
17.25
15.89
13.70
10.83
7.57
4.22
0.98
-2.08
-5.04
-8.05
-11.22
-14.56
-17.98
-21.39
-24.70
-27.89
-31.02
-34.14
-37.31
-40.59
-44.06
-47.83
-51.93
-56.21
-60.12
-62.72
-62.85
-59.45
-52.04
-40.92
-27.22
-12.53
1.57
13.92
23.94
31.55
36.92
40.27
41.82
41.79
40.51
38.38
35.81
33.11
30.44
27.79
25.12
22.45
19.92
17.85
16.52
16.12
16.64
17.78
19.20
20.49
21.40
21.79
21.64
20.94
19.65
17.75
15.27
12.38
9.32
6.34
3.54
0.90
-1.77
-4.72
-8.09
-11.93
-16.12
-20.41
-24.49
-28.09
-31.06
-33.46
-35.60
-37.93
-40.98
-45.08
-50.15
-55.57
-60.27
-62.88
-62.19
-57.50
-48.82
-36.91
-23.07
-8.75
4.70
16.30
25.52
32.24
36.64
39.10
40.05
39.89
38.89
37.25
35.10
32.57
29.76
26.84
24.00
21.44
19.37
17.96
17.30
17.36
17.98
18.89
19.83
20.51
20.70
20.30
19.25
17.62
15.55
13.21
10.76
8.28
5.77
3.16
0.39
-2.53
-5.52
-8.50
-11.44
-14.37
-17.36
-20.48
-23.72
-26.95
-30.05
-32.97
-35.78
-38.77
-42.23
-46.29
-50.71
-54.80
-57.49
-57.60
-54.25
-47.13
-36.67
-23.95
-10.32
2.86
14.59
24.26
31.64
36.73
39.66
40.64
39.94
37.93
35.01
31.56
27.88
24.15
20.53
17.15
14.24
12.02
10.72
10.43
11.11
12.54
14.36
16.16
17.57
18.29
18.17
17.22
15.54
13.31
10.66
7.67
4.40
0.83
-2.98
-6.95
-10.93
-14.77
-18.34
-21.59
-24.58
-27.49
-30.64
-34.32
-38.67
-43.55
-48.42
-52.33
-54.15
-52.83
-47.79
-39.11
-27.59
-14.51
-1.32
10.76
20.93
28.86
34.63
38.48
40.69
41.50
41.06
39.54
37.17
34.23
30.98
27.66
24.38
21.23
18.34
15.94
14.32
13.77
14.40
16.05
18.29
20.57
22.35
23.29
23.27
22.35
20.72
18.56
15.97
13.00
9.71
6.20
2.63
-0.83
-4.10
-7.23
-10.34
-13.59
-17.11
-20.91
-24.92
-29.00
-32.98
-36.69
-40.10
-43.29
-46.57
-50.26
-54.49
-58.91
-62.48
-63.66
-60.85
-53.04
-40.39
-24.37
-7.38
7.95
19.67
27.11
30.94
32.72
34.10
36.03
38.46
40.59
41.34
40.05
36.77
32.13
27.14
23.17
22.24
26.81
38.94
58.78
83.30
106.47
121.08
121.81
107.68
82.61
53.61
27.50
8.27
-3.77
-10.82
-15.48
-19.20
-22.13
-24.00
-25.17
-26.87
-30.51
-36.73
-44.97
-53.59
-60.60
-64.58
-65.21
-63.40
-60.79
-59.17
-59.69
-62.41
-66.24
-69.29
-69.54
-65.48
-56.57
-43.37
-27.35
-10.50
5.25
18.41
28.34
35.11
39.39
41.97
43.44
43.95
43.38
41.59
38.69
35.20
31.80
29.03
27.06
25.67
24.57
23.64
23.10
23.36
24.71
27.05
29.84
32.38
33.99
34.32
33.34
31.21
28.18
24.56
20.80
17.50
15.35
14.86
16.22
19.14
22.96
26.92
30.39
33.08
35.10
36.92
39.15
42.28
