1679645954.00
64.000000
-0.00
-0.00
-0.00
-0.00
-0.00
-0.00
-0.00
-0.00
-0.00
-0.00
0.00
0.01
0.01
-0.00
-0.03
-0.05
-0.05
0.00
0.13
0.36
0.66
1.01
1.37
1.72
2.06
2.40
2.79
3.24
3.80
4.42
5.06
5.66
6.20
6.68
7.15
7.68
8.31
9.14
10.09
11.04
11.88
12.56
13.14
13.76
14.65
15.96
17.91
20.32
22.90
25.38
27.58
29.57
31.68
34.32
37.81
42.54
48.15
54.10
59.83
64.97
69.58
74.14
79.34
85.71
93.76
103.00
112.62
121.73
129.77
136.75
143.30
150.75
157.77
166.64
177.95
191.79
206.97
220.57
228.25
225.36
208.53
176.87
132.76
80.05
23.07
-34.94
-92.44
-149.16
-205.23
-260.37
-313.74
-363.87
-409.83
-450.91
-486.50
-515.74
-537.23
-549.22
-549.96
-538.37
-514.21
-478.67
-433.88
-382.45
-327.02
-269.84
-212.63
-156.66
-102.95
-52.37
-5.90
35.58
71.43
101.35
125.50
144.38
158.69
169.15
176.37
180.75
182.57
182.07
179.51
175.23
169.65
163.18
156.15
148.81
141.30
133.69
126.02
118.33
110.69
103.16
95.80
88.68
81.83
75.25
68.95
62.95
57.25
51.86
46.78
42.03
37.59
33.45
29.61
26.07
22.81
19.83
17.11
14.67
12.48
10.54
8.83
7.35
6.07
4.97
4.05
3.27
2.62
2.09
1.65
1.30
1.01
0.79
0.61
0.47
0.37
0.29
0.23
0.19
0.17
0.15
0.15
0.16
0.18
0.20
0.23
0.27
0.31
0.35
0.39
0.43
0.48
0.53
0.58
0.63
0.69
0.75
0.81
0.88
0.95
1.03
1.13
1.23
1.34
1.47
1.61
1.77
1.95
2.15
2.37
2.62
2.89
3.19
3.52
3.88
4.27
4.70
5.17
5.67
6.20
6.78
7.40
8.07
8.77
9.52
10.32
11.16
12.05
12.98
13.96
15.01
16.12
17.29
18.52
19.78
21.05
22.26
23.34
24.19
24.68
24.70
24.11
22.87
20.90
18.22
14.89
10.99
6.70
2.23
-2.23
-6.47
-10.29
-13.54
-16.12
-17.97
-19.09
-19.52
-19.34
-18.66
-17.59
-16.20
-14.60
-12.83
-10.93
-8.95
-6.90
-4.85
-2.86
-0.95
0.88
2.67
4.46
6.30
8.22
10.28
12.40
14.51
16.62
18.78
21.05
23.53
26.29
29.38
32.89
36.52
40.13
43.65
47.12
50.65
54.37
58.41
62.85
67.73
72.61
77.17
81.33
85.22
89.07
93.17
97.73
102.74
108.06
112.78
116.23
118.02
118.07
116.42
112.97
107.08
97.04
85.13
71.34
55.47
37.61
18.28
-1.78
-21.69
-40.88
-59.14
-76.54
-94.09
-112.74
-133.41
-156.84
-183.20
-211.43
-238.95
-261.89
-276.10
-279.08
-270.52
-252.56
-229.08
-204.13
-180.70
-160.05
-142.06
-126.05
-111.82
-99.47
-89.10
-80.52
-73.12
-66.19
-59.36
-52.81
-47.16
-43.28
-41.42
-41.07
-40.93
-39.29
-34.70
-26.38
-14.56
-0.42
14.27
27.70
38.61
46.49
51.58
54.56
56.08
56.55
56.08
54.69
52.60
50.30
48.42
47.52
47.83
49.13
50.91
52.51
53.41
53.31
52.20
50.24
47.64
44.62
41.29
37.70
33.80
29.59
25.13
20.53
16.00
11.72
7.82
4.39
1.38
-1.32
-3.98
-6.91
-10.48
-14.93
-20.28
-26.15
-31.83
-36.24
-38.32
-37.25
-32.73
-25.15
-15.43
-4.85
5.33
14.15
21.03
25.80
28.52
29.40
28.73
26.94
24.55
22.23
20.59
20.09
20.87
22.70
25.13
27.58
29.54
30.74
31.12
30.78
29.85
28.43
26.50
23.99
20.86
17.15
13.06
8.90
4.95
1.44
-1.54
-4.09
-6.46
-8.94
-11.90
-15.63
-20.26
-25.63
-31.27
-36.33
-39.81
-40.77
-38.63
-33.35
-25.50
-16.05
-6.15
3.15
11.04
17.01
20.83
22.48
22.07
19.90
16.45
12.39
8.50
5.60
4.26
4.73
6.83
10.00
13.53
16.73
19.16
20.69
21.34
21.19
20.21
18.27
15.29
11.36
6.83
2.23
-1.92
-5.35
-8.13
-10.61
-13.34
-16.77
-21.13
-26.34
-31.92
-37.11
-40.96
-42.60
-41.40
-37.22
-30.40
-21.74
-12.29
-3.09
4.96
11.27
15.54
17.71
17.89
16.38
13.62
10.21
6.81
4.12
2.67
2.77
4.33
6.97
10.08
13.04
15.33
16.72
17.17
16.77
15.63
13.82
11.38
8.34
4.84
1.12
-2.56
-6.03
-9.29
-12.54
-16.15
-20.46
-25.66
-31.61
-37.76
-43.23
-46.99
-48.10
-46.01
-40.72
-32.73
-23.00
-12.65
-2.73
5.86
12.53
16.91
18.95
18.84
17.01
14.07
10.71
7.59
5.24
4.04
4.12
5.43
7.72
10.63
13.74
16.62
18.89
20.26
20.56
19.76
17.95
15.28
11.95
8.23
4.35
0.55
-3.03
-6.39
-9.71
-13.30
-17.49
-22.45
-28.00
-33.51
-37.98
-40.28
-39.47
-35.16
-27.62
-17.82
-7.11
3.13
11.85
18.47
22.86
25.19
25.68
24.55
22.14
18.89
15.46
12.65
11.12
11.26
13.02
15.94
19.35
22.64
25.33
27.23
28.28
28.43
27.57
25.56
22.35
18.09
13.22
8.29
3.82
0.04
-3.13
-6.09
-9.31
-13.20
-17.92
-23.30
-28.79
-33.54
-36.51
-36.73
-33.62
-27.20
-18.20
-7.86
2.42
11.45
18.51
23.33
25.97
26.58
25.31
22.44
18.37
13.80
9.56
6.45
5.01
5.36
7.21
9.98
13.01
15.71
17.67
18.66
18.59
17.48
15.42
12.61
9.26
5.67
2.13
-1.15
-4.08
-6.81
-9.63
-12.94
-16.99
-21.74
-26.69
-31.01
-33.68
-33.78
-30.81
-24.83
-16.48
-6.80
2.99
11.80
18.81
23.63
26.14
26.52
25.08
22.31
18.77
15.09
11.91
9.74
8.87
9.35
10.97
13.32
15.91
18.20
19.66
19.91
18.79
16.37
12.98
9.05
5.02
1.12
-2.58
-6.20
-10.00
-14.24
-19.04
-24.27
-29.44
-33.71
-36.09
-35.65
-31.90
-24.94
-15.53
-4.90
5.59
14.79
21.90
26.56
28.74
28.62
26.57
23.10
18.88
14.67
11.20
8.99
8.24
8.79
10.21
11.97
13.56
14.60
14.84
14.13
12.46
9.91
6.66
2.94
-1.04
-5.15
-9.34
-13.68
-18.30
-23.31
-28.77
-34.52
-40.19
-45.07
-48.23
-48.70
-45.79
-39.40
-30.13
-19.17
-8.01
2.06
10.16
16.00
19.64
21.37
21.47
20.21
17.94
15.18
12.56
10.70
9.96
10.39
11.68
13.44
15.22
16.77
17.87
18.35
18.04
16.72
14.32
10.93
6.87
2.56
-1.62
-5.45
-8.97
-12.41
-16.10
-20.37
-25.38
-30.98
-36.61
-41.36
-44.19
-44.16
-40.79
-34.27
-25.36
-15.24
-5.12
4.03
11.55
17.12
20.60
22.03
21.62
19.81
17.24
14.70
12.91
12.36
13.22
15.29
18.19
21.36
24.33
26.72
28.26
28.82
28.35
26.91
24.61
21.58
17.95
13.90
9.51
4.90
0.16
-4.65
-9.51
-14.47
-19.58
-24.86
-30.15
-35.04
-38.91
-40.98
-40.56
-37.30
-31.34
-23.31
-14.24
-5.22
2.78
9.13
13.57
16.11
16.93
16.29
14.56
12.21
9.84
8.03
7.31
7.88
9.61
12.12
14.84
17.26
19.03
20.02
20.26
19.85
18.89
17.38
15.28
12.46
8.89
4.65
-0.06
-4.97
-9.88
-14.76
-19.70
-24.77
-29.82
-34.36
-37.58
-38.66
-37.03
-32.60
-25.87
-17.72
-9.12
-0.98
6.09
11.66
15.48
17.43
17.54
16.09
13.63
10.92
8.78
7.85
8.41
10.31
13.07
16.01
18.54
20.22
20.93
20.66
19.50
17.52
14.77
11.30
7.25
2.86
-1.57
-5.76
-9.61
-13.19
-16.78
-20.76
-25.45
-30.89
-36.74
-42.26
-46.44
-48.30
-47.17
-42.89
-35.89
-27.00
-17.24
-7.57
1.25
8.69
14.42
18.23
20.09
20.14
18.76
16.52
14.14
12.30
11.48
11.87
13.35
15.56
18.03
20.33
22.18
23.46
24.14
24.24
23.71
22.40
20.21
17.10
13.24
8.92
4.49
0.22
-3.76
-7.56
-11.42
-15.65
-20.49
-26.00
-31.88
-37.51
-41.97
-44.29
-43.70
-39.94
-33.29
-24.60
-14.97
-5.46
3.10
10.20
15.62
19.25
21.05
21.11
19.68
17.25
14.57
12.44
11.55
12.22
14.36
17.50
21.03
24.35
27.10
29.14
30.49
31.18
31.16
30.27
28.38
25.45
21.68
17.46
13.24
9.40
6.08
3.17
0.35
-2.76
-6.47
-10.94
-16.12
-21.74
-27.25
-31.90
-34.84
-35.28
-32.72
-27.22
-19.32
-10.01
-0.43
8.39
15.74
21.24
24.77
26.35
26.11
24.33
21.43
18.08
14.99
12.82
11.99
12.55
14.26
16.62
19.12
21.31
22.90
23.78
23.91
23.34
22.07
20.07
17.29
13.78
9.68
5.36
1.21
-2.42
-5.42
-7.97
-10.50
-13.49
-17.25
-21.90
-27.22
-32.73
-37.81
-41.73
-43.73
-43.21
-39.80
-33.57
-25.05
-15.17
-5.10
4.05
11.45
16.62
19.47
20.15
18.98
16.39
12.94
9.30
6.21
4.29
3.90
5.00
7.26
10.11
13.03
15.66
17.76
19.16
19.67
19.08
17.25
14.23
10.32
6.02
1.83
-1.92
-5.12
-7.96
-10.81
-14.05
-18.00
-22.81
-28.32
-34.06
-39.23
-42.85
-44.02
-42.14
-37.16
-29.59
-20.35
-10.52
-1.15
6.95
13.23
17.39
19.30
19.05
16.95
13.54
9.58
5.85
3.00
1.46
1.34
2.45
4.45
6.98
9.65
12.13
14.15
15.48
15.98
15.60
14.32
12.22
9.36
5.90
2.04
-1.92
-5.77
-9.38
-12.82
-16.37
-20.37
-25.09
-30.57
-36.48
-42.16
-46.63
-48.89
-48.13
-44.03
-36.85
-27.40
-16.82
-6.31
3.15
10.83
16.30
19.41
20.20
18.97
16.23
12.66
9.00
5.94
4.01
3.50
4.38
6.33
8.82
11.30
13.30
14.64
15.40
15.75
15.79
15.41
14.28
12.05
8.55
3.98
-1.19
-6.36
-11.07
-15.16
-18.80
-22.37
-26.29
-30.84
-36.06
-41.67
-47.06
-51.33
-53.52
-52.80
-48.73
-41.45
-31.66
-20.44
-9.06
1.38
10.07
16.53
20.58
22.25
21.76
19.51
16.10
12.31
8.99
6.82
6.24
7.25
9.47
12.33
15.19
17.63
19.45
20.64
21.28
21.41
20.95
19.70
17.53
14.40
10.49
6.16
1.84
-2.15
-5.63
-8.71
-11.68
-14.90
-18.72
-23.32
-28.66
-34.40
-39.87
-44.17
-46.31
-45.52
-41.43
-34.28
-24.79
-14.08
-3.29
6.59
14.90
21.29
25.61
27.83
28.07
26.57
23.86
20.63
17.67
15.67
15.02
15.74
17.54
19.96
22.52
24.83
26.64
27.76
28.05
27.42
25.84
23.31
19.91
15.79
11.23
6.56
2.12
-1.80
-5.12
-8.01
-10.79
-13.90
-17.73
-22.41
-27.78
-33.30
-38.19
-41.54
-42.51
-40.58
-35.68
-28.28
-19.24
-9.61
-0.40
7.64
14.03
18.48
20.89
21.22
19.67
16.63
12.86
9.29
6.86
6.18
7.42
10.30
14.21
18.48
22.56
26.09
28.83
30.57
31.12
30.28
28.03
24.54
20.18
15.43
10.74
6.42
2.59
-0.78
-3.92
-7.18
-10.99
-15.73
-21.48
-27.88
-34.05
-38.80
-41.00
-39.91
-35.45
-28.19
-19.12
-9.37
0.02
8.23
14.70
19.11
21.33
21.42
19.66
16.48
12.50
8.44
5.00
2.78
2.14
3.08
5.35
8.47
11.89
15.09
17.65
19.29
19.85
19.25
17.55
14.85
11.32
7.29
3.07
-0.98
-4.70
-8.11
-11.45
-15.10
-19.43
-24.60
-30.44
-36.44
-41.79
-45.55
-46.86
-45.16
-40.36
-32.89
-23.63
-13.67
-4.06
4.39
11.23
16.23
19.32
20.45
19.69
17.29
13.82
10.10
7.05
5.36
5.31
6.74
9.13
11.88
14.53
16.83
18.72
20.11
20.81
20.55
19.13
16.51
12.93
8.79
4.54
0.49
-3.25
-6.72
-10.12
-13.69
-17.74
-22.53
-28.16
-34.43
-40.69
-45.91
-48.96
-48.87
-45.18
-38.07
-28.31
-17.06
-5.64
4.74
13.19
19.28
23.02
24.66
24.69
23.54
21.61
19.35
17.32
16.17
16.45
18.38
21.64
25.47
28.95
31.39
32.57
32.68
32.07
30.95
29.28
26.75
23.08
18.27
12.67
6.86
1.46
-3.23
-7.26
-11.01
-14.98
-19.62
-25.17
-31.58
-38.48
-45.20
-50.80
-54.24
-54.62
-51.42
-44.71
-35.19
-24.00
-12.45
-1.76
7.19
13.89
18.14
20.05
19.90
18.16
15.44
12.45
9.90
8.38
8.23
9.47
11.83
14.80
17.84
20.51
22.59
24.00
24.72
24.74
23.92
22.15
19.38
15.75
11.58
7.31
3.32
-0.19
-3.26
-6.15
-9.26
-12.95
-17.44
-22.70
-28.38
-33.85
-38.27
-40.75
-40.54
-37.26
-31.07
-22.63
-13.01
-3.35
5.35
12.42
17.53
20.60
21.73
21.11
19.14
16.36
13.48
11.19
9.99
10.07
11.33
13.43
16.02
18.73
21.31
23.52
25.08
25.66
24.99
22.90
19.50
15.14
10.36
5.69
1.47
-2.28
-5.79
-9.44
-13.62
-18.50
-23.95
-29.55
-34.58
-38.19
-39.54
-38.05
-33.56
-26.45
-17.52
-7.86
1.46
9.57
15.91
20.18
22.31
22.42
20.78
17.86
14.32
10.92
8.34
7.02
7.09
8.35
10.45
12.96
15.54
17.88
19.71
20.68
20.46
18.78
15.61
11.22
6.15
0.99
-3.77
-7.94
-11.62
-15.15
-18.98
-23.48
-28.85
-34.92
-41.10
-46.40
-49.60
-49.63
-45.95
-38.70
-28.77
-17.45
-6.10
4.20
12.74
19.16
23.39
25.50
25.70
24.40
22.13
19.50
17.09
15.37
14.58
14.74
15.71
17.26
19.14
21.08
22.83
24.07
24.49
23.78
21.78
18.52
14.23
9.28
4.04
-1.18
-6.21
-11.00
-15.63
-20.30
-25.32
-30.94
-37.24
-43.89
-50.14
-54.85
-56.80
-55.11
-49.49
-40.48
-29.19
-17.08
-5.46
4.74
13.01
19.21
23.33
25.44
25.64
24.28
21.90
19.24
17.01
15.74
15.65
16.61
18.34
20.55
22.98
25.40
27.55
29.07
29.57
28.71
26.35
22.61
17.90
12.78
7.75
3.08
-1.20
-5.30
-9.53
-14.17
-19.41
-25.29
-31.60
-37.88
-43.34
-46.97
-47.85
-45.35
-39.44
-30.74
-20.37
-9.60
0.43
8.96
15.60
20.24
22.95
23.86
23.21
21.35
18.79
16.16
14.10
13.10
13.40
14.92
17.32
20.09
22.76
24.97
26.53
27.33
27.29
26.34
24.43
21.64
18.18
14.36
10.49
6.77
3.21
-0.39
-4.36
-9.04
-14.62
-21.00
-27.61
-33.51
-37.53
-38.63
-36.24
-30.52
-22.25
-12.66
-2.99
5.69
12.74
17.85
20.90
21.92
21.09
18.78
15.59
12.34
9.80
8.59
8.90
10.53
13.01
15.80
18.48
20.83
22.75
24.16
24.91
24.80
23.58
21.16
17.61
13.25
8.48
3.72
-0.73
-4.83
-8.77
-12.94
-17.77
-23.53
-30.14
-37.02
-43.16
-47.40
-48.68
-46.41
-40.66
-32.06
-21.70
-10.77
-0.37
8.67
15.80
20.72
23.34
23.80
22.47
19.95
17.03
14.49
12.89
12.49
13.19
14.67
16.50
18.35
20.07
21.60
22.97
24.05
24.64
24.40
23.09
20.56
16.90
12.41
7.50
2.58
-2.02
-6.17
-9.86
-13.23
-16.49
-19.89
-23.69
-28.09
-33.04
-38.14
-42.61
-45.40
-45.50
-42.20
-35.46
-25.93
-14.76
-3.34
7.10
15.74
22.16
26.36
28.47
28.76
27.55
25.28
22.51
19.90
18.11
17.57
18.40
20.38
23.04
25.87
28.42
30.36
31.51
31.76
31.04
29.37
26.85
23.67
20.02
16.08
11.91
7.56
3.14
-1.20
-5.22
-8.80
-11.94
-14.90
-18.06
-21.82
-26.42
-31.86
-37.85
-43.76
-48.71
-51.70
-51.83
-48.59
-42.03
-32.87
-22.24
-11.46
-1.57
6.76
13.27
17.97
20.96
22.31
22.22
20.99
19.18
17.44
16.36
16.31
17.33
19.21
21.58
24.11
26.55
28.70
30.41
31.48
31.79
31.23
29.84
27.72
25.01
21.83
18.24
14.30
10.06
5.61
1.12
-3.25
-7.38
-11.23
-14.83
-18.29
-21.81
-25.62
-29.95
-34.88
-40.21
-45.35
-49.42
-51.39
-50.47
-46.32
-39.22
-29.97
-19.67
-9.41
-0.04
7.89
14.09
18.42
20.83
21.35
20.18
17.70
14.59
11.59
9.46
8.71
9.54
11.75
14.88
18.31
21.46
23.95
25.61
26.45
26.53
25.91
24.55
22.44
19.53
15.90
11.77
7.37
2.99
-1.17
-4.98
-8.43
-11.59
-14.58
-17.62
-20.97
-24.90
-29.56
-34.82
-40.22
-44.97
-48.12
-48.81
-46.51
-41.24
-33.54
-24.32
-14.59
-5.32
2.77
9.14
13.54
15.85
16.21
14.91
12.43
9.41
6.49
4.32
3.30
3.60
5.07
7.33
9.86
12.15
13.91
15.02
15.56
15.57
14.97
13.52
10.94
7.11
2.24
-3.20
-8.57
-13.31
-17.22
-20.37
-23.13
-25.95
-29.16
-32.98
-37.38
-42.10
-46.66
-50.36
-52.37
-51.99
-48.78
-42.78
-34.46
-24.63
-14.26
-4.21
4.80
12.30
18.03
21.93
24.05
24.67
24.17
23.07
21.96
21.32
21.55
22.74
24.73
27.15
29.53
31.43
32.58
32.86
32.31
30.94
28.78
25.73
21.70
16.73
11.01
4.90
-1.11
-6.60
-11.35
-15.32
-18.70
-21.81
-25.00
-28.61
-32.75
-37.37
-42.04
-46.11
-48.68
-48.91
-46.20
-40.45
-32.15
-22.30
-12.08
-2.50
5.73
12.33
17.20
20.31
21.68
21.37
19.69
17.15
14.45
12.17
10.73
10.20
10.46
11.33
12.58
14.03
15.43
16.52
17.05
16.87
15.95
14.31
11.94
8.87
5.17
1.01
-3.32
-7.52
-11.36
-14.82
-18.01
-21.21
-24.67
-28.61
-33.09
-38.04
-43.08
-47.62
-50.84
-51.84
-49.94
-44.88
-36.97
-27.09
-16.37
-6.02
3.02
10.15
15.12
17.94
18.76
17.84
15.57
12.46
9.21
6.52
4.97
4.92
6.34
8.91
12.15
15.54
18.64
21.15
22.86
23.64
23.37
21.94
19.33
15.66
11.19
6.32
1.49
-2.92
-6.71
-9.87
-12.60
-15.22
-18.12
-21.63
-25.93
-30.94
-36.15
-40.72
-43.64
-43.99
-41.25
-35.48
-27.28
-17.63
-7.61
1.78
9.82
16.02
20.11
22.00
21.75
19.66
16.27
12.37
8.86
6.60
6.10
7.42
10.21
13.80
17.56
20.96
23.66
25.45
26.13
25.51
23.57
20.45
16.59
12.49
8.60
5.09
1.89
-1.26
-4.66
-8.56
-13.13
-18.39
-24.23
-30.24
-35.70
-39.60
-40.92
-38.93
-33.50
-25.18
-15.07
-4.51
5.28
13.41
19.41
23.13
24.61
24.06
21.83
18.48
14.70
11.27
8.81
7.70
8.02
9.55
11.93
14.75
17.59
20.05
21.82
22.61
22.24
20.61
17.78
13.93
9.40
4.62
0.05
-4.01
-7.50
-10.72
-14.22
-18.63
-24.29
-31.14
-38.54
-45.39
-50.35
-52.20
-50.14
-44.06
-34.60
-23.03
-10.86
0.45
9.91
17.02
21.73
24.27
24.89
23.87
21.54
18.43
15.25
12.79
11.66
12.07
13.77
16.19
18.76
21.07
22.99
24.54
25.67
26.14
25.58
23.64
20.20
15.56
10.29
5.06
0.39
-3.57
-7.00
-10.39
-14.26
-19.02
-24.73
-31.17
-37.73
-43.56
-47.64
-49.01
-46.99
-41.39
-32.66
-21.78
-10.08
1.14
10.85
18.43
23.65
26.51
27.16
25.89
23.20
19.80
16.60
14.45
13.90
15.06
17.56
20.79
24.11
27.07
29.46
31.20
32.22
32.37
31.41
29.17
25.60
20.90
15.41
9.61
3.90
-1.39
-6.16
-10.47
-14.55
-18.70
-23.24
-28.34
-33.92
-39.53
-44.38
-47.49
-47.87
-44.91
-38.53
-29.32
-18.39
-6.98
3.75
13.00
20.26
25.27
27.86
28.06
26.12
22.71
18.76
15.34
13.29
12.96
14.21
16.57
19.45
22.41
25.16
27.54
29.34
30.27
30.00
28.31
25.18
20.87
15.79
10.43
5.17
0.24
-4.30
-8.54
-12.72
-17.15
-22.17
-27.90
-34.07
-39.99
-44.57
-46.67
-45.45
-40.66
-32.70
-22.47
-11.12
0.17
10.41
18.85
24.95
28.42
29.27
27.76
24.50
20.33
16.26
13.19
11.76
12.12
13.95
16.62
19.41
21.76
23.47
24.55
25.12
25.16
24.48
22.76
19.80
15.56
10.35
4.63
-1.06
-6.36
-11.15
-15.58
-19.96
-24.69
-30.09
-36.24
-42.93
-49.55
-55.13
-58.50
-58.60
-54.86
-47.32
-36.79
-24.52
-11.93
-0.25
9.64
17.25
22.38
25.01
25.30
23.61
20.57
17.00
13.86
11.99
11.86
13.49
16.38
19.82
23.08
25.65
27.39
28.39
28.79
28.56
27.46
25.17
21.52
16.61
10.86
4.85
-0.85
-5.94
-10.37
-14.35
-18.28
-22.58
-27.59
-33.45
-40.00
-46.74
-52.82
-57.21
-58.84
-56.94
-51.22
-42.05
-30.41
-17.65
-5.20
5.82
14.73
21.29
25.51
27.53
27.49
25.66
22.54
18.93
15.78
13.97
13.99
15.78
18.84
22.45
25.88
28.66
30.53
31.45
31.47
30.68
29.09
26.71
23.50
19.47
14.71
9.45
4.03
-1.17
-5.91
-10.07
-13.74
-17.15
-20.59
-24.37
-28.79
-34.05
-40.10
-46.54
-52.45
-56.59
-57.67
-54.81
-47.87
-37.54
-25.12
-12.12
0.11
10.66
18.99
24.86
28.22
29.09
27.69
24.55
20.46
16.42
13.39
12.01
12.50
14.62
17.85
21.52
25.06
28.02
30.17
31.36
31.56
30.70
28.77
25.75
21.67
16.72
11.20
5.55
0.17
-4.61
-8.66
-12.09
-15.16
-18.21
-21.54
-25.44
-30.07
-35.39
-41.13
-46.66
-51.06
-53.26
-52.36
-47.87
-39.96
-29.42
-17.52
-5.61
5.13
13.87
20.20
23.96
25.22
24.23
21.42
17.50
13.35
9.94
8.01
7.95
9.68
12.71
16.37
19.99
23.09
25.38
26.76
27.18
26.59
24.91
22.10
18.18
13.38
8.07
2.72
-2.23
-6.50
-10.10
-13.30
-16.53
-20.26
-24.78
-30.10
-35.87
-41.43
-45.88
-48.27
-47.79
-43.99
-36.90
-27.14
-15.75
-4.05
6.72
15.59
22.01
25.78
27.02
26.04
23.26
19.25
14.75
10.61
7.62
6.33
6.86
8.87
11.74
14.80
17.53
19.70
21.23
22.12
22.26
21.46
19.50
16.33
12.09
7.18
2.04
-2.89
-7.40
-11.45
-15.18
-18.86
-22.76
-27.15
-32.24
-38.13
-44.66
-51.29
-57.08
-60.81
-61.28
-57.72
-50.10
-39.16
-26.28
-13.02
-0.77
9.56
17.50
22.96
25.99
26.72
25.41
22.55
18.83
15.23
12.71
12.01
13.41
16.61
20.84
25.09
28.56
30.81
31.91
32.25
32.26
32.15
31.86
31.09
29.52
27.00
23.63
19.72
15.62
11.61
7.74
3.98
0.10
-4.11
-8.93
-14.66
-21.49
-29.39
-37.89
-45.93
-52.09
-54.89
-53.30
-47.20
-37.39
-25.37
-12.86
-1.32
8.30
15.58
20.44
22.96
23.30
21.72
18.70
14.94
11.29
8.57
7.39
7.99
10.20
13.52
17.28
20.83
23.72
25.73
26.83
27.11
26.61
25.31
23.11
19.93
15.81
10.95
5.72
0.55
-4.20
-8.35
-11.96
-15.34
-18.92
-23.18
-28.44
-34.68
-41.49
-48.05
-53.24
-55.84
-54.88
-49.94
-41.30
-29.96
-17.35
-4.95
6.06
14.96
21.48
25.58
27.33
26.84
24.40
20.59
16.32
12.61
10.40
10.12
11.65
14.42
17.67
20.78
23.32
25.14
26.18
26.39
25.64
23.82
20.90
17.08
12.68
8.13
3.80
-0.15
-3.73
-7.19
-10.88
-15.22
-20.50
-26.75
-33.58
-40.13
-45.25
-47.72
-46.57
-41.46
-32.73
-21.39
-8.81
3.58
14.57
23.32
29.41
32.71
33.35
31.62
28.02
23.28
18.31
14.07
11.31
10.41
11.23
13.23
15.77
18.27
20.41
22.06
23.09
23.30
22.37
20.06
16.32
11.43
5.86
0.13
-5.38
-10.58
-15.65
-20.90
-26.67
-33.20
-40.42
-47.95
-54.98
-60.32
-62.71
-61.12
-55.17
-45.25
-32.54
-18.62
-5.11
6.75
16.19
22.87
26.81
28.14
27.21
24.54
20.90
17.20
14.36
13.05
13.51
15.55
18.64
22.07
25.23
27.66
29.13
29.58
29.01
27.42
24.80
21.15
16.55
11.21
5.49
-0.19
-5.48
-10.26
-14.74
-19.40
-24.82
-31.38
-38.95
-46.77
-53.55
-57.86
-58.48
-54.87
-47.25
-36.49
-23.86
-10.69
1.85
12.86
21.69
27.94
31.47
32.35
30.99
28.05
24.45
21.12
18.88
18.16
18.98
20.96
23.49
26.00
28.11
29.68
30.72
31.19
30.93
29.63
26.99
22.91
17.57
11.47
5.19
-0.75
-6.06
-10.78
-15.17
-19.62
-24.51
-30.10
-36.34
-42.82
-48.72
-52.97
-54.43
-52.28
-46.26
-36.80
-24.91
-11.95
0.70
11.88
20.76
26.87
30.00
30.28
28.10
24.15
19.40
14.90
11.60
10.12
10.63
12.82
16.08
19.67
22.98
25.62
27.41
28.28
28.19
27.00
24.57
20.86
16.02
10.43
4.61
-0.93
-5.87
-10.25
-14.35
-18.69
-23.70
-29.61
-36.21
-42.83
-48.39
-51.62
-51.44
-47.22
-39.04
-27.75
-14.69
-1.43
10.65
20.58
27.82
32.22
33.86
33.02
30.18
26.01
21.39
17.29
14.52
13.55
14.34
16.46
19.20
21.89
24.04
25.42
25.95
25.58
24.17
21.55
17.56
12.23
5.89
-0.93
-7.60
-13.60
-18.68
-22.97
-26.87
-30.94
-35.70
-41.46
-48.11
-55.05
-61.16
-65.02
-65.27
-61.07
-52.36
-40.00
-25.50
-10.61
3.10
14.56
23.23
29.04
32.11
32.67
31.08
27.88
23.82
19.89
16.99
15.77
16.36
18.43
21.28
24.21
26.74
28.64
29.91
30.52
30.35
29.08
26.44
22.29
16.83
10.55
4.05
-2.05
-7.41
-11.96
-15.92
-19.76
-24.00
-29.14
-35.40
-42.56
-49.92
-56.28
-60.30
-60.77
-57.04
-49.21
-38.08
-24.95
-11.26
1.74
13.14
22.44
29.36
33.79
35.73
35.34
33.05
29.58
25.87
22.83
21.14
21.03
22.31
24.50
27.05
29.49
31.52
32.97
33.73
33.72
32.85
30.99
28.00
23.80
18.41
12.10
5.34
-1.24
-7.12
-12.11
-16.45
-20.76
-25.76
-31.97
-39.46
-47.69
-55.62
-61.98
-65.47
-65.11
-60.48
-51.75
-39.77
-25.74
-11.06
2.98
15.34
25.35
32.57
36.88
38.35
37.36
34.53
30.68
26.73
23.44
21.37
20.77
21.66
23.90
27.21
31.16
35.21
38.69
41.00
41.67
40.52
37.69
33.58
28.69
23.47
18.24
13.14
8.14
3.11
-2.20
-8.07
-14.74
-22.23
-30.13
-37.58
-43.36
-46.18
-45.15
-40.04
-31.40
-20.36
-8.33
3.40
13.83
22.27
28.33
31.77
32.60
31.00
27.44
22.60
17.31
12.47
8.82
6.91
6.98
8.91
12.20
16.19
20.07
23.21
25.14
25.73
24.99
23.06
20.09
16.25
11.73
6.72
1.36
-4.30
-10.37
-16.97
-24.08
-31.38
-38.21
-43.56
-46.39
-45.88
-41.73
-34.24
-24.30
-13.15
-2.16
7.49
14.97
19.83
21.97
21.51
18.75
14.18
8.54
2.78
-2.06
-5.11
-5.88
-4.39
-1.16
3.00
7.17
10.61
12.82
13.62
13.05
11.26
8.42
4.64
0.01
-5.47
-11.76
-18.78
-26.29
-33.85
-40.71
-45.83
-48.11
-46.66
-41.14
-31.97
-20.25
-7.52
4.66
15.04
22.77
27.45
28.99
27.55
23.54
17.65
10.77
3.96
-1.83
-5.87
-7.85
-7.91
-6.56
-4.53
-2.64
-1.48
-1.44
-2.56
-4.63
-7.32
-10.30
-13.43
-16.76
-20.54
-25.15
-30.95
-38.14
-46.54
-55.50
-63.81
-69.92
-72.24
-69.64
-61.85
-49.56
-34.31
-18.04
-2.60
10.70
21.15
28.58
33.11
34.94
34.28
31.45
27.04
21.87
16.94
13.16
11.13
10.95
12.31
14.63
17.23
19.48
20.88
21.06
19.81
17.07
13.03
8.01
2.40
-3.50
-9.57
-15.93
-22.86
-30.61
-39.27
-48.55
-57.68
-65.44
-70.34
-70.99
-66.53
-56.92
-43.06
-26.63
-9.60
6.19
19.44
29.53
36.39
40.33
41.74
41.06
38.73
35.27
31.26
27.34
24.10
21.98
21.18
21.70
23.30
25.53
27.86
29.68
30.45
29.80
27.57
23.89
19.09
13.65
8.02
2.52
-2.81
-8.18
-14.01
-20.74
-28.62
-37.45
-46.48
-54.46
-59.83
-61.14
-57.47
-48.70
-35.64
-19.86
-3.27
12.31
25.55
35.70
42.59
46.40
47.54
46.49
43.88
40.41
36.88
34.02
32.37
32.10
33.07
34.88
37.03
39.07
40.69
41.70
41.99
41.45
39.91
37.14
32.96
27.34
20.55
13.15
5.82
-0.83
-6.54
-11.51
-16.34
-21.76
-28.33
-36.13
-44.51
-52.26
-57.78
-59.61
-56.81
-49.31
-37.84
-23.81
-8.84
5.56
18.28
28.61
36.28
41.17
43.42
43.28
41.17
37.73
33.73
29.97
27.11
25.55
25.31
26.15
27.66
29.38
31.00
32.28
33.06
33.14
32.30
30.29
26.99
22.44
16.95
10.93
4.85
-0.91
-6.16
-10.87
-15.20
-19.42
-23.90
-28.98
-34.85
-41.34
-47.79
-53.11
-55.98
-55.29
-50.47
-41.75
-30.12
-17.03
-3.96
7.90
17.74
25.18
30.04
32.27
31.99
29.56
25.62
21.08
16.90
13.86
12.37
12.40
13.59
15.45
17.47
19.30
20.68
21.45
21.48
20.66
18.93
16.30
12.85
8.75
4.24
-0.39
-4.91
-9.14
-13.06
-16.77
-20.54
-24.69
-29.49
-34.92
-40.53
-45.45
-48.51
-48.64
-45.17
-38.15
-28.29
-16.82
-5.14
5.53
14.27
20.54
24.13
25.06
23.58
20.20
15.56
10.49
5.84
2.27
0.23
-0.23
0.66
2.45
4.69
7.02
9.20
11.05
12.34
12.77
12.05
9.98
6.63
2.32
-2.45
-7.20
-11.59
-15.57
-19.31
-23.14
-27.36
-32.13
-37.37
-42.61
-47.05
-49.70
-49.59
-46.05
-39.02
-29.08
-17.35
-5.31
5.70
14.63
20.92
24.41
25.24
23.70
20.23
15.39
9.95
4.76
0.69
-1.70
-2.25
-1.26
0.65
2.83
4.76
6.18
7.02
7.23
6.67
5.12
2.37
-1.58
-6.49
-11.93
-17.33
-22.26
-26.47
-30.04
-33.28
-36.69
-40.78
-45.81
-51.58
-57.29
-61.70
-63.44
-61.48
-55.46
-45.82
-33.68
-20.45
-7.56
3.83
12.84
18.93
21.87
21.77
19.10
14.62
9.27
3.99
-0.46
-3.62
-5.27
-5.44
-4.26
-1.98
1.04
4.39
7.52
9.94
11.22
11.11
9.56
6.65
2.66
-2.12
-7.28
-12.49
-17.50
-22.29
-27.07
-32.18
-37.87
-44.09
-50.30
-55.48
-58.40
-57.96
-53.55
-45.25
-33.83
-20.60
-7.07
5.33
15.51
22.80
26.94
28.05
26.49
22.86
17.91
12.45
7.34
3.28
0.74
-0.09
0.66
2.65
5.46
8.68
11.91
14.75
16.79
17.55
16.69
14.08
9.90
4.66
-0.97
-6.36
-11.14
-15.29
-19.16
-23.23
-28.04
-33.87
-40.60
-47.61
-53.78
-57.72
-58.10
-54.10
-45.64
-33.50
-19.11
-4.13
9.88
21.74
30.70
36.44
38.89
38.26
35.02
29.93
23.98
18.27
13.80
11.27
10.90
12.47
15.40
19.00
22.61
25.79
28.25
29.81
30.35
29.70
27.79
24.63
20.43
15.55
10.38
5.29
0.45
-4.13
-8.68
-13.57
-19.16
-25.61
-32.73
-39.75
-45.40
-48.21
-46.90
-40.87
-30.46
-16.85
-1.77
12.94
25.68
35.36
41.39
43.65
42.42
38.29
32.14
25.01
18.01
12.12
8.07
6.19
6.42
8.33
11.30
14.59
17.54
19.65
20.61
20.30
18.69
15.89
12.05
7.43
2.39
-2.68
-7.45
-11.74
-15.60
-19.29
-23.23
-27.80
-33.18
-39.21
-45.30
-50.49
-53.64
-53.64
-49.80
-41.94
-30.62
-16.88
-2.14
12.13
24.64
34.41
40.79
43.52
42.71
38.86
32.82
25.74
18.85
13.29
9.83
8.82
10.05
12.98
16.83
20.76
24.07
26.24
27.02
26.37
24.39
21.32
17.41
12.94
8.18
3.40
-1.20
-5.56
-9.81
-14.27
-19.34
-25.37
-32.38
-39.97
-47.27
-53.08
-56.08
-55.17
-49.75
-39.97
-26.72
-11.49
3.98
18.07
29.60
37.90
42.74
44.22
42.67
38.66
33.06
26.92
21.39
17.44
15.60
15.87
17.81
20.76
24.13
27.48
30.56
33.16
34.98
35.58
34.57
31.71
27.06
21.08
14.45
7.89
1.91
-3.29
-7.86
-12.20
-16.83
-22.24
-28.66
-35.95
-43.46
-50.05
-54.28
-54.78
-50.61
-41.61
-28.53
-12.84
3.62
19.00
31.79
41.00
46.20
47.43
45.14
40.14
33.52
26.48
20.23
15.75
13.61
13.83
15.89
18.95
22.07
24.53
26.00
26.54
26.32
25.50
23.99
21.52
17.78
12.67
6.40
-0.46
-7.26
-13.44
-18.83
-23.64
-28.44
-33.85
-40.25
-47.55
-54.99
-61.31
-64.96
-64.59
-59.35
-49.24
-35.08
-18.33
-0.80
15.71
29.70
40.12
46.44
48.60
46.92
42.12
35.24
27.57
20.50
15.20
12.42
12.27
14.32
17.79
21.75
25.48
28.44
30.34
31.04
30.50
28.73
25.88
22.25
18.24
14.28
10.68
7.52
4.58
1.46
-2.35
-7.25
-13.50
-21.06
-29.53
-38.10
-45.59
-50.61
-51.85
-48.55
-40.83
-29.77
-17.21
-5.15
4.81
11.82
15.78
17.16
16.60
14.69
11.87
8.46
4.72
0.98
-2.36
-4.81
-5.76
-4.62
-1.03
4.95
12.72
21.15
28.71
33.86
35.40
32.89
26.98
19.35
12.23
7.64
6.72
9.17
13.49
17.42
18.77
16.06
8.86
-2.11
-15.23
-28.31
-39.02
-45.33
-46.12
-41.41
-32.49
-21.53
-11.04
-3.15
0.88
0.93
-1.92
-5.77
-8.41
-8.06
-3.84
3.96
14.05
24.62
33.93
40.73
44.35
44.66
41.86
36.40
28.93
20.33
11.69
4.04
-1.79
-5.36
-6.67
-6.11
-4.18
-1.49
1.40
3.87
5.33
5.30
3.54
0.15
-4.38
-9.35
-14.07
-18.10
-21.41
-24.39
-27.65
-31.84
-37.35
-44.12
-51.46
-58.15
-62.61
-63.33
-59.29
-50.31
-37.15
-21.42
-5.13
9.75
21.76
30.09
34.62
35.67
33.83
29.72
24.01
17.39
10.73
4.98
1.05
-0.42
0.73
4.08
8.68
13.36
17.04
18.96
18.89
16.98
13.70
9.53
4.83
-0.25
-5.73
-11.72
-18.38
-25.80
-33.97
-42.67
-51.30
-58.81
-63.80
-64.87
-61.00
-52.00
-38.67
-22.63
-5.86
9.75
22.79
32.45
38.42
40.76
39.78
36.07
30.43
23.87
17.50
12.31
9.08
8.18
9.52
12.61
16.66
20.69
23.85
25.54
25.54
23.94
21.02
17.04
12.17
6.52
0.17
-6.79
-14.25
-22.19
-30.59
-39.29
-47.81
-55.21
-60.16
-61.30
-57.62
-48.88
-35.80
-19.88
-3.10
12.50
25.27
34.23
39.07
40.07
37.87
33.30
27.24
20.61
14.31
9.23
6.14
5.42
7.05
10.47
14.77
18.87
21.84
23.10
22.52
20.32
16.93
12.77
8.10
3.03
-2.47
-8.49
-15.07
-22.28
-30.15
-38.62
-47.34
-55.52
-61.91
-65.01
-63.49
-56.70
-44.96
-29.55
-12.41
4.34
18.90
30.04
37.22
40.48
40.27
37.31
32.49
26.79
21.20
16.66
13.90
13.31
14.91
18.31
22.83
27.70
32.15
35.49
37.27
37.20
35.23
31.56
26.58
20.71
14.39
7.87
1.31
-5.35
-12.30
-19.85
-28.25
-37.50
-47.10
-55.93
-62.35
-64.70
-61.80
-53.53
-40.93
-25.95
-10.87
2.40
12.61
19.26
22.40
22.31
19.47
14.49
8.31
2.14
-2.68
-5.05
-4.44
-1.05
4.21
10.05
15.21
18.80
20.46
20.29
18.73
16.19
12.97
9.10
4.44
-1.20
-7.92
-15.63
-23.96
-32.20
-39.33
-44.15
-45.47
-42.44
-34.85
-23.28
-9.07
6.04
20.26
32.07
40.49
45.02
45.65
42.82
37.37
30.46
23.42
17.51
13.66
12.27
13.19
15.84
19.44
23.19
26.48
28.83
30.00
29.83
28.24
25.26
20.97
15.56
9.35
2.84
-3.46
-9.13
-14.01
-18.34
-22.66
-27.71
-34.07
-41.92
-50.87
-59.89
-67.46
-71.90
-71.75
-66.17
-55.24
-40.03
-22.39
-4.49
11.67
24.63
33.59
38.38
39.26
36.82
31.88
25.58
19.24
14.19
11.47
11.47
13.89
17.86
22.27
26.24
29.23
31.13
32.00
31.87
30.61
28.03
24.02
18.74
12.68
6.47
0.72
-4.25
-8.45
-12.25
-16.20
-20.82
-26.48
-33.21
-40.60
-47.77
-53.43
-56.13
-54.66
-48.42
-37.72
-23.81
-8.48
6.32
19.12
29.00
35.66
39.18
39.76
37.72
33.58
28.24
22.90
18.89
17.21
18.20
21.46
25.99
30.62
34.45
37.07
38.48
38.95
38.65
37.54
35.36
31.83
26.88
20.77
14.06
7.41
1.36
-3.78
-8.07
-11.78
-15.41
-19.52
-24.60
-30.89
-38.18
-45.69
-52.08
-55.73
-55.20
-49.72
-39.48
-25.61
-9.85
5.93
20.16
31.74
40.05
44.88
46.30
44.64
40.47
34.71
28.47
22.92
19.09
17.60
18.59
21.60
25.83
30.26
33.97
36.31
37.06
36.31
34.41
31.69
28.36
24.45
19.84
14.48
8.43
1.97
-4.48
-10.47
-15.68
-20.04
-23.78
-27.32
-31.17
-35.85
-41.66
-48.70
-56.63
-64.64
-71.45
-75.53
-75.42
-70.24
-59.94
-45.52
-28.71
-11.57
4.00
16.66
25.74
31.15
33.24
32.59
29.94
26.12
22.08
18.72
16.81
16.79
18.70
22.14
26.44
30.80
34.53
37.14
38.43
38.44
37.34
35.30
32.44
28.81
24.44
19.38
13.83
8.01
2.22
-3.30
-8.38
-12.95
-17.03
-20.71
-24.19
-27.79
-31.95
-37.04
-43.11
-49.70
-55.75
-59.78
-60.26
-56.22
-47.50
-34.95
-20.14
-4.96
8.87
20.13
28.23
33.15
35.21
34.85
32.57
28.91
24.52
20.18
16.82
15.22
15.84
18.59
22.80
27.50
31.68
34.63
36.04
35.98
34.69
32.45
29.49
26.06
22.38
18.66
15.09
11.79
8.82
6.20
3.94
2.00
0.34
-1.19
-2.79
-4.77
-7.54
-11.45
-16.72
-23.18
-30.14
-36.35
-40.28
-40.55
-36.43
-28.14
-16.81
-4.10
8.29
19.07
27.50
33.35
36.65
37.51
36.01
32.33
26.80
20.08
13.05
6.75
2.18
-0.01
0.34
2.78
6.28
9.53
11.27
10.76
7.95
3.53
-1.36
-5.61
-8.49
-9.94
-10.48
-10.91
-11.98
-14.20
-17.63
-21.98
-26.79
-31.45
-35.51
-38.68
-41.02
-42.90
-44.87
-47.43
-50.69
-54.18
-56.91
-57.57
-54.99
-48.56
-38.55
-26.06
-12.75
-0.32
9.85
17.04
21.19
22.69
22.11
20.01
16.86
13.15
9.49
6.60
5.21
5.70
8.01
11.52
15.36
18.67
20.95
22.17
22.64
22.74
22.63
22.14
20.90
18.49
14.83
10.22
5.27
0.63
-3.30
-6.50
-9.32
-12.22
-15.61
-19.69
-24.49
-29.94
-35.82
-41.79
-47.24
-51.31
-52.98
-51.39
-46.13
-37.54
-26.64
-14.98
-4.15
4.56
10.40
13.16
13.04
10.45
5.93
0.09
-6.30
-12.37
-17.28
-20.39
-21.48
-20.73
-18.69
-16.00
-13.18
-10.50
-7.96
-5.45
-2.93
-0.55
1.30
2.15
1.69
-0.08
-2.78
-5.84
-8.76
-11.35
-13.79
-16.56
-20.14
-24.77
-30.26
-35.90
-40.64
-43.21
-42.54
-38.08
-29.94
-19.05
-6.79
5.34
16.08
24.60
30.49
33.63
34.04
31.84
27.38
21.31
14.56
8.20
3.19
0.14
-0.83
-0.05
1.89
4.38
6.91
9.16
10.90
11.90
11.89
10.63
7.98
4.04
-0.83
-6.10
-11.26
-15.92
-20.04
-23.89
-28.01
-33.01
-39.28
-46.65
-54.28
-60.78
-64.47
-63.97
-58.56
-48.48
-34.85
-19.38
-3.93
9.83
20.77
28.28
32.31
33.20
31.58
28.18
23.78
19.17
15.06
12.07
10.69
11.12
13.27
16.68
20.73
24.66
27.86
29.84
30.34
29.25
26.61
22.58
17.42
11.54
5.32
-0.88
-6.87
-12.66
-18.43
-24.54
-31.33
-38.92
-46.91
-54.30
-59.61
-61.20
-57.91
-49.45
-36.63
-21.14
-5.06
9.69
21.77
30.49
35.76
37.80
36.99
33.84
28.98
23.28
17.74
13.34
10.80
10.40
11.96
14.88
18.44
21.96
24.93
27.04
28.07
27.90
26.42
23.62
19.67
14.86
9.59
4.20
-1.09
-6.28
-11.57
-17.29
-23.81
-31.30
-39.56
-47.80
-54.71
-58.71
-58.36
-52.94
-42.66
-28.73
-12.96
2.73
16.78
28.16
36.38
41.30
43.01
41.82
38.28
33.27
27.83
23.01
19.63
18.14
18.57
20.62
23.77
27.41
30.90
33.70
35.41
35.77
34.70
32.18
28.30
23.22
17.25
10.83
4.46
-1.46
-6.81
-11.81
-16.97
-22.86
-29.82
-37.70
-45.70
-52.46
-56.41
-56.15
-50.96
-41.10
-27.77
-12.81
1.86
14.63
24.56
31.31
35.00
35.92
34.48
31.15
26.58
21.56
17.05
13.89
12.69
13.65
16.48
20.59
25.21
29.59
33.12
35.34
35.95
34.79
31.86
27.40
21.83
15.75
9.72
4.16
-0.87
-5.60
-10.51
-16.12
-22.80
-30.53
-38.83
-46.72
-52.86
-55.82
-54.46
-48.28
-37.66
-23.83
-8.59
6.14
18.79
28.44
34.79
38.01
38.41
36.38
32.31
26.81
20.77
15.26
11.36
9.79
10.66
13.46
17.28
21.13
24.20
26.02
26.35
25.12
22.37
18.25
13.09
7.31
1.45
-4.09
-9.18
-14.02
-19.05
-24.71
-31.16
-38.05
-44.47
-49.10
-50.54
-47.74
-40.41
-29.15
-15.40
-1.02
12.15
22.78
30.11
34.04
34.83
32.92
28.82
23.14
16.64
10.24
4.98
1.72
0.96
2.59
5.98
10.09
13.84
16.36
17.18
16.21
13.68
9.92
5.31
0.18
-5.20
-10.56
-15.77
-20.89
-26.19
-32.13
-39.13
-47.21
-55.81
-63.64
-68.99
-70.11
-65.92
-56.30
-42.26
-25.65
-8.59
7.00
19.80
29.15
34.96
37.46
37.15
34.64
30.71
26.18
21.93
18.67
16.85
16.63
17.87
20.17
23.01
25.85
28.15
29.45
29.39
27.73
24.41
19.54
13.48
6.73
-0.14
-6.63
-12.49
-17.78
-22.88
-28.34
-34.64
-41.95
-49.83
-57.21
-62.50
-64.03
-60.57
-51.84
-38.65
-22.74
-6.24
8.92
21.39
30.54
36.30
38.92
38.80
36.45
32.56
28.00
23.83
20.97
19.96
20.85
23.15
26.09
28.92
31.16
32.61
33.31
33.25
32.32
30.24
26.78
21.87
15.81
9.18
2.61
-3.39
-8.66
-13.41
-18.09
-23.22
-29.23
-36.26
-44.03
-51.82
-58.42
-62.44
-62.54
-57.96
-48.76
-35.90
-21.06
-6.06
7.49
18.61
26.88
32.33
35.13
35.50
33.74
30.29
25.96
21.77
18.79
17.74
18.80
21.51
25.03
28.39
30.93
32.36
32.77
32.34
31.20
29.29
26.48
22.64
17.85
12.41
6.80
1.52
-3.11
-6.98
-10.31
-13.53
-17.21
-21.85
-27.74
-34.84
-42.59
-49.97
-55.58
-57.97
-56.06
-49.49
-38.79
-25.25
-10.59
3.53
15.83
25.60
32.50
36.53
37.88
36.89
34.18
30.56
26.98
24.31
23.13
23.62
25.59
28.51
31.68
34.43
36.20
36.67
35.84
33.95
31.33
28.28
24.92
21.20
16.99
12.24
7.08
1.83
-3.13
-7.46
-11.09
-14.17
-17.10
-20.38
-24.50
-29.73
-36.04
-42.98
-49.74
-55.22
-58.22
-57.71
-53.12
-44.55
-32.82
-19.26
-5.48
7.08
17.37
24.88
29.53
31.56
31.35
29.39
26.28
22.70
19.46
17.30
16.78
18.07
20.86
24.54
28.24
31.22
33.00
33.49
32.88
31.48
29.49
26.96
23.79
19.91
15.35
10.35
5.28
0.47
-3.85
-7.63
-11.00
-14.13
-17.31
-20.81
-24.93
-29.84
-35.50
-41.44
-46.74
-50.20
-50.59
-47.14
-39.78
-29.29
-17.06
-4.69
6.44
15.42
21.86
25.74
27.25
26.65
24.29
20.68
16.55
12.76
10.11
9.15
10.00
12.35
15.57
18.95
21.89
24.04
25.25
25.55
24.93
23.39
20.86
17.28
12.70
7.35
1.62
-4.06
-9.28
-13.77
-17.47
-20.54
-23.31
-26.22
-29.66
-33.86
-38.76
-43.87
-48.33
-51.04
-50.96
-47.41
-40.30
-30.20
-18.18
-5.57
6.30
16.32
23.67
27.92
28.99
27.17
23.16
17.91
12.51
7.95
4.89
3.57
3.79
5.10
6.96
8.93
10.73
12.18
13.14
13.41
12.75
11.03
8.20
4.44
0.12
-4.31
-8.45
-12.06
-15.16
-17.95
-20.80
-24.13
-28.26
-33.31
-39.05
-44.78
-49.41
-51.66
-50.45
-45.27
-36.43
-25.06
-12.70
-0.92
9.10
16.73
21.75
24.18
24.15
21.94
18.03
13.20
8.40
4.52
2.14
1.44
2.19
3.94
6.18
8.50
10.62
12.33
13.51
14.01
13.68
12.34
9.89
6.39
2.07
-2.61
-7.19
-11.27
-14.75
-17.85
-21.04
-24.89
-29.81
-35.82
-42.45
-48.70
-53.24
-54.80
-52.50
-46.20
-36.59
-24.92
-12.66
-1.14
8.71
16.37
21.57
24.24
24.43
22.39
18.66
13.97
9.22
5.21
2.51
1.38
1.73
3.26
5.52
8.02
10.37
12.27
13.54
14.05
13.72
12.42
10.06
6.66
2.39
-2.39
-7.23
-11.74
-15.75
-19.39
-23.02
-27.10
-32.00
-37.78
-44.10
-50.18
-54.93
-57.16
-55.89
-50.68
-41.76
-30.06
-17.00
-4.10
7.33
16.43
22.78
26.32
27.22
25.78
22.49
18.01
13.21
8.96
6.01
4.78
5.27
7.18
10.05
13.38
16.71
19.66
21.84
22.94
22.65
20.83
17.48
12.77
7.10
0.92
-5.26
-11.04
-16.19
-20.76
-25.03
-29.48
-34.58
-40.61
-47.40
-54.27
-60.09
-63.53
-63.43
-59.21
-51.03
-39.83
-27.05
-14.23
-2.73
6.55
13.13
16.94
18.16
17.19
14.56
10.89
6.92
3.37
0.88
-0.11
0.55
2.67
5.74
9.13
12.16
14.31
15.27
14.92
13.30
10.52
6.77
2.26
-2.74
-7.97
-13.27
-18.57
-23.95
-29.57
-35.58
-41.90
-48.09
-53.30
-56.39
-56.22
-52.05
-43.82
-32.31
-18.95
-5.45
6.58
16.07
22.53
25.98
26.73
25.27
22.14
17.99
13.56
9.63
6.93
5.89
6.61
8.86
12.21
16.08
19.92
23.19
25.33
25.89
24.53
21.24
16.32
10.41
4.26
-1.55
-6.70
-11.24
-15.55
-20.11
-25.40
-31.57
-38.38
-45.03
-50.25
-52.58
-50.82
-44.42
-33.80
-20.26
-5.59
8.35
20.13
28.94
34.52
37.00
36.74
34.22
30.13
25.28
20.62
17.04
15.19
15.33
17.29
20.58
24.51
28.43
31.78
34.14
35.20
34.79
32.82
29.41
24.84
19.52
13.93
8.45
3.28
-1.62
-6.51
-11.74
-17.68
-24.46
-31.87
-39.20
-45.31
-48.79
-48.41
-43.47
-34.08
-21.27
-6.62
8.06
21.20
31.70
39.04
43.11
44.11
42.45
38.70
33.59
27.96
22.75
18.83
16.76
16.80
18.72
21.92
25.60
28.94
31.29
32.29
31.83
30.03
27.09
23.24
18.68
13.67
8.48
3.40
-1.37
-5.85
-10.26
-15.06
-20.69
-27.31
-34.59
-41.51
-46.69
-48.64
-46.32
-39.41
-28.48
-14.80
0.00
14.35
26.97
37.02
44.06
47.88
48.50
46.16
41.42
35.20
28.69
23.08
19.25
17.56
17.82
19.44
21.74
24.10
26.13
27.58
28.22
27.86
26.28
23.43
19.39
14.46
9.07
3.60
-1.64
-6.57
-11.30
-16.11
-21.36
-27.35
-34.15
-41.46
-48.53
-54.18
-57.01
-55.82
-50.01
-39.89
-26.62
-11.94
2.39
14.99
25.05
32.23
36.44
37.70
36.10
32.01
26.21
19.82
14.18
10.39
9.08
10.24
13.31
17.42
21.70
25.46
28.34
30.22
31.09
30.88
29.43
26.60
22.40
17.13
11.30
5.51
0.17
-4.65
-9.21
-13.97
-19.39
-25.74
-32.90
-40.43
-47.47
-52.93
-55.58
-54.42
-48.89
-39.15
-26.14
-11.29
3.72
17.38
28.54
36.50
40.93
41.81
39.41
34.37
27.75
20.90
15.23
11.82
11.15
12.97
16.51
20.78
24.93
28.51
31.34
33.43
34.72
35.00
33.93
31.33
27.28
22.19
16.72
11.50
6.95
3.12
-0.27
-3.77
-7.95
-13.23
-19.74
-27.13
-34.57
-40.78
-44.32
-43.93
-38.89
-29.29
-16.11
-0.96
14.33
28.09
39.14
46.84
51.07
52.10
50.47
46.92
42.30
37.49
33.25
30.16
28.46
28.12
28.84
30.15
31.53
32.52
32.84
32.41
31.30
29.61
27.36
24.44
20.75
16.32
11.34
6.18
1.26
-3.10
-6.71
-9.61
-12.12
-14.86
-18.73
-24.70
-33.43
-44.85
-57.93
-70.87
-81.54
-88.16
-89.77
-86.42
-79.04
-69.04
-57.95
-47.07
-37.34
-29.23
-22.87
-18.09
-14.54
-11.77
-9.31
-6.78
-3.96
-0.84
2.32
5.13
7.27
8.55
9.13
9.35
9.60
10.13
10.88
11.59
11.85
11.27
9.63
6.90
3.19
-1.35
-6.63
-12.70
-19.70
-27.65
-36.31
-45.05
-52.85
-58.45
-60.69
-58.75
-52.46
-42.34
-29.51
-15.47
-1.68
10.58
20.47
27.51
31.54
32.59
30.92
27.07
21.85
16.31
11.53
8.33
7.11
7.79
9.94
12.95
16.25
19.39
22.00
23.73
24.27
23.40
21.07
17.48
13.04
8.18
3.23
-1.70
-6.76
-12.23
-18.45
-25.60
-33.58
-41.91
-49.66
-55.53
-58.08
-56.21
-49.51
-38.53
-24.70
-10.00
3.66
14.85
22.80
27.40
28.91
27.71
24.21
18.92
12.53
5.99
0.38
-3.41
-4.79
-3.81
-0.97
2.94
7.07
10.70
13.30
14.56
14.32
12.60
9.56
5.52
0.89
-3.97
-8.86
-13.82
-19.10
-25.05
-31.84
-39.25
-46.48
-52.22
-54.96
-53.40
-47.01
-36.19
-22.28
-7.18
7.18
19.29
28.29
33.91
36.31
35.82
32.84
27.91
21.70
15.14
9.27
5.02
2.98
3.23
5.26
8.21
11.13
13.22
14.05
13.49
11.67
8.85
5.24
1.03
-3.66
-8.79
-14.35
-20.40
-27.11
-34.60
-42.81
-51.24
-58.89
-64.34
-66.10
-63.09
-55.04
-42.66
-27.46
-11.38
3.74
16.46
25.92
31.82
34.24
33.58
30.41
25.50
19.74
14.15
9.70
7.19
7.02
9.06
12.70
17.02
21.04
24.00
25.47
25.36
23.75
20.83
16.75
11.74
6.04
-0.06
-6.38
-12.92
-19.90
-27.57
-36.02
-44.84
-53.03
-59.08
-61.31
-58.46
-50.15
-37.03
-20.76
-3.52
12.56
25.83
35.41
41.11
43.24
42.33
39.05
34.17
28.59
23.33
19.36
17.42
17.83
20.37
24.37
28.93
33.16
36.32
38.01
38.10
36.67
33.90
29.98
25.07
19.32
12.90
6.00
-1.22
-8.70
-16.49
-24.62
-32.94
-40.88
-47.40
-51.13
-50.74
-45.41
-35.22
-21.26
-5.37
10.32
23.94
34.25
40.77
43.61
43.27
40.44
35.92
30.58
25.36
21.22
18.91
18.88
21.03
24.80
29.25
33.37
36.28
37.44
36.74
34.34
30.62
25.95
20.66
14.99
9.15
3.31
-2.37
-7.94
-13.61
-19.74
-26.63
-34.21
-41.86
-48.31
-51.99
-51.47
-45.95
-35.64
-21.75
-6.11
9.25
22.68
33.11
40.05
43.51
43.77
41.30
36.78
31.12
25.38
20.64
17.79
17.23
18.81
21.90
25.60
29.02
31.53
32.84
32.91
31.80
29.56
26.22
21.83
16.55
10.71
4.76
-0.88
-6.02
-10.72
-15.41
-20.66
-26.95
-34.44
-42.61
-50.39
-56.22
-58.60
-56.49
-49.71
-38.96
-25.61
-11.31
2.42
14.46
24.13
31.05
35.08
36.21
34.63
30.89
25.88
20.83
16.97
15.25
16.00
18.95
23.28
27.97
32.13
35.15
36.79
37.05
36.04
33.89
30.68
26.51
21.53
16.02
10.29
4.71
-0.49
-5.20
-9.49
-13.61
-17.91
-22.70
-28.25
-34.71
-41.93
-49.39
-56.16
-60.97
-62.51
-59.79
-52.55
-41.34
-27.51
-12.78
1.15
13.00
22.05
28.09
31.24
31.81
30.21
27.07
23.19
19.60
17.34
17.14
19.20
23.10
27.90
32.49
35.96
37.85
38.17
37.26
35.53
33.22
30.41
26.97
22.87
18.12
12.93
7.60
2.38
-2.51
-7.02
-11.19
-15.11
-18.91
-22.76
-26.87
-31.52
-36.94
-43.20
-49.96
-56.38
-61.16
-62.89
-60.49
-53.59
-42.81
-29.56
-15.58
-2.48
8.63
17.18
23.08
26.40
27.36
26.29
23.72
20.48
17.48
15.56
15.28
16.75
19.66
23.47
27.52
31.19
33.98
35.56
35.77
34.65
32.35
29.15
25.37
21.31
17.25
13.35
9.66
6.16
2.77
-0.58
-3.88
-7.06
-9.99
-12.61
-14.96
-17.29
-20.00
-23.54
-28.29
-34.27
-41.01
-47.46
-52.18
-53.69
-51.02
-44.00
-33.42
-20.74
-7.68
4.29
14.18
21.53
26.23
28.36
28.11
25.83
22.15
18.00
14.38
12.25
12.15
14.07
17.48
21.55
25.36
28.22
29.77
29.97
29.00
27.11
24.53
21.49
18.16
14.71
11.26
7.86
4.45
1.00
-2.51
-6.02
-9.39
-12.46
-15.18
-17.66
-20.15
-23.01
-26.66
-31.35
-37.01
-43.13
-48.76
-52.69
-53.80
-51.33
-45.22
-36.10
-25.12
-13.64
-2.94
6.06
12.82
17.14
19.05
18.75
16.55
12.99
8.81
4.97
2.33
1.55
2.76
5.56
9.20
12.79
15.68
17.54
18.40
18.46
17.88
16.65
14.67
11.78
7.99
3.53
-1.12
-5.43
-8.98
-11.64
-13.63
-15.40
-17.55
-20.61
-24.87
-30.34
-36.62
-42.99
-48.39
-51.68
-51.92
-48.59
-41.83
-32.42
-21.59
-10.70
-0.94
6.87
12.30
15.26
15.86
14.38
11.26
7.17
2.99
-0.28
-1.65
-0.47
3.47
9.82
17.68
25.84
33.02
38.23
40.91
41.05
39.03
35.41
30.69
25.18
19.00
12.21
4.97
-2.53
-9.99
-17.20
-24.08
-30.68
-37.16
-43.68
-50.38
-57.28
-64.23
-70.78
-76.18
-79.41
-79.51
-75.86
-68.47
-58.00
-45.62
-32.66
-20.32
-9.43
-0.43
6.49
11.26
13.84
14.32
13.01
10.54
7.82
5.80
5.25
6.49
9.32
13.13
17.12
20.60
23.12
24.56
25.02
24.65
23.49
21.50
18.56
14.64
9.88
4.63
-0.63
-5.44
-9.51
-12.83
-15.63
-18.34
-21.37
-25.12
-29.83
-35.46
-41.61
-47.50
-51.98
-53.87
-52.21
-46.65
-37.61
-26.15
-13.70
-1.75
8.53
16.41
21.62
24.22
24.51
22.97
20.22
16.96
13.93
11.75
10.85
11.36
13.14
15.81
18.92
21.99
24.64
26.60
27.70
27.83
26.90
24.78
21.36
16.67
10.92
4.64
-1.49
-6.82
-11.04
-14.34
-17.33
-20.78
-25.32
-31.19
-38.12
-45.38
-51.90
-56.47
-57.90
-55.41
-48.80
-38.66
-26.21
-13.10
-0.89
9.31
16.93
21.88
24.34
24.59
23.00
20.06
16.50
13.16
10.82
9.96
10.64
12.55
15.12
17.82
20.26
22.19
23.45
23.86
23.18
21.22
18.00
13.75
8.99
4.25
-0.04
-3.77
-7.12
-10.52
-14.45
-19.27
-25.11
-31.76
-38.60
-44.71
-48.93
-50.13
-47.56
-41.06
-31.18
-19.10
-6.29
5.84
16.16
23.95
28.91
31.05
30.59
27.97
23.83
19.03
14.53
11.28
9.91
10.61
13.07
16.59
20.31
23.50
25.66
26.59
26.24
24.66
21.89
18.12
13.61
8.76
3.93
-0.69
-5.13
-9.65
-14.59
-20.24
-26.65
-33.53
-40.16
-45.46
-48.12
-47.02
-41.56
-32.01
-19.56
-5.95
6.99
17.86
25.92
31.06
33.51
33.59
31.64
28.08
23.53
18.88
15.08
12.95
12.85
14.63
17.73
21.37
24.81
27.50
29.08
29.41
28.45
26.27
23.00
18.82
13.97
8.76
3.50
-1.58
-6.46
-11.36
-16.69
-22.77
-29.57
-36.51
-42.44
-45.98
-45.91
-41.56
-33.11
-21.46
-8.04
5.52
17.76
27.54
34.23
37.65
38.04
35.91
31.98
27.02
21.88
17.39
14.26
13.00
13.73
16.17
19.66
23.34
26.41
28.31
28.79
27.92
25.93
23.06
19.57
15.59
11.26
6.72
2.08
-2.62
-7.50
-12.85
-18.97
-25.94
-33.32
-40.08
-44.78
-45.94
-42.65
-34.92
-23.69
-10.59
2.55
14.20
23.38
29.60
32.78
33.04
30.68
26.20
20.38
14.23
8.84
5.14
3.70
4.55
7.25
11.02
14.96
18.21
20.19
20.64
19.64
17.46
14.44
10.87
6.95
2.74
-1.71
-6.45
-11.58
-17.27
-23.61
-30.47
-37.26
-42.94
-46.15
-45.70
-41.00
-32.33
-20.82
-8.14
4.05
14.41
22.16
26.97
28.88
28.09
24.98
20.12
14.30
8.49
3.71
0.76
0.03
1.43
4.39
8.04
11.48
13.92
14.87
14.14
11.89
8.46
4.28
-0.22
-4.77
-9.32
-13.99
-19.03
-24.75
-31.35
-38.84
-46.89
-54.78
-61.37
-65.26
-65.15
-60.30
-50.83
-37.82
-23.08
-8.63
3.88
13.49
19.97
23.60
24.83
24.08
21.69
18.09
13.90
9.97
7.15
6.06
6.87
9.22
12.44
15.78
18.61
20.54
21.40
21.09
19.59
16.87
13.08
8.51
3.53
-1.48
-6.30
-10.95
-15.69
-20.90
-26.92
-33.86
-41.38
-48.64
-54.36
-57.13
-55.82
-49.92
-39.88
-26.94
-12.84
0.67
12.25
21.11
27.05
30.15
30.74
29.21
26.14
22.20
18.25
15.13
13.50
13.65
15.48
18.48
21.97
25.26
27.83
29.39
29.83
29.11
27.23
24.21
20.10
15.13
9.66
4.15
-1.03
-5.70
-9.94
-14.08
-18.57
-23.86
-30.23
-37.57
-45.35
-52.53
-57.72
-59.59
-57.20
-50.41
-39.95
-27.25
-14.01
-1.70
8.73
16.88
22.73
26.36
27.86
27.34
25.15
22.00
18.88
16.82
16.58
18.32
21.60
25.61
29.46
32.48
34.32
34.99
34.61
33.36
31.32
28.50
24.89
20.48
15.40
9.87
4.23
-1.24
-6.29
-10.85
-14.99
-18.95
-23.06
-27.66
-33.05
-39.29
-46.10
-52.72
-58.02
-60.67
-59.58
-54.22
-44.92
-32.71
-19.05
-5.48
6.82
17.05
24.80
29.88
32.28
32.19
30.11
26.86
23.46
20.88
19.80
20.41
22.50
25.58
29.04
32.31
34.88
36.42
36.79
36.07
34.49
32.28
29.58
26.29
22.29
17.52
12.20
6.75
1.69
-2.68
-6.34
-9.62
-12.99
-16.87
-21.53
-27.07
-33.38
-40.18
-46.87
-52.49
-55.87
-55.83
-51.62
-43.23
-31.51
-17.96
-4.30
7.94
17.74
24.65
28.62
29.82
28.56
25.35
20.91
16.25
12.46
10.49
10.80
13.32
17.42
22.16
26.66
30.27
32.74
34.11
34.52
34.02
32.52
29.87
25.98
21.07
15.58
10.04
4.93
0.45
-3.49
-7.17
-10.95
-15.17
-20.06
-25.78
-32.22
-38.98
-45.22
-49.78
-51.43
-49.23
-42.91
-32.99
-20.70
-7.61
4.75
15.24
23.17
28.28
30.59
30.27
27.71
23.48
18.47
13.73
10.31
8.89
9.65
12.20
15.74
19.40
22.45
24.54
25.59
25.67
24.89
23.25
20.69
17.14
12.65
7.43
1.81
-3.85
-9.23
-14.22
-18.86
-23.40
-28.18
-33.60
-39.93
-47.25
-55.18
-62.87
-69.03
-72.23
-71.30
-65.73
-55.86
-42.78
-28.04
-13.21
0.41
11.92
20.78
26.71
29.64
29.74
27.48
23.68
19.41
15.80
13.80
13.88
16.00
19.60
23.81
27.79
30.91
32.92
33.84
33.84
33.04
31.44
28.93
25.40
20.85
15.48
9.70
3.94
-1.43
-6.31
-10.81
-15.21
-19.86
-25.07
-31.10
-37.98
-45.53
-53.08
-59.56
-63.56
-63.72
-59.26
-50.23
-37.67
-23.20
-8.59
4.72
15.88
24.48
30.39
33.58
34.10
32.23
28.62
24.31
20.48
18.15
17.87
19.56
22.60
26.14
29.41
31.96
33.72
34.85
35.48
35.54
34.79
32.86
29.52
24.81
19.06
12.80
6.57
0.76
-4.47
-9.19
-13.65
-18.20
-23.20
-28.97
-35.65
-43.02
-50.41
-56.66
-60.35
-60.21
-55.49
-46.34
-33.71
-19.22
-4.62
8.56
19.26
26.99
31.64
33.39
32.64
30.07
26.61
23.39
21.50
21.69
24.13
28.32
33.29
37.93
41.35
43.17
43.54
42.83
41.40
39.35
36.49
32.59
27.54
21.57
15.09
8.61
2.49
-3.18
-8.49
-13.63
-18.79
-24.12
-29.83
-36.06
-42.82
-49.82
-56.28
-61.08
-63.00
-61.15
-55.25
-45.78
-33.84
-20.83
-8.16
3.02
11.88
17.97
21.14
21.57
19.72
16.29
12.19
8.33
5.51
4.26
4.77
6.90
10.25
14.27
18.33
21.88
24.46
25.72
25.48
23.72
20.56
16.32
11.40
6.31
1.46
-2.92
-6.83
-10.52
-14.41
-18.91
-24.24
-30.27
-36.41
-41.69
-44.87
-44.90
-41.14
-33.68
-23.33
-11.40
0.69
11.68
20.72
27.27
31.10
32.15
30.55
26.73
21.41
15.56
10.19
6.19
4.06
3.90
5.39
7.96
10.87
13.42
15.02
15.34
14.29
12.01
8.74
4.76
0.28
-4.51
-9.51
-14.65
-19.99
-25.71
-32.07
-39.31
-47.33
-55.57
-62.87
-67.79
-68.96
-65.52
-57.43
-45.53
-31.25
-16.29
-2.23
9.74
18.84
24.77
27.61
27.75
25.84
22.64
18.95
15.50
12.87
11.42
11.26
12.30
14.24
16.70
19.24
21.35
22.54
22.38
20.63
17.33
12.77
7.40
1.70
-4.02
-9.65
-15.34
-21.35
-27.99
-35.47
-43.79
-52.59
-61.03
-67.89
-71.71
-71.26
-65.89
-55.86
-42.31
-26.96
-11.65
2.14
13.47
21.98
27.75
31.01
32.01
31.03
28.53
25.15
21.76
19.20
18.09
18.60
20.41
22.91
25.41
27.38
28.50
28.61
27.62
25.40
21.89
17.14
11.43
5.22
-0.98
-6.84
-12.30
-17.66
-23.46
-30.20
-38.09
-46.79
-55.33
-62.30
-66.14
-65.58
-60.04
-49.81
-36.02
-20.33
-4.49
10.00
22.12
31.40
37.76
41.40
42.69
42.07
40.05
37.20
34.20
31.67
30.10
29.70
30.37
31.79
33.48
34.97
35.87
35.91
34.90
32.71
29.31
24.74
19.26
13.22
7.04
1.09
-4.40
-9.45
-14.27
-19.32
-25.05
-31.76
-39.29
-46.90
-53.35
-57.17
-57.14
-52.69
-44.08
-32.29
-18.69
-4.74
8.34
19.60
28.42
34.44
37.56
38.03
36.42
33.58
30.49
28.05
26.84
27.07
28.55
30.87
33.53
36.09
38.25
39.75
40.40
39.98
38.26
35.16
30.78
25.42
19.50
13.47
7.65
2.25
-2.73
-7.42
-12.10
-17.17
-23.03
-29.87
-37.49
-45.09
-51.41
-54.97
-54.53
-49.51
-40.20
-27.72
-13.64
0.35
12.87
22.98
30.20
34.45
35.87
34.80
31.81
27.66
23.30
19.72
17.70
17.55
19.13
21.83
24.90
27.70
29.82
31.06
31.30
30.40
28.23
24.74
20.08
14.63
8.84
3.12
-2.38
-7.76
-13.28
-19.29
-25.97
-33.30
-40.85
-47.84
-53.17
-55.61
-54.23
-48.62
-39.18
-26.97
-13.51
-0.32
11.33
20.62
27.15
30.82
31.77
30.33
27.11
22.93
18.73
15.38
13.45
13.11
14.14
16.05
18.27
20.30
21.80
22.50
22.19
20.67
17.80
13.61
8.32
2.36
-3.77
-9.62
-14.92
-19.71
-24.26
-29.03
-34.51
-40.98
-48.43
-56.37
-63.79
-69.36
-71.66
-69.61
-62.83
-51.76
-37.67
-22.26
-7.27
5.97
16.64
24.44
29.45
31.87
32.01
30.28
27.31
23.89
20.88
18.97
18.48
19.36
21.24
23.61
26.04
28.18
29.76
30.51
30.15
28.44
25.30
20.89
15.62
10.03
4.62
-0.33
-4.79
-9.02
-13.45
-18.55
-24.70
-31.99
-40.11
-48.28
-55.27
-59.64
-60.15
-56.11
-47.66
-35.75
-21.86
-7.64
5.51
16.64
25.25
31.18
34.46
35.31
34.10
31.40
27.97
24.65
22.18
20.99
21.17
22.44
24.35
26.41
28.29
29.75
30.65
30.82
30.01
27.96
24.52
19.80
14.20
8.29
2.68
-2.27
-6.46
-10.17
-13.90
-18.26
-23.71
-30.39
-37.93
-45.44
-51.65
-55.17
-54.94
-50.46
-42.00
-30.51
-17.36
-4.06
8.11
18.20
25.69
30.40
32.44
32.12
29.92
26.51
22.65
19.17
16.76
15.84
16.52
18.53
21.42
24.68
27.83
30.46
32.21
32.75
31.78
29.21
25.18
20.09
14.49
8.89
3.61
-1.29
-6.03
-10.96
-16.44
-22.74
-29.83
-37.36
-44.54
-50.28
-53.36
-52.75
-47.98
-39.34
-27.88
-15.11
-2.60
8.35
16.99
23.03
26.46
27.43
26.17
23.04
18.64
13.83
9.55
6.64
5.55
6.25
8.29
11.02
13.78
16.10
17.64
18.19
17.60
15.77
12.70
8.58
3.75
-1.33
-6.29
-10.90
-15.22
-19.57
-24.38
-30.06
-36.78
-44.31
-51.92
-58.46
-62.55
-62.98
-59.05
-50.81
-39.14
-25.43
-11.31
1.72
12.54
20.50
25.38
27.32
26.71
24.20
20.52
16.49
12.87
10.23
8.91
8.91
10.00
11.79
13.86
15.85
17.48
18.51
18.76
18.05
16.27
13.40
9.58
5.10
0.31
-4.43
-8.95
-13.25
-17.62
-22.47
-28.22
-35.03
-42.57
-49.95
-55.85
-58.88
-58.03
-52.92
-43.99
-32.27
-19.15
-6.00
6.05
16.14
23.74
28.55
30.57
30.03
27.51
23.81
19.88
16.58
14.52
13.92
14.66
16.35
18.48
20.59
22.36
23.58
24.12
23.86
22.64
20.34
16.88
12.40
7.25
1.86
-3.29
-7.95
-12.15
-16.21
-20.63
-25.84
-32.00
-38.76
-45.35
-50.60
-53.31
-52.47
-47.57
-38.85
-27.22
-14.09
-1.03
10.57
19.73
26.02
29.44
30.33
29.18
26.61
23.24
19.74
16.70
14.55
13.54
13.71
14.90
16.83
19.11
21.30
22.94
23.66
23.22
21.56
18.77
15.05
10.62
5.72
0.61
-4.45
-9.26
-13.72
-17.97
-22.33
-27.19
-32.78
-38.91
-44.88
-49.56
-51.66
-50.15
-44.62
-35.48
-23.84
-11.21
0.90
11.34
19.39
24.76
27.39
27.42
25.14
21.14
16.25
11.50
7.88
6.07
6.28
8.23
11.29
14.67
17.69
19.86
20.90
20.78
19.56
17.41
14.52
11.06
7.20
3.07
-1.23
-5.69
-10.41
-15.54
-21.27
-27.67
-34.49
-41.11
-46.52
-49.55
-49.20
-44.97
-37.07
-26.42
-14.34
-2.34
8.32
16.70
22.30
24.96
24.87
22.48
18.49
13.74
9.13
5.46
3.31
2.93
4.26
6.97
10.51
14.22
17.47
19.73
20.63
19.96
17.68
13.98
9.17
3.75
-1.78
-7.00
-11.75
-16.17
-20.68
-25.80
-31.90
-38.95
-46.46
-53.48
-58.82
-61.28
-59.99
-54.64
-45.62
-33.89
-20.78
-7.70
4.17
14.00
21.29
25.83
27.67
27.01
24.34
20.32
15.85
11.83
9.00
7.74
8.04
9.55
11.74
14.13
16.36
18.21
19.48
19.92
19.19
17.01
13.35
8.49
2.93
-2.74
-8.07
-12.88
-17.25
-21.46
-25.86
-30.83
-36.65
-43.29
-50.26
-56.55
-60.72
-61.37
-57.62
-49.41
-37.65
-23.82
-9.67
3.34
14.16
22.22
27.33
29.60
29.33
26.99
23.31
19.12
15.34
12.76
11.84
12.65
14.82
17.79
20.91
23.68
25.85
27.30
28.00
27.83
26.61
24.12
20.24
15.12
9.14
2.90
-3.03
-8.22
-12.66
-16.65
-20.74
-25.51
-31.36
-38.34
-46.05
-53.67
-60.03
-63.83
-63.91
-59.63
-51.10
-39.19
-25.34
-11.15
1.96
13.04
21.58
27.42
30.55
31.15
29.58
26.43
22.54
18.88
16.33
15.49
16.54
19.23
22.93
26.88
30.36
32.98
34.61
35.33
35.24
34.31
32.32
29.05
24.42
18.69
12.33
5.91
-0.16
-5.70
-10.80
-15.66
-20.53
-25.64
-31.18
-37.28
-43.87
-50.55
-56.49
-60.49
-61.33
-58.13
-50.68
-39.53
-25.90
-11.30
2.83
15.29
25.23
32.17
35.88
36.47
34.36
30.35
25.53
21.08
17.99
16.91
17.92
20.67
24.45
28.45
31.99
34.67
36.36
37.12
37.03
36.05
34.05
30.84
26.41
20.94
14.86
8.68
2.89
-2.25
-6.78
-11.00
-15.37
-20.37
-26.35
-33.34
-41.02
-48.67
-55.21
-59.40
-60.14
-56.64
-48.77
-37.07
-22.74
-7.37
7.44
20.31
30.33
37.08
40.50
40.84
38.57
34.39
29.27
24.24
20.31
18.17
18.07
19.74
22.58
25.84
28.86
31.18
32.53
32.74
31.69
29.30
25.56
20.65
14.90
8.79
2.80
-2.78
-7.83
-12.49
-17.05
-21.95
-27.58
-34.21
-41.75
-49.66
-56.89
-62.02
-63.68
-60.94
-53.58
-42.24
-28.19
-13.08
1.52
14.29
24.32
31.12
34.54
34.77
32.33
28.03
22.95
18.21
14.83
13.48
14.28
16.80
20.23
23.73
26.68
28.79
30.08
30.64
30.47
29.35
27.01
23.29
18.29
12.42
6.25
0.28
-5.20
-10.19
-14.96
-19.94
-25.60
-32.28
-40.07
-48.66
-57.22
-64.51
-69.09
-69.64
-65.36
-56.21
-42.99
-27.18
-10.57
5.07
18.36
28.43
34.96
38.05
38.11
35.78
31.87
27.30
22.98
19.72
18.08
18.23
20.04
23.03
26.59
30.12
33.13
35.28
36.37
36.26
34.78
31.82
27.40
21.70
15.20
8.55
2.32
-3.14
-7.87
-12.32
-17.09
-22.75
-29.65
-37.72
-46.47
-54.93
-61.82
-65.73
-65.50
-60.50
-50.92
-37.73
-22.44
-6.73
7.91
20.38
30.01
36.40
39.44
39.22
36.19
31.21
25.46
20.26
16.73
15.49
16.52
19.32
23.14
27.33
31.51
35.56
39.44
42.94
45.65
46.94
46.31
43.48
38.57
32.06
24.57
16.78
9.21
2.21
-4.12
-9.92
-15.49
-21.21
-27.35
-33.84
-40.15
-45.35
-48.28
-47.92
-43.67
-35.65
-24.59
-11.81
1.16
12.85
22.14
28.38
31.40
31.38
28.78
24.30
18.85
13.48
9.27
7.06
7.23
9.58
13.40
17.79
21.90
25.18
27.40
28.43
28.21
26.65
23.66
19.36
14.06
8.24
2.38
-3.18
-8.40
-13.54
-19.05
-25.40
-32.91
-41.49
-50.48
-58.65
-64.43
-66.31
-63.32
-55.33
-43.20
-28.43
-12.75
2.26
15.39
25.87
33.18
37.01
37.33
34.47
29.24
22.85
16.70
11.98
9.42
9.16
10.78
13.54
16.62
19.43
21.58
22.89
23.26
22.56
20.62
17.34
12.75
7.15
1.02
-5.09
-10.77
-15.89
-20.64
-25.53
-31.15
-37.96
-46.02
-54.79
-63.17
-69.64
-72.59
-70.81
-63.80
-51.98
-36.60
-19.40
-2.29
13.10
25.64
34.70
40.12
42.12
41.17
37.98
33.53
28.87
25.05
22.86
22.67
24.36
27.38
30.97
34.39
37.10
38.78
39.29
38.54
36.47
33.02
28.26
22.44
15.96
9.27
2.76
-3.37
-9.15
-14.79
-20.64
-27.10
-34.44
-42.67
-51.20
-58.90
-64.18
-65.46
-61.71
-52.83
-39.76
-24.09
-7.69
7.78
21.07
31.37
38.23
41.50
41.38
38.48
33.76
28.44
23.73
20.54
19.37
20.19
22.55
25.79
29.23
32.31
34.66
36.07
36.36
35.33
32.83
28.85
23.61
17.56
11.27
5.21
-0.31
-5.35
-10.20
-15.31
-21.18
-28.14
-36.20
-44.94
-53.38
-60.11
-63.58
-62.52
-56.40
-45.66
-31.62
-16.08
-0.90
12.48
23.18
30.77
35.17
36.43
34.85
30.92
25.52
19.76
14.79
11.57
10.60
11.83
14.77
18.64
22.58
25.86
27.93
28.49
27.46
24.94
21.17
16.48
11.20
5.68
0.14
-5.33
-10.84
-16.68
-23.24
-30.79
-39.21
-47.83
-55.38
-60.28
-61.09
-56.96
-47.97
-35.13
-20.09
-4.69
9.49
21.32
30.12
35.59
37.67
36.55
32.78
27.26
21.16
15.67
11.77
9.94
10.20
12.16
15.16
18.51
21.57
23.83
24.92
24.62
22.88
19.79
15.56
10.46
4.80
-1.14
-7.17
-13.26
-19.51
-26.18
-33.58
-41.92
-51.08
-60.46
-68.96
-75.10
-77.41
-74.87
-67.26
-55.30
-40.51
-24.77
-9.88
2.79
12.44
18.77
21.83
21.90
19.46
15.19
10.00
4.93
0.97
-1.11
-0.97
1.28
5.18
10.01
14.97
19.33
22.47
23.95
23.57
21.39
17.66
12.79
7.26
1.47
-4.32
-10.02
-15.70
-21.61
-28.03
-35.13
-42.70
-49.97
-55.70
-58.40
-56.85
-50.57
-39.97
-26.34
-11.42
3.06
15.74
25.79
32.81
36.70
37.57
35.75
31.85
26.79
21.66
17.56
15.25
14.98
16.47
19.06
21.99
24.61
26.48
27.34
27.02
25.39
22.35
17.96
12.47
6.33
0.01
-6.07
-11.78
-17.22
-22.79
-29.03
-36.38
-45.02
-54.55
-63.86
-71.30
-75.04
-73.66
-66.69
-54.76
-39.45
-22.80
-6.70
7.45
18.84
27.14
32.30
34.48
34.02
31.58
28.04
24.44
21.71
20.47
20.96
22.97
25.98
29.37
32.50
34.93
36.38
36.72
35.86
33.76
30.37
25.72
19.98
13.52
6.83
0.37
-5.60
-11.16
-16.68
-22.78
-29.93
-38.28
-47.39
-56.25
-63.38
-67.24
-66.64
-61.06
-50.88
-37.19
-21.61
-5.84
8.66
20.87
30.18
36.35
39.39
39.55
37.37
33.66
29.51
26.09
24.36
24.81
27.31
31.18
35.44
39.12
41.55
42.54
42.18
40.75
38.44
35.26
31.13
25.98
19.90
13.20
6.34
-0.22
-6.21
-11.59
-16.56
-21.53
-26.96
-33.26
-40.62
-48.81
-57.07
-64.11
-68.34
-68.32
-63.26
-53.29
-39.57
-23.88
-8.16
6.00
17.56
26.09
31.51
34.01
33.87
31.57
27.79
23.45
19.62
17.27
17.05
19.05
22.78
27.29
31.49
34.51
35.95
35.91
34.84
33.20
31.16
28.56
25.05
20.35
14.54
8.09
1.69
-3.98
-8.55
-12.04
-14.82
-17.46
-20.50
-24.38
-29.40
-35.63
-42.80
-50.12
-56.33
-59.82
-59.16
-53.53
-43.14
-29.23
-13.70
1.45
14.58
24.73
31.54
35.08
35.61
33.52
29.41
24.14
18.79
14.52
12.27
12.51
15.12
19.44
24.51
29.33
33.12
35.44
36.16
35.35
33.16
29.75
25.26
19.88
13.86
7.57
1.40
-4.35
-9.48
-13.97
-17.90
-21.46
-24.85
-28.34
-32.21
-36.79
-42.30
-48.73
-55.57
-61.81
-65.97
-66.54
-62.41
-53.29
-39.93
-23.87
-7.11
8.45
21.41
30.98
36.98
39.54
39.03
35.93
30.90
24.84
18.86
14.12
11.54
11.55
13.94
17.95
22.53
26.67
29.68
31.26
31.49
30.56
28.69
25.96
22.38
17.93
12.69
6.84
0.69
-5.42
-11.17
-16.35
-20.90
-24.95
-28.76
-32.73
-37.27
-42.72
-49.18
-56.31
-63.24
-68.65
-70.96
-68.87
-61.78
-50.05
-35.02
-18.60
-2.76
10.92
21.49
28.57
32.19
32.56
30.08
25.35
19.28
13.06
7.89
4.72
4.01
5.61
8.97
13.37
18.15
22.80
27.00
30.49
33.02
34.34
34.10
31.97
27.69
21.24
13.06
4.08
-4.38
-10.91
-14.37
-14.24
-10.75
-4.88
1.81
7.48
10.29
9.03
3.58
-4.86
-13.88
-20.53
-22.38
-18.26
-8.70
4.41
18.53
31.25
40.89
46.57
48.05
45.51
39.41
30.48
19.81
8.80
-1.05
-8.44
-12.65
-13.69
-12.28
-9.46
-6.20
-3.14
-0.40
2.13
4.50
6.49
7.57
7.16
4.88
0.83
-4.45
-10.26
-15.95
-21.19
-26.00
-30.67
-35.57
-40.99
-47.07
-53.60
-60.06
-65.58
-69.07
-69.40
-65.76
-57.85
-46.14
-31.76
-16.30
-1.50
11.17
20.67
26.46
28.52
27.16
23.01
16.88
9.74
2.61
-3.54
-8.01
-10.40
-10.68
-9.14
-6.26
-2.60
1.25
4.70
7.17
8.26
7.75
5.72
2.51
-1.42
-5.68
-10.08
-14.64
-19.57
-25.15
-31.64
-39.09
-47.31
-55.59
-62.75
-67.18
-67.28
-61.93
-51.01
-35.53
-17.44
0.86
17.17
29.87
38.18
42.01
41.78
38.18
32.02
24.18
15.64
7.44
0.60
-4.03
-6.00
-5.35
-2.62
1.34
5.49
8.92
10.99
11.35
9.96
6.99
2.81
-2.17
-7.58
-13.24
-19.17
-25.60
-32.87
-41.25
-50.77
-61.00
-70.93
-78.96
-83.22
-81.99
-74.31
-60.39
-41.73
-20.74
-0.13
17.76
31.50
40.62
45.36
46.34
44.22
39.67
33.41
26.38
19.67
14.34
11.23
10.67
12.44
15.88
20.08
24.15
27.34
29.15
29.28
27.61
24.19
19.25
13.13
6.31
-0.75
-7.75
-14.64
-21.71
-29.48
-38.41
-48.51
-59.03
-68.40
-74.49
-75.28
-69.48
-57.06
-39.34
-18.61
2.45
21.46
36.74
47.43
53.40
54.97
52.78
47.68
40.69
32.92
25.49
19.38
15.27
13.52
14.09
16.63
20.51
24.92
28.95
31.80
32.81
31.63
28.31
23.19
16.83
9.87
2.83
-4.04
-10.79
-17.76
-25.49
-34.43
-44.69
-55.68
-66.06
-73.86
-76.99
-73.87
-63.96
-48.08
-28.17
-6.81
13.43
30.56
43.37
51.44
54.94
54.38
50.47
44.10
36.29
28.23
21.15
16.18
14.06
15.00
18.54
23.67
29.14
33.76
36.68
37.50
36.21
33.03
28.27
22.24
15.30
7.83
0.21
-7.31
-14.80
-22.64
-31.42
-41.42
-52.27
-62.69
-70.61
-73.78
-70.55
-60.52
-44.66
-25.12
-4.49
14.86
31.24
43.73
52.02
56.15
56.43
53.40
47.92
41.14
34.33
28.69
25.09
23.87
24.87
27.48
30.93
34.43
37.28
38.94
39.05
37.40
33.96
28.90
22.54
15.29
7.56
-0.34
-8.23
-16.09
-24.10
-32.49
-41.49
-51.08
-60.79
-69.54
-75.73
-77.61
-73.81
-63.97
-48.92
-30.55
-11.28
6.63
21.54
32.67
39.90
43.47
43.79
41.24
36.41
30.13
23.53
17.87
14.18
13.01
14.30
17.46
21.69
26.23
30.52
34.12
36.66
37.70
36.86
33.98
29.25
23.26
16.74
10.27
4.06
-2.09
-8.74
-16.52
-25.85
-36.69
-48.37
-59.50
-68.18
-72.41
-70.61
-62.13
-47.58
-28.66
-7.75
12.73
30.81
45.23
55.48
61.58
63.95
63.19
60.17
55.85
51.29
47.48
45.16
44.71
46.02
48.64
51.91
55.20
58.02
60.04
61.04
60.75
58.91
55.25
49.72
42.59
34.45
26.07
18.11
10.89
4.27
-2.32
-9.65
-18.33
-28.57
-39.87
-51.05
-60.38
-65.98
-66.32
-60.65
-49.27
-33.47
-15.29
2.99
19.31
32.13
40.60
44.50
44.15
40.27
33.86
26.12
18.26
11.45
6.55
4.03
3.87
5.68
8.76
12.30
15.52
17.74
18.52
17.56
14.85
10.56
5.07
-1.12
-7.52
-13.72
-19.58
-25.17
-30.83
-37.03
-44.14
-52.27
-60.89
-68.84
-74.41
-75.80
-71.63
-61.55
-46.38
-28.00
-8.83
8.79
23.13
33.29
39.09
40.84
39.08
34.49
27.86
20.19
12.69
6.62
3.05
2.51
4.85
9.20
14.23
18.58
21.16
21.49
19.64
16.08
11.44
6.21
0.74
-4.86
-10.56
-16.49
-22.85
-29.89
-37.78
-46.28
-54.55
-61.07
-63.99
-61.68
-53.37
-39.62
-22.14
-3.40
14.12
28.55
38.85
44.79
46.64
44.93
40.29
33.48
25.52
17.63
11.11
7.00
5.84
7.44
10.96
15.18
18.86
21.06
21.31
19.66
16.47
12.19
7.23
1.84
-3.86
-9.94
-16.56
-23.94
-32.27
-41.53
-51.25
-60.41
-67.44
-70.52
-68.14
-59.59
-45.38
-27.20
-7.48
11.25
26.98
38.59
45.84
49.07
48.87
45.88
40.75
34.26
27.38
21.17
16.60
14.22
14.06
15.61
18.00
20.32
21.83
22.15
21.18
19.04
15.88
11.83
6.93
1.22
-5.25
-12.42
-20.22
-28.66
-37.80
-47.60
-57.61
-66.80
-73.61
-76.25
-73.34
-64.44
-50.38
-33.04
-14.87
1.85
15.49
25.28
31.21
33.68
33.20
30.33
25.65
19.92
14.04
8.99
5.58
4.28
5.09
7.51
10.75
13.91
16.14
16.86
15.81
13.10
9.03
4.03
-1.53
-7.44
-13.61
-20.12
-27.08
-34.66
-43.01
-52.12
-61.64
-70.64
-77.68
-80.99
-79.09
-71.26
-57.98
-40.78
-21.91
-3.63
12.22
24.56
33.01
37.72
39.18
37.99
34.86
30.57
25.94
21.82
18.85
17.48
17.77
19.44
22.03
25.00
27.85
30.19
31.69
32.07
31.15
28.94
25.62
21.58
17.21
12.77
8.30
3.58
-1.79
-8.22
-16.00
-25.08
-34.90
-44.28
-51.51
-54.71
-52.40
-44.05
-30.36
-13.15
5.21
22.48
37.02
48.01
55.28
59.04
59.68
57.68
53.66
48.42
42.89
38.01
34.47
32.57
32.22
33.03
34.42
35.85
36.88
37.11
36.27
34.14
30.62
25.80
19.94
13.47
6.79
0.22
-6.16
-12.40
-18.74
-25.45
-32.83
-40.99
-49.69
-58.18
-65.13
-68.85
-67.85
-61.34
-49.67
-34.33
-17.55
-1.62
11.66
21.35
27.28
29.84
29.57
27.01
22.67
17.14
11.19
5.79
1.88
0.13
0.76
3.43
7.37
11.62
15.31
17.79
18.77
18.27
16.46
13.62
10.07
6.02
1.66
-2.94
-7.77
-12.94
-18.66
-25.15
-32.52
-40.51
-48.21
-54.15
-56.58
-54.04
-45.95
-32.98
-16.90
-0.09
15.20
27.39
35.75
40.31
41.46
39.73
35.62
29.69
22.68
15.60
9.55
5.53
4.11
5.24
8.20
11.86
14.98
16.65
16.48
14.66
11.68
8.09
4.19
0.04
-4.53
-9.74
-15.82
-22.92
-31.05
-39.95
-48.94
-56.80
-61.98
-62.93
-58.70
-49.37
-36.08
-20.79
-5.64
7.63
17.94
24.90
28.53
29.06
26.75
21.96
15.32
7.76
0.52
-5.14
-8.27
-8.56
-6.42
-2.86
0.80
3.41
4.27
3.28
0.76
-2.72
-6.69
-10.90
-15.38
-20.32
-25.98
-32.57
-40.21
-48.76
-57.64
-65.78
-71.62
-73.46
-70.00
-60.85
-46.80
-29.67
-11.78
4.70
18.27
28.25
34.54
37.35
36.98
33.74
28.13
20.95
13.30
6.44
1.50
-0.81
-0.45
1.92
5.20
8.14
9.77
9.67
7.99
5.24
1.98
-1.49
-5.21
-9.51
-14.81
-21.50
-29.74
-39.47
-50.15
-60.78
-69.79
-75.31
-75.65
-69.84
-58.07
-41.71
-23.03
-4.47
11.97
25.07
34.40
40.06
42.32
41.48
37.90
32.17
25.25
18.36
12.76
9.35
8.48
9.76
12.33
15.11
17.13
17.89
17.30
15.60
13.13
10.09
6.42
1.85
-3.95
-11.29
-20.32
-30.95
-42.68
-54.46
-64.64
-71.18
-72.13
-66.38
-54.07
-36.79
-17.04
2.52
19.81
33.64
43.69
50.06
52.91
52.36
48.60
42.19
34.22
26.14
19.46
15.24
13.79
14.62
16.71
18.92
20.37
20.68
19.85
18.12
15.69
12.57
8.60
3.52
-2.90
-10.82
-20.26
-31.03
-42.50
-53.53
-62.46
-67.39
-66.67
-59.52
-46.38
-28.84
-9.31
9.73
26.27
39.10
47.78
52.30
52.88
49.84
43.73
35.48
26.42
18.11
11.96
8.79
8.65
10.79
14.00
17.02
18.98
19.53
18.78
17.07
14.70
11.68
7.76
2.50
-4.46
-13.28
-23.73
-35.16
-46.40
-55.87
-61.73
-62.33
-56.68
-44.89
-28.22
-8.84
10.78
28.46
42.74
52.93
58.86
60.67
58.63
53.23
45.25
35.93
26.76
19.20
14.30
12.39
13.14
15.60
18.63
21.18
22.53
22.43
20.97
18.45
15.13
11.15
6.44
0.85
-5.78
-13.49
-22.18
-31.52
-40.88
-49.24
-55.18
-57.19
-53.97
-44.95
-30.50
-12.04
8.38
28.45
46.19
60.07
69.24
73.37
72.68
67.85
60.06
50.89
42.11
35.41
32.10
32.73
36.99
43.65
50.87
56.66
59.59
59.14
55.87
51.03
45.91
41.27
37.11
32.92
28.12
22.52
16.32
9.87
3.22
-4.02
-12.38
-21.99
-32.10
-40.97
-46.35
-46.26
-39.80
-27.54
-11.36
6.15
22.42
35.46
44.13
48.09
47.54
43.06
35.44
25.71
15.02
4.61
-4.37
-11.08
-15.10
-16.50
-15.75
-13.48
-10.34
-6.90
-3.57
-0.76
1.10
1.55
0.21
-2.98
-7.74
-13.40
-19.18
-24.43
-28.90
-32.70
-36.30
-40.27
-45.08
-50.97
-57.71
-64.49
-69.99
-72.55
-70.62
-63.29
-50.70
-34.15
-15.75
2.14
17.54
29.20
36.63
39.91
39.40
35.63
29.32
21.46
13.34
6.32
1.55
-0.38
0.42
3.23
7.02
10.84
14.02
16.30
17.66
18.15
17.69
16.06
13.00
8.37
2.31
-4.76
-12.17
-19.27
-25.58
-30.95
-35.62
-40.09
-44.99
-50.80
-57.65
-65.07
-71.94
-76.63
-77.34
-72.66
-62.04
-46.05
-26.31
-5.08
15.31
32.89
46.40
55.19
59.16
58.57
53.97
46.28
36.80
27.11
18.80
13.12
10.66
11.22
13.95
17.67
21.30
24.19
26.10
27.07
27.22
26.50
24.68
21.51
16.91
11.04
4.32
-2.72
-9.55
-15.80
-21.27
-25.93
-30.02
-33.91
-38.14
-43.11
-48.96
-55.27
-61.04
-64.85
-65.16
-60.84
-51.53
-37.83
-21.17
-3.53
13.10
27.06
37.32
43.43
45.44
43.70
38.82
31.69
23.46
15.51
9.15
5.32
4.34
5.81
8.90
12.58
16.03
18.76
20.61
21.60
21.66
20.60
18.13
14.08
8.54
1.91
-5.13
-11.90
-17.88
-22.88
-27.05
-30.77
-34.53
-38.75
-43.71
-49.31
-55.07
-60.00
-62.74
-61.85
-56.21
-45.49
-30.31
-12.17
7.01
25.30
41.17
53.58
61.87
65.65
64.70
59.19
49.80
37.90
25.37
14.23
6.01
1.43
0.26
1.64
4.42
7.64
10.66
13.08
14.62
14.99
13.92
11.21
6.83
0.98
-5.99
-13.59
-21.30
-28.61
-35.12
-40.63
-45.26
-49.39
-53.55
-58.28
-63.92
-70.48
-77.53
-84.17
-89.06
-90.65
-87.54
-78.96
-65.13
-47.34
-27.65
-8.40
8.43
21.55
30.49
35.38
36.63
34.83
30.62
24.81
18.47
12.80
8.94
7.68
9.23
13.10
18.36
23.83
28.48
31.65
33.10
33.04
31.77
29.58
26.56
22.59
17.51
11.34
4.38
-2.83
-9.65
-15.61
-20.55
-24.67
-28.40
-32.23
-36.61
-41.87
-48.16
-55.31
-62.71
-69.20
-73.24
-73.26
-68.19
-57.91
-43.33
-26.23
-8.74
7.18
20.08
29.20
34.38
35.93
34.40
30.53
25.23
19.54
14.56
11.27
10.38
12.08
15.98
21.22
26.71
31.48
34.93
36.86
37.47
37.01
35.67
33.42
30.10
25.57
19.86
13.30
6.45
-0.03
-5.64
-10.17
-13.81
-17.04
-20.53
-24.91
-30.63
-37.79
-46.05
-54.54
-61.95
-66.69
-67.24
-62.65
-52.78
-38.49
-21.41
-3.57
12.98
26.63
36.29
41.47
42.25
39.20
33.34
25.93
18.41
12.19
8.37
7.61
9.91
14.64
20.70
26.88
32.15
35.94
38.09
38.71
37.92
35.70
31.95
26.71
20.22
13.02
5.75
-1.06
-7.15
-12.57
-17.55
-22.43
-27.55
-33.19
-39.54
-46.48
-53.45
-59.36
-62.67
-61.83
-55.81
-44.56
-29.10
-11.34
6.57
22.64
35.51
44.41
49.10
49.68
46.54
40.48
32.70
24.76
18.28
14.54
14.15
16.85
21.68
27.27
32.34
35.98
37.87
38.14
37.11
35.01
31.86
27.48
21.76
14.83
7.20
-0.38
-7.18
-12.77
-17.22
-21.04
-25.02
-29.88
-36.05
-43.53
-51.85
-60.01
-66.70
-70.42
-69.82
-64.03
-53.00
-37.59
-19.49
-0.78
16.48
30.62
40.63
46.11
47.22
44.58
39.20
32.41
25.66
20.33
17.41
17.30
19.78
24.12
29.35
34.53
39.02
42.44
44.69
45.70
45.41
43.63
40.22
35.16
28.63
21.12
13.23
5.62
-1.26
-7.22
-12.45
-17.40
-22.73
-29.05
-36.63
-45.17
-53.57
-60.16
-63.04
-60.70
-52.56
-39.21
-22.26
-3.84
13.99
29.63
42.15
51.14
56.46
58.16
56.49
51.95
45.45
38.16
31.33
26.07
23.07
22.51
24.07
27.10
30.80
34.39
37.24
38.85
38.90
37.19
33.65
28.38
21.72
14.20
6.51
-0.69
-6.98
-12.24
-16.73
-20.99
-25.73
-31.55
-38.79
-47.24
-56.05
-63.76
-68.57
-68.85
-63.66
-53.14
-38.49
-21.65
-4.70
10.61
23.12
32.26
37.88
40.09
39.24
35.97
31.17
25.93
21.28
18.01
16.49
16.71
18.36
20.97
24.01
26.85
28.95
29.82
29.10
26.68
22.68
17.38
11.18
4.54
-2.03
-7.99
-12.92
-16.59
-19.20
-21.45
-24.29
-28.57
-34.51
-41.40
-47.59
-51.01
-49.80
-43.02
-30.99
-15.14
2.43
19.52
34.35
45.74
53.18
56.62
56.39
53.08
47.59
40.97
34.41
28.94
25.34
23.88
24.42
26.36
28.97
31.49
33.33
34.08
33.49
31.43
27.83
22.75
16.46
9.38
2.13
-4.68
-10.63
-15.57
-19.78
-23.80
-28.30
-33.84
-40.53
-47.90
-54.83
-59.75
-61.04
-57.55
-49.01
-36.09
-20.36
-3.77
11.72
24.63
34.01
39.46
41.00
39.02
34.21
27.53
20.24
13.66
8.95
6.77
7.17
9.55
12.94
16.30
18.88
20.30
20.49
19.53
17.47
14.23
9.80
4.27
-1.95
-8.28
-14.10
-19.03
-23.06
-26.57
-30.16
-34.47
-39.90
-46.52
-53.89
-61.09
-66.75
-69.32
-67.48
-60.52
-48.70
-33.24
-16.06
0.70
15.28
26.50
33.93
37.63
37.99
35.56
31.12
25.63
20.20
15.98
13.81
14.03
16.38
20.10
24.20
27.77
30.17
31.08
30.46
28.39
25.02
20.53
15.22
9.50
3.85
-1.29
-5.68
-9.40
-12.82
-16.51
-21.07
-26.80
-33.59
-40.73
-46.99
-50.88
-51.04
-46.66
-37.78
-25.35
-11.00
3.38
16.09
25.88
32.14
34.72
33.90
30.21
24.45
17.63
10.91
5.41
2.00
1.10
2.55
5.73
9.72
13.62
16.69
18.45
18.66
17.27
14.39
10.25
5.25
-0.14
-5.49
-10.54
-15.29
-19.96
-24.97
-30.74
-37.51
-45.17
-53.14
-60.31
-65.20
-66.30
-62.54
-53.74
-40.75
-25.33
-9.63
4.40
15.42
22.87
26.75
27.47
25.53
21.57
16.35
10.78
5.89
2.54
1.31
2.26
4.98
8.70
12.55
15.76
17.84
18.57
17.98
16.16
13.23
9.24
4.35
-1.16
-6.89
-12.42
-17.55
-22.42
-27.54
-33.59
-41.04
-49.83
-59.15
-67.49
-73.01
-74.01
-69.49
-59.45
-44.98
-27.93
-10.42
5.62
18.88
28.73
35.09
38.21
38.51
36.48
32.81
28.38
24.20
21.26
20.24
21.36
24.27
28.26
32.49
36.21
38.92
40.34
40.34
38.86
35.88
31.49
25.90
19.54
12.93
6.63
1.04
-3.67
-7.66
-11.42
-15.61
-20.88
-27.55
-35.35
-43.30
-49.83
-53.21
-52.07
-45.89
-35.23
-21.58
-6.90
6.88
18.38
26.86
32.19
34.55
34.24
31.65
27.28
21.94
16.66
12.51
10.34
10.38
12.25
15.11
18.01
20.27
21.66
22.34
22.49
22.15
21.05
18.74
14.85
9.41
2.87
-3.98
-10.34
-15.68
-19.99
-23.71
-27.59
-32.35
-38.46
-45.85
-53.90
-61.43
-66.96
-68.98
-66.36
-58.70
-46.52
-31.21
-14.67
1.09
14.44
24.35
30.39
32.67
31.62
27.96
22.64
16.82
11.68
8.23
7.08
8.28
11.35
15.49
19.83
23.66
26.51
28.15
28.48
27.43
24.93
20.99
15.74
9.51
2.81
-3.75
-9.67
-14.76
-19.18
-23.42
-28.19
-34.12
-41.56
-50.29
-59.45
-67.55
-72.84
-73.69
-69.16
-59.25
-45.03
-28.31
-11.18
4.55
17.65
27.53
34.09
37.48
37.90
35.72
31.56
26.43
21.57
18.27
17.32
18.84
22.19
26.29
30.07
32.84
34.43
35.00
34.79
33.86
32.01
28.92
24.35
18.34
11.20
3.49
-4.13
-11.08
-16.99
-21.84
-25.90
-29.80
-34.30
-40.10
-47.51
-56.22
-65.18
-72.75
-77.04
-76.47
-70.28
-58.75
-43.20
-25.58
-8.00
7.80
20.67
30.07
35.95
38.57
38.37
35.95
32.07
27.65
23.63
20.92
20.15
21.55
24.84
29.30
33.95
37.83
40.23
40.86
39.81
37.44
34.17
30.23
25.69
20.48
14.54
7.98
1.12
-5.58
-11.68
-16.97
-21.55
-25.81
-30.29
-35.45
-41.61
-48.82
-56.93
-65.49
-73.66
-80.18
-83.47
-82.03
-74.90
-62.22
-45.23
-26.02
-6.96
10.00
23.61
33.38
39.34
41.83
41.32
38.49
34.21
29.56
25.64
23.35
23.19
25.15
28.84
33.57
38.56
43.07
46.45
48.23
48.20
46.34
42.91
38.28
32.88
27.07
21.10
15.10
9.11
3.17
-2.71
-8.44
-13.90
-18.95
-23.48
-27.53
-31.29
-35.17
-39.73
-45.54
-53.00
-62.06
-72.03
-81.47
-88.34
-90.52
-86.36
-75.33
-58.35
-37.58
-15.82
4.26
20.77
32.82
40.41
43.98
44.15
41.53
36.82
30.96
25.15
20.65
18.48
19.14
22.51
27.86
34.18
40.39
45.65
49.37
51.26
51.26
49.44
46.08
41.50
36.13
30.36
24.48
18.62
12.82
7.04
1.21
-4.68
-10.54
-16.20
-21.49
-26.27
-30.58
-34.79
-39.52
-45.55
-53.38
-62.91
-73.08
-81.97
-87.29
-86.98
-79.91
-66.28
-47.61
-26.23
-4.76
14.58
30.25
41.47
48.11
50.45
49.06
44.77
38.72
32.19
26.52
22.86
21.88
23.72
27.99
33.94
40.58
46.94
52.14
55.55
56.84
55.99
53.30
49.24
44.23
38.59
32.51
26.04
19.23
12.24
5.26
-1.45
-7.68
-13.33
-18.50
-23.40
-28.34
-33.71
-39.92
-47.28
-55.90
-65.46
-74.91
-82.57
-86.38
-84.46
-75.80
-60.72
-40.93
-19.01
2.30
20.84
35.36
45.48
51.31
53.21
51.57
46.95
40.29
32.90
26.36
22.10
21.04
23.29
28.16
34.47
40.86
46.24
49.96
51.82
51.99
50.78
48.47
45.17
40.87
35.52
29.16
22.05
14.64
7.46
0.91
-4.85
-9.97
-14.77
-19.64
-24.97
-31.07
-38.20
-46.46
-55.56
-64.67
-72.31
-76.63
-75.89
-69.05
-56.18
-38.54
-18.29
2.14
20.57
35.50
46.12
52.27
54.06
51.89
46.41
38.63
29.99
22.19
16.79
14.80
16.34
20.67
26.43
32.22
36.98
40.21
41.88
42.19
41.25
39.01
35.29
30.01
23.34
15.75
7.92
0.49
-6.12
-11.81
-16.77
-21.38
-26.08
-31.28
-37.32
-44.33
-52.10
-59.92
-66.51
-70.28
-69.67
-63.72
-52.34
-36.49
-17.86
1.51
19.72
35.23
47.00
54.36
57.05
55.21
49.54
41.27
32.05
23.51
16.94
12.92
11.38
11.74
13.23
15.15
16.98
18.37
19.06
18.80
17.42
14.82
11.04
6.25
0.77
-5.03
-10.81
-16.39
-21.81
-27.38
-33.55
-40.78
-49.17
-58.26
-67.00
-73.81
-76.99
-75.21
-67.88
-55.41
-39.12
-20.95
-3.06
12.65
24.72
32.32
35.25
33.82
28.73
21.00
11.88
2.78
-4.90
-9.97
-11.74
-10.18
-5.92
-0.05
6.20
11.80
16.02
18.50
19.13
17.94
15.08
10.80
5.43
-0.71
-7.37
-14.48
-22.16
-30.64
-40.19
-50.85
-62.25
-73.40
-82.70
-88.16
-87.98
-81.13
-67.84
-49.64
-28.97
-8.47
9.66
24.09
34.25
40.18
42.15
40.58
36.05
29.40
21.76
14.45
8.74
5.49
5.10
7.28
11.36
16.34
21.19
25.03
27.20
27.38
25.47
21.60
16.09
9.34
1.84
-5.97
-13.74
-21.34
-28.95
-37.01
-46.08
-56.53
-68.13
-79.77
-89.55
-95.15
-94.55
-86.71
-72.01
-52.15
-29.68
-7.28
12.77
28.97
40.61
47.60
50.35
49.52
46.06
41.02
35.55
30.65
27.13
25.46
25.74
27.77
31.05
34.96
38.83
42.03
44.00
44.31
42.63
38.84
33.05
25.67
17.27
8.49
-0.16
-8.49
-16.58
-24.85
-33.72
-43.43
-53.71
-63.58
-71.45
-75.39
-73.76
-65.75
-51.76
-33.36
-12.85
7.37
25.41
40.09
50.92
57.88
61.15
61.08
58.28
53.68
48.48
44.00
41.30
40.89
42.61
45.73
49.27
52.35
54.40
55.23
54.87
53.33
50.51
46.22
40.37
33.11
24.88
16.36
8.15
0.65
-6.22
-12.89
-20.04
-28.30
-37.93
-48.62
-59.40
-68.73
-74.79
-75.90
-71.06
-60.29
-44.69
-26.19
-7.12
10.42
24.92
35.58
42.22
45.03
44.41
40.96
35.56
29.36
23.69
19.67
18.01
18.79
21.46
25.21
29.14
32.53
34.91
35.97
35.50
33.38
29.56
24.18
17.55
10.15
2.50
-4.90
-11.74
-17.96
-23.86
-29.99
-37.01
-45.36
-54.93
-64.80
-73.35
-78.54
-78.52
-72.26
-59.96
-43.02
-23.67
-4.39
12.77
26.46
36.13
41.82
43.86
42.77
39.17
33.97
28.31
23.50
20.64
20.35
22.54
26.45
30.98
35.00
37.80
39.12
39.08
37.92
35.81
32.67
28.26
22.40
15.19
7.10
-1.13
-8.74
-15.29
-20.81
-25.82
-31.09
-37.35
-45.07
-54.17
-64.02
-73.39
-80.65
-84.06
-82.24
-74.55
-61.39
-44.15
-24.89
-5.74
11.55
25.84
36.58
43.62
47.03
47.06
44.26
39.55
34.20
29.58
26.86
26.67
28.93
32.93
37.56
41.66
44.39
45.39
44.78
42.97
40.38
37.22
33.45
28.83
23.18
16.53
9.20
1.77
-5.17
-11.19
-16.21
-20.50
-24.54
-28.91
-34.10
-40.43
-47.99
-56.47
-65.14
-72.76
-77.77
-78.54
-73.96
-63.81
-49.04
-31.50
-13.42
3.23
17.16
27.89
35.47
40.20
42.39
42.40
40.68
37.94
35.11
33.11
32.65
34.01
36.95
40.87
44.99
48.53
50.92
51.83
51.21
49.20
46.03
41.96
37.21
31.94
26.29
20.39
14.41
8.55
2.98
-2.18
-6.89
-11.21
-15.29
-19.31
-23.54
-28.32
-34.03
-41.00
-49.22
-58.14
-66.51
-72.58
-74.50
-71.00
-61.87
-48.13
-31.70
-14.86
0.40
12.81
21.81
27.39
29.76
29.28
26.42
21.88
16.64
11.85
8.58
7.54
8.82
11.94
16.00
20.04
23.27
25.34
26.25
26.27
25.64
24.39
22.28
18.97
14.30
8.37
1.70
-4.98
-11.04
-16.12
-20.26
-23.87
-27.47
-31.58
-36.57
-42.62
-49.58
-56.86
-63.41
-67.79
-68.52
-64.57
-55.70
-42.67
-27.04
-10.73
4.41
17.02
26.35
32.16
34.59
34.03
31.08
26.59
21.62
17.36
14.86
14.77
17.10
21.24
26.12
30.57
33.73
35.22
35.19
34.05
32.25
29.98
27.12
23.42
18.63
12.78
6.11
-0.90
-7.76
-14.07
-19.61
-24.38
-28.57
-32.58
-36.97
-42.41
-49.37
-57.91
-67.36
-76.32
-82.89
-85.18
-81.93
-72.94
-59.18
-42.55
-25.34
-9.57
3.36
12.82
18.80
21.65
21.89
20.09
16.94
13.19
9.72
7.35
6.70
8.04
11.20
15.62
20.53
25.10
28.67
30.91
31.72
31.25
29.67
27.13
23.69
19.39
14.31
8.63
2.60
-3.48
-9.33
-14.72
-19.54
-23.79
-27.60
-31.25
-35.17
-39.84
-45.65
-52.70
-60.56
-68.26
-74.29
-77.01
-75.06
-67.86
-55.82
-40.26
-23.07
-6.18
8.82
20.94
29.77
35.34
37.95
38.05
36.26
33.32
30.04
27.28
25.71
25.78
27.58
30.86
35.08
39.56
43.58
46.57
48.21
48.43
47.40
45.39
42.58
39.07
34.81
29.79
24.15
18.18
12.27
6.70
1.55
-3.32
-8.18
-13.29
-18.79
-24.72
-31.13
-38.07
-45.54
-53.27
-60.51
-66.05
-68.44
-66.42
-59.43
-47.86
-33.00
-16.63
-0.61
13.59
25.01
33.17
38.01
39.67
38.53
35.20
30.50
25.44
21.05
18.18
17.38
18.71
21.79
25.89
30.17
33.86
36.41
37.54
37.21
35.55
32.81
29.27
25.23
20.98
16.65
12.27
7.80
3.11
-1.81
-6.88
-11.91
-16.69
-21.04
-24.95
-28.63
-32.45
-36.97
-42.67
-49.77
-57.91
-66.06
-72.61
-75.73
-73.97
-66.71
-54.51
-38.92
-22.00
-5.82
8.09
18.86
26.19
30.05
30.62
28.18
23.23
16.66
9.64
3.45
-0.81
-2.57
-1.88
0.67
4.21
7.86
10.92
12.95
13.72
13.26
11.77
9.78
7.96
7.06
7.60
9.73
13.14
17.19
21.19
24.55
26.97
28.33
28.66
28.06
26.63
24.52
21.87
18.86
15.56
12.00
8.18
4.10
-0.21
-4.65
-9.17
-13.76
-18.55
-23.86
-30.09
-37.55
-46.16
-55.17
-63.20
-68.45
-69.21
-64.52
-54.50
-40.36
-24.02
-7.56
7.35
19.67
28.97
35.17
38.33
38.60
36.22
31.59
25.35
18.36
11.53
5.75
1.69
-0.22
0.10
2.41
6.22
10.81
15.41
19.31
21.92
22.92
22.15
19.61
15.37
9.53
2.30
-5.92
-14.44
-22.45
-29.15
-34.08
-37.33
-39.48
-41.42
-43.98
-47.64
-52.44
-57.97
-63.45
-67.85
-69.95
-68.51
-62.55
-51.81
-36.93
-19.40
-1.17
15.87
30.52
42.40
51.79
59.21
64.86
68.53
69.83
68.63
65.53
61.83
59.04
58.17
59.17
60.96
62.01
61.13
58.12
53.64
48.74
44.08
39.57
34.51
28.14
20.16
11.01
1.58
-7.21
-14.84
-21.39
-27.25
-32.93
-38.76
-44.78
-50.99
-57.42
-64.17
-71.24
-78.27
-84.35
-88.11
-88.12
-83.33
-73.53
-59.51
-42.86
-25.53
-9.34
4.37
14.82
21.74
25.18
25.37
22.76
18.06
12.29
6.66
2.33
0.16
0.50
3.12
7.36
12.42
17.56
22.23
26.09
28.87
30.31
30.17
28.25
24.54
19.26
12.86
5.90
-1.12
-7.91
-14.57
-21.45
-29.09
-37.93
-47.99
-58.70
-68.85
-76.89
-81.17
-80.46
-74.26
-62.90
-47.53
-29.85
-11.81
4.82
18.62
28.70
34.69
36.71
35.24
31.06
25.22
18.90
13.28
9.34
7.68
8.41
11.19
15.39
20.25
25.07
29.20
32.10
33.32
32.62
29.92
25.44
19.60
12.89
5.79
-1.34
-8.37
-15.37
-22.61
-30.49
-39.30
-48.99
-58.91
-67.69
-73.50
-74.50
-69.45
-58.20
-41.81
-22.24
-1.83
17.28
33.49
45.83
53.89
57.69
57.60
54.27
48.69
42.03
35.45
29.94
26.13
24.25
24.19
25.59
27.99
30.80
33.47
35.42
36.16
35.36
32.87
28.79
23.45
17.32
10.89
4.57
-1.46
-7.26
-13.16
-19.67
-27.30
-36.30
-46.36
-56.49
-64.99
-69.88
-69.39
-62.59
-49.79
-32.51
-13.07
6.04
22.80
36.02
45.28
50.74
52.75
51.70
48.08
42.55
36.06
29.73
24.64
21.60
20.87
22.26
25.20
28.98
32.87
36.26
38.59
39.40
38.39
35.42
30.64
24.41
17.30
9.89
2.69
-4.08
-10.57
-17.30
-24.95
-33.99
-44.31
-54.97
-64.24
-70.04
-70.59
-65.03
-53.71
-38.13
-20.46
-2.91
12.71
25.19
33.96
38.83
39.93
37.63
32.54
25.61
18.06
11.17
6.14
3.79
4.36
7.50
12.32
17.69
22.46
25.75
27.06
26.27
23.59
19.40
14.11
8.10
1.66
-5.04
-12.01
-19.44
-27.63
-36.80
-46.80
-56.88
-65.66
-71.36
-72.33
-67.58
-57.25
-42.57
-25.58
-8.49
6.82
19.16
27.94
33.01
34.46
32.58
27.88
21.26
13.88
7.05
1.93
-0.73
-0.70
1.68
5.62
10.10
14.07
16.69
17.48
16.36
13.53
9.38
4.29
-1.41
-7.54
-13.99
-20.78
-28.07
-36.08
-44.89
-54.15
-62.92
-69.70
-72.84
-70.96
-63.52
-50.93
-34.54
-16.14
2.32
19.15
33.06
43.22
49.27
51.32
49.94
46.07
40.91
35.67
31.38
28.72
28.00
29.11
31.65
35.05
38.61
41.58
43.31
43.30
41.35
37.61
32.50
26.60
20.41
14.18
7.90
1.35
-5.80
-13.83
-22.94
-33.06
-43.72
-53.96
-62.24
-66.84
-66.29
-59.94
-48.26
-32.76
-15.59
1.09
15.58
26.92
34.82
39.44
41.14
40.46
38.02
34.58
31.00
28.06
26.35
26.08
27.11
29.06
31.41
33.65
35.40
36.33
36.18
34.72
31.85
27.57
22.07
15.71
8.96
2.23
-4.15
-10.14
-15.95
-22.01
-28.86
-36.88
-46.04
-55.69
-64.55
-70.92
-73.14
-70.10
-61.61
-48.48
-32.34
-15.11
1.40
15.87
27.54
36.11
41.56
44.05
43.87
41.56
37.95
34.13
31.24
30.18
31.31
34.35
38.52
42.77
46.22
48.32
48.95
48.23
46.38
43.49
39.53
34.44
28.25
21.17
13.64
6.18
-0.75
-6.87
-12.24
-17.19
-22.26
-28.02
-34.87
-42.94
-51.88
-60.86
-68.63
-73.62
-74.40
-70.02
-60.38
-46.39
-29.71
-12.34
3.92
17.77
28.56
36.15
40.68
42.50
42.10
40.15
37.50
35.05
33.57
33.55
35.07
37.86
41.38
44.99
48.02
49.96
50.46
49.43
47.01
43.45
39.14
34.40
29.50
24.59
19.75
14.99
10.23
5.40
0.46
-4.57
-9.59
-14.44
-19.03
-23.42
-27.86
-32.78
-38.62
-45.68
-53.81
-62.32
-69.92
-74.94
-75.75
-71.37
-61.78
-48.04
-31.99
-15.67
-0.73
11.83
21.64
28.69
33.07
34.87
34.33
32.06
29.02
26.40
25.20
25.98
28.61
32.47
36.69
40.51
43.47
45.44
46.49
46.75
46.25
44.88
42.46
38.86
34.12
28.59
22.81
17.39
12.76
8.96
5.67
2.40
-1.28
-5.49
-10.00
-14.38
-18.26
-21.54
-24.44
-27.45
-31.16
-36.05
-42.33
-49.92
-58.25
-66.31
-72.70
-75.90
-74.63
-68.31
-57.31
-42.86
-26.78
-10.96
3.09
14.48
22.91
28.45
31.36
31.90
30.48
27.68
24.35
21.50
20.03
20.44
22.69
26.18
30.04
33.46
35.94
37.39
37.98
37.91
37.25
35.86
33.57
30.32
26.27
21.77
17.26
13.06
9.31
5.98
2.85
-0.26
-3.53
-6.97
-10.49
-13.87
-16.89
-19.39
-21.41
-23.26
-25.45
-28.59
-33.16
-39.25
-46.40
-53.53
-59.11
-61.53
-59.51
-52.61
-41.34
-27.11
-11.79
2.76
15.15
24.56
30.78
33.98
34.53
32.93
29.77
25.77
21.73
18.42
16.51
16.37
18.01
21.10
25.01
28.99
32.40
34.78
35.96
35.95
34.87
32.88
30.11
26.74
22.98
19.08
15.21
11.45
7.74
3.97
0.12
-3.74
-7.39
-10.60
-13.23
-15.35
-17.24
-19.36
-22.14
-25.86
-30.39
-35.18
-39.19
-41.20
-40.10
-35.30
-27.03
-16.25
-4.43
6.95
16.77
24.39
29.58
32.22
32.23
29.52
24.17
16.67
7.93
-0.86
-8.48
-14.06
-17.26
-18.27
-17.69
-16.27
-14.61
-12.93
-11.15
-9.09
-6.74
-4.52
-3.12
-3.29
-5.40
-9.26
-14.11
-19.01
-23.21
-26.39
-28.79
-30.99
-33.65
-37.28
-42.12
-48.00
-54.40
-60.41
-64.84
-66.49
-64.45
-58.35
-48.54
-36.05
-22.31
-8.87
2.94
12.16
18.26
21.13
20.98
18.34
14.00
8.92
4.10
0.37
-1.76
-2.19
-1.13
0.98
3.62
6.39
8.97
11.21
12.99
14.20
14.65
14.05
12.20
9.05
4.80
-0.13
-5.13
-9.75
-13.72
-17.10
-20.21
-23.48
-27.39
-32.24
-38.12
-44.75
-51.38
-56.81
-59.62
-58.53
-52.79
-42.57
-28.91
-13.51
1.78
15.33
26.10
33.60
37.82
39.03
37.66
34.30
29.65
24.56
19.88
16.37
14.53
14.50
16.03
18.61
21.61
24.44
26.68
28.04
28.36
27.54
25.52
22.31
18.03
13.00
7.63
2.40
-2.34
-6.45
-10.11
-13.77
-18.01
-23.37
-30.08
-37.82
-45.71
-52.37
-56.24
-56.02
-51.09
-41.71
-29.02
-14.73
-0.68
11.56
21.01
27.22
30.20
30.22
27.68
23.12
17.24
10.91
5.12
0.75
-1.61
-1.81
-0.19
2.54
5.52
7.99
9.43
9.55
8.33
5.83
2.18
-2.47
-7.85
-13.62
-19.36
-24.74
-29.66
-34.34
-39.26
-44.88
-51.42
-58.55
-65.36
-70.44
-72.32
-69.85
-62.64
-51.24
-37.03
-21.85
-7.54
4.49
13.45
19.09
21.58
21.26
18.57
14.04
8.41
2.56
-2.58
-6.20
-7.80
-7.34
-5.22
-2.13
1.07
3.65
5.07
5.08
3.65
0.96
-2.76
-7.23
-12.17
-17.39
-22.86
-28.72
-35.30
-42.85
-51.38
-60.32
-68.50
-74.34
-76.24
-73.10
-64.70
-51.76
-35.84
-18.87
-2.68
11.31
22.24
29.79
34.00
35.12
33.60
30.05
25.34
20.52
16.69
14.70
15.00
17.42
21.30
25.69
29.62
32.34
33.48
33.08
31.43
29.02
26.22
23.24
20.02
16.25
11.46
5.20
-2.82
-12.52
-23.35
-34.24
-43.73
-50.20
-52.27
-49.23
-41.28
-29.61
-16.05
-2.63
8.97
17.75
23.40
26.06
26.06
23.75
19.45
13.65
7.03
0.48
-5.04
-8.81
-10.51
-10.29
-8.73
-6.67
-4.99
-4.35
-5.14
-7.41
-10.93
-15.30
-20.12
-25.09
-30.13
-35.44
-41.45
-48.66
-57.36
-67.39
-77.85
-87.20
-93.43
-94.68
-89.73
-78.46
-61.94
-42.12
-21.36
-1.79
15.01
28.21
37.58
43.30
45.71
45.25
42.46
38.10
33.12
28.61
25.56
24.61
25.87
28.94
32.94
36.86
39.72
40.88
40.14
37.63
33.75
28.93
23.48
17.52
10.98
3.61
-4.81
-14.41
-25.00
-35.86
-45.66
-52.61
-54.91
-51.33
-41.72
-27.10
-9.43
9.04
26.37
41.24
53.00
61.47
66.71
68.85
68.23
65.38
61.09
56.32
51.96
48.67
46.83
46.45
47.25
48.74
50.31
51.31
51.17
49.46
45.97
40.74
33.98
26.12
17.65
8.99
0.39
-8.19
-17.09
-26.74
-37.49
-49.21
-61.09
-71.68
-79.11
-81.58
-77.95
-68.11
-53.09
-34.78
-15.45
2.82
18.50
30.74
39.28
44.22
45.87
44.75
41.64
37.58
33.78
31.36
31.05
33.07
37.06
42.30
47.89
53.04
57.18
59.99
61.39
61.33
59.82
56.79
52.22
46.19
38.97
30.99
22.90
15.32
8.71
3.18
-1.59
-6.25
-11.63
-18.46
-27.07
-37.16
-47.75
-57.32
-64.07
-66.35
-63.14
-54.28
-40.60
-23.70
-5.57
11.86
27.06
39.07
47.47
52.24
53.69
52.38
49.11
44.89
40.80
37.83
36.65
37.49
40.19
44.26
49.08
53.96
58.36
61.81
64.04
64.90
64.34
62.41
59.26
55.14
50.41
45.45
40.61
36.01
31.54
26.97
22.10
16.92
11.64
6.68
2.42
-1.02
-3.78
-6.36
-9.43
-13.67
-19.54
-27.12
-35.75
-44.09
-50.26
-52.29
-48.83
-39.59
-25.54
-8.59
8.96
25.04
38.23
47.77
53.42
55.23
53.37
48.29
40.76
31.91
23.12
15.67
10.47
7.87
7.61
9.06
11.42
14.05
16.46
18.39
19.65
20.04
19.34
17.36
14.04
9.53
4.15
-1.62
-7.26
-12.33
-16.54
-19.84
-22.45
-24.74
-27.17
-30.05
-33.45
-37.20
-40.93
-44.31
-47.25
-49.98
-52.99
-56.99
-62.51
-69.78
-78.43
-87.43
-95.23
-100.00
-100.12
-94.60
-83.41
-67.49
-48.53
-28.58
-9.56
7.05
20.24
29.54
34.85
36.39
34.67
30.51
24.96
19.27
14.62
11.94
11.74
13.98
18.11
23.25
28.43
32.85
36.01
37.79
38.27
37.56
35.62
32.29
27.44
21.21
14.12
6.97
0.54
-4.74
-8.94
-12.67
-16.64
-21.41
-27.06
-33.17
-39.03
-43.96
-47.57
-49.96
-51.63
-53.41
-56.20
-60.72
-67.31
-75.70
-84.98
-93.60
-99.55
-100.86
-96.06
-84.81
-68.17
-48.35
-27.95
-9.11
7.20
21.17
33.60
45.07
55.33
63.42
68.18
69.05
66.52
61.97
57.04
53.02
50.44
49.16
48.77
49.00
49.90
51.67
54.39
57.72
60.88
62.90
63.03
61.09
57.48
52.93
48.06
43.05
37.57
31.01
22.97
13.52
3.44
-6.06
-13.66
-18.48
-20.47
-20.44
-19.94
-20.73
-24.08
-30.39
-39.02
-48.56
-57.32
-63.77
-66.83
-65.90
-60.86
-52.07
-40.43
-27.38
-14.57
-3.44
5.22
11.48
15.94
19.25
21.68
23.02
22.81
20.85
17.50
13.73
10.78
9.59
10.44
12.87
15.97
18.86
21.09
22.82
24.66
27.29
30.96
35.39
39.77
43.10
44.59
43.88
41.01
36.30
30.06
22.55
13.97
4.65
-4.89
-13.92
-21.67
-27.59
-31.62
-34.26
-36.42
-39.17
-43.35
-49.29
-56.58
-64.14
-70.47
-74.01
-73.59
-68.71
-59.64
-47.40
-33.41
-19.19
-6.08
4.87
13.01
17.99
19.80
18.68
15.17
10.01
4.06
-1.80
-6.75
-10.13
-11.61
-11.13
-9.05
-5.95
-2.50
0.77
3.56
5.81
7.53
8.69
9.13
8.65
7.13
4.64
1.44
-2.12
-5.76
-9.31
-12.74
-16.08
-19.29
-22.32
-25.07
-27.55
-29.90
-32.45
-35.62
-39.73
-44.80
-50.37
-55.44
-58.67
-58.79
-54.93
-46.94
-35.46
-21.76
-7.39
6.17
17.75
26.63
32.47
35.26
35.22
32.78
28.53
23.23
17.76
13.03
9.84
8.71
9.84
12.97
17.49
22.59
27.40
31.26
33.80
34.98
34.98
34.04
32.31
29.79
26.36
21.97
16.75
10.97
5.07
-0.57
-5.73
-10.38
-14.67
-18.82
-23.04
-27.55
-32.55
-38.21
-44.49
-50.95
-56.72
-60.58
-61.28
-57.97
-50.51
-39.54
-26.29
-12.29
1.02
12.49
21.38
27.34
30.29
30.44
28.23
24.27
19.33
14.30
10.03
7.21
6.24
7.12
9.49
12.77
16.36
19.82
22.86
25.32
27.02
27.71
27.09
24.96
21.39
16.76
11.71
6.86
2.61
-1.03
-4.39
-7.99
-12.35
-17.79
-24.30
-31.45
-38.45
-44.17
-47.42
-47.15
-42.84
-34.65
-23.47
-10.68
2.15
13.65
22.81
29.13
32.48
33.02
31.11
27.32
22.34
16.97
12.00
8.10
5.76
5.11
6.04
8.21
11.11
14.22
17.10
19.35
20.72
21.03
20.26
18.42
15.62
12.04
7.91
3.48
-0.99
-5.35
-9.62
-14.07
-19.12
-25.18
-32.35
-40.14
-47.50
-52.96
-55.09
-52.97
-46.50
-36.40
-23.99
-10.83
1.70
12.54
21.02
26.77
29.63
29.71
27.34
23.19
18.16
13.23
9.26
6.84
6.13
6.98
9.01
11.79
14.91
18.04
20.91
23.24
24.74
25.09
24.06
21.57
17.79
13.13
8.16
3.40
-0.83
-4.56
-8.23
-12.45
-17.85
-24.72
-32.79
-41.15
-48.43
-53.11
-53.93
-50.22
-42.14
-30.55
-16.87
-2.68
10.54
21.66
30.02
35.34
37.70
37.41
34.96
31.01
26.35
21.89
18.44
16.61
16.61
18.17
20.74
23.57
26.02
27.69
28.42
28.27
27.38
25.82
23.57
20.55
16.71
12.10
6.93
1.53
-3.77
-8.77
-13.56
-18.45
-23.86
-30.14
-37.30
-44.89
-51.97
-57.28
-59.52
-57.80
-51.90
-42.39
-30.56
-18.01
-6.22
3.75
11.37
16.61
19.61
20.61
19.79
17.39
13.85
9.85
6.18
3.60
2.61
3.32
5.43
8.41
11.61
14.41
16.34
17.05
16.42
14.52
11.56
7.88
3.83
-0.38
-4.69
-9.16
-14.00
-19.36
-25.31
-31.74
-38.21
-43.99
-48.08
-49.43
-47.25
-41.25
-31.84
-20.08
-7.41
4.70
15.07
22.93
28.02
30.37
30.23
27.99
24.21
19.67
15.28
11.95
10.28
10.43
12.06
14.50
17.07
19.28
20.88
21.83
22.07
21.48
19.90
17.27
13.72
9.63
5.42
1.42
-2.28
-5.86
-9.69
-14.15
-19.48
-25.74
-32.60
-39.41
-45.16
-48.70
-48.98
-45.44
-38.17
-28.00
-16.25
-4.36
6.42
15.28
21.82
25.95
27.74
27.41
25.33
22.08
18.46
15.29
13.26
12.75
13.70
15.78
18.48
21.31
23.94
26.12
27.66
28.30
27.78
25.84
22.43
17.72
12.15
6.34
0.89
-3.82
-7.69
-10.98
-14.18
-17.87
-22.50
-28.21
-34.62
-40.91
-45.83
-48.11
-46.75
-41.42
-32.54
-21.26
-9.11
2.42
12.21
19.70
24.76
27.55
28.31
27.28
24.80
21.37
17.76
14.82
13.28
13.48
15.26
18.01
20.89
23.20
24.60
25.12
25.02
24.56
23.80
22.54
20.45
17.21
12.78
7.40
1.67
-3.76
-8.35
-11.92
-14.73
-17.35
-20.46
-24.60
-30.01
-36.47
-43.35
-49.69
-54.33
-56.15
-54.36
-48.74
-39.77
-28.53
-16.43
-4.86
5.19
13.15
18.85
22.36
23.88
23.71
22.33
20.42
18.72
17.96
18.50
20.34
23.11
26.22
29.15
31.53
33.25
34.34
34.91
34.99
34.48
33.22
31.03
27.82
23.66
18.84
13.73
8.79
4.36
0.63
-2.43
-5.04
-7.52
-10.27
-13.63
-17.79
-22.69
-27.91
-32.72
-36.13
-37.17
-35.09
-29.66
-21.23
-10.71
0.72
11.77
21.37
28.77
33.61
35.83
35.68
33.57
30.13
26.10
22.28
19.43
18.16
18.75
21.07
24.58
28.46
31.84
34.02
34.62
33.61
31.25
27.97
24.18
20.20
16.16
12.08
7.87
3.48
-1.11
-5.83
-10.58
-15.28
-19.87
-24.30
-28.56
-32.67
-36.77
-41.08
-45.77
-50.81
-55.82
-59.91
-61.96
-60.93
-56.18
-47.77
-36.44
-23.44
-10.23
1.88
11.88
19.22
23.77
25.72
25.50
23.65
20.82
17.67
14.87
13.04
12.63
13.86
16.64
20.59
25.23
30.00
34.53
38.58
42.02
44.70
46.35
46.54
44.78
40.77
34.64
27.03
18.99
11.64
5.92
2.38
1.20
2.30
5.30
9.48
13.71
16.59
16.82
13.55
6.84
-2.37
-12.52
-21.91
-29.17
-33.49
-34.63
-32.70
-28.03
-21.10
-12.61
-3.53
4.90
11.39
14.90
14.92
11.73
6.25
-0.21
-6.32
-11.05
-13.81
-14.43
-13.10
-10.25
-6.48
-2.46
1.17
3.93
5.54
5.94
5.29
3.83
1.81
-0.52
-3.06
-5.74
-8.60
-11.66
-14.90
-18.24
-21.51
-24.58
-27.36
-29.99
-32.77
-36.14
-40.45
-45.76
-51.61
-57.06
-60.86
-61.80
-59.12
-52.74
-43.36
-32.20
-20.70
-10.13
-1.40
5.06
9.15
11.01
10.87
9.04
5.92
2.08
-1.72
-4.68
-6.10
-5.62
-3.28
0.47
4.92
9.33
13.13
16.02
17.99
19.12
19.51
19.13
17.83
15.47
12.07
7.82
3.08
-1.70
-6.19
-10.21
-13.83
-17.24
-20.68
-24.37
-28.46
-33.01
-37.91
-42.82
-47.12
-49.93
-50.29
-47.43
-41.06
-31.56
-19.91
-7.49
4.25
14.15
21.48
25.95
27.62
26.81
23.97
19.77
14.99
10.53
7.15
5.43
5.51
7.16
9.83
12.85
15.66
17.86
19.31
19.99
19.94
19.14
17.49
14.94
11.52
7.40
2.92
-1.54
-5.67
-9.32
-12.57
-15.71
-19.17
-23.38
-28.57
-34.61
-40.89
-46.34
-49.72
-49.91
-46.29
-38.96
-28.74
-16.90
-4.89
6.00
14.83
21.11
24.71
25.75
24.59
21.73
17.78
13.45
9.52
6.71
5.53
6.17
8.43
11.81
15.65
19.29
22.23
24.12
24.73
23.95
21.78
18.44
14.35
10.03
5.97
2.35
-0.99
-4.54
-8.89
-14.53
-21.59
-29.68
-37.95
-45.12
-49.81
-50.79
-47.43
-39.85
-28.95
-16.18
-3.20
8.59
18.18
25.07
29.15
30.56
29.60
26.73
22.54
17.85
13.49
10.29
8.77
9.09
10.94
13.65
16.49
18.85
20.39
21.06
20.87
19.86
17.89
14.87
10.83
6.06
0.98
-4.02
-8.78
-13.54
-18.78
-25.03
-32.48
-40.69
-48.57
-54.58
-57.13
-55.10
-48.19
-37.06
-23.15
-8.33
5.61
17.27
25.87
31.25
33.68
33.66
31.84
28.80
25.11
21.31
17.90
15.41
14.30
14.80
16.82
19.96
23.50
26.67
28.82
29.51
28.64
26.28
22.71
18.22
13.12
7.64
1.93
-3.92
-9.96
-16.26
-22.99
-30.23
-37.83
-45.24
-51.42
-54.94
-54.39
-48.93
-38.68
-24.89
-9.61
4.93
17.03
25.84
31.36
34.12
34.79
33.87
31.73
28.75
25.45
22.50
20.59
20.17
21.30
23.69
26.76
29.94
32.74
34.81
35.88
35.73
34.17
31.13
26.71
21.29
15.36
9.42
3.83
-1.30
-6.14
-11.10
-16.66
-23.19
-30.64
-38.43
-45.28
-49.59
-49.86
-45.26
-36.00
-23.30
-8.98
5.04
17.30
26.97
33.75
37.67
38.93
37.84
34.89
30.83
26.61
23.15
21.11
20.69
21.68
23.50
25.53
27.24
28.34
28.74
28.37
27.18
25.03
21.80
17.49
12.30
6.57
0.72
-4.95
-10.32
-15.56
-20.99
-26.97
-33.75
-41.21
-48.79
-55.47
-59.95
-61.00
-57.81
-50.31
-39.24
-25.97
-12.16
0.68
11.46
19.65
25.11
28.00
28.63
27.39
24.81
21.58
18.43
16.04
14.88
15.11
16.55
18.85
21.53
24.07
25.97
26.75
26.12
24.00
20.59
16.30
11.61
6.86
2.21
-2.38
-7.03
-11.91
-17.20
-23.04
-29.49
-36.27
-42.71
-47.69
-49.88
-48.20
-42.21
-32.38
-19.98
-6.77
5.58
15.78
23.16
27.59
29.34
28.89
26.82
23.86
20.74
18.22
16.90
17.04
18.57
21.06
23.88
26.39
28.12
28.78
28.34
26.81
24.24
20.63
15.99
10.42
4.22
-2.17
-8.25
-13.65
-18.27
-22.37
-26.42
-30.90
-36.10
-41.86
-47.54
-52.12
-54.44
-53.51
-48.83
-40.52
-29.38
-16.68
-3.78
8.07
18.03
25.67
30.86
33.65
34.15
32.63
29.54
25.60
21.71
18.73
17.23
17.32
18.59
20.32
21.79
22.54
22.48
21.74
20.50
18.85
16.68
13.81
10.07
5.54
0.46
-4.76
-9.70
-14.00
-17.51
-20.29
-22.60
-24.89
-27.69
-31.37
-36.03
-41.27
-46.23
-49.75
-50.65
-48.10
-41.92
-32.63
-21.35
-9.43
1.83
11.51
19.12
24.56
27.92
29.40
29.18
27.54
24.93
22.04
19.71
18.67
19.28
21.38
24.33
27.31
29.57
30.67
30.52
29.28
27.18
24.44
21.24
17.68
13.82
9.72
5.42
1.00
-3.41
-7.59
-11.36
-14.61
-17.45
-20.15
-23.10
-26.64
-31.02
-36.24
-42.08
-48.02
-53.28
-56.86
-57.73
-55.16
-48.93
-39.48
-27.87
-15.45
-3.57
6.75
14.93
20.90
24.91
27.33
28.57
28.96
28.80
28.33
27.79
27.44
27.52
28.14
29.22
30.46
31.42
31.60
30.65
28.49
25.29
21.43
17.31
13.27
9.42
5.76
2.16
-1.43
-4.98
-8.32
-11.19
-13.33
-14.62
-15.15
-15.31
-15.69
-16.96
-19.65
-24.01
-29.92
-36.90
-44.10
-50.43
-54.63
-55.60
-52.62
-45.69
-35.53
-23.50
-11.17
0.08
9.35
16.28
20.89
23.42
24.20
23.66
22.39
21.08
20.47
21.05
22.96
25.94
29.44
32.85
35.66
37.57
38.45
38.29
37.15
35.20
32.69
29.92
27.22
24.72
22.37
19.89
16.97
13.42
9.32
4.98
0.77
-2.97
-6.11
-8.69
-10.90
-13.04
-15.46
-18.58
-22.72
-28.04
-34.25
-40.55
-45.70
-48.38
-47.58
-42.94
-34.92
-24.62
-13.46
-2.81
6.32
13.35
18.11
20.69
21.39
20.59
18.74
16.33
13.88
11.89
10.83
11.06
12.78
15.88
19.98
24.41
28.41
31.34
32.83
32.89
31.79
29.96
27.74
25.29
22.60
19.55
16.04
12.08
7.79
3.36
-0.99
-5.13
-8.97
-12.53
-15.84
-19.01
-22.23
-25.75
-29.78
-34.30
-38.89
-42.68
-44.60
-43.78
-39.92
-33.48
-25.48
-17.09
-9.29
-2.59
2.95
7.51
11.36
14.67
17.54
19.91
21.54
22.09
21.36
19.57
17.51
16.43
17.63
21.86
28.97
37.97
47.37
55.77
62.19
66.16
67.47
66.08
61.93
55.12
46.03
35.31
23.82
12.40
1.71
-7.84
-16.14
-23.33
-29.72
-35.77
-41.85
-48.23
-54.88
-61.45
-67.37
-71.94
-74.51
-74.55
-71.75
-66.05
-57.73
-47.46
-36.18
-25.05
-15.12
-7.21
-1.76
1.12
1.58
-0.05
-3.20
-7.16
-11.09
-14.15
-15.80
-15.83
-14.45
-12.11
-9.31
-6.44
-3.71
-1.29
0.68
2.01
2.48
1.97
0.42
-2.08
-5.28
-8.93
-12.70
-16.38
-19.84
-23.14
-26.45
-30.09
-34.35
-39.48
-45.46
-51.97
-58.26
-63.31
-65.97
-65.36
-61.07
-53.35
-43.05
-31.40
-19.73
-9.11
-0.31
6.29
10.61
12.76
12.96
11.57
9.02
5.89
2.92
0.78
0.08
1.06
3.62
7.33
11.57
15.71
19.22
21.71
22.90
22.64
20.94
17.97
14.09
9.73
5.29
0.99
-3.21
-7.58
-12.52
-18.41
-25.41
-33.34
-41.47
-48.70
-53.61
-54.97
-52.02
-44.79
-34.07
-21.23
-7.84
4.62
15.10
22.90
27.73
29.59
28.74
25.64
20.94
15.46
10.06
5.57
2.63
1.55
2.26
4.34
7.09
9.74
11.63
12.32
11.61
9.55
6.38
2.45
-1.85
-6.21
-10.44
-14.58
-18.91
-23.92
-30.10
-37.76
-46.66
-55.91
-63.96
-69.02
-69.52
-64.65
-54.65
-40.79
-24.96
-9.16
4.95
16.29
24.35
29.08
30.66
29.46
26.00
21.01
15.42
10.28
6.49
4.71
5.10
7.36
10.86
14.81
18.51
21.43
23.25
23.80
22.95
20.67
17.04
12.28
6.70
0.63
-5.77
-12.58
-20.10
-28.66
-38.20
-48.03
-56.77
-62.61
-63.86
-59.51
-49.65
-35.47
-18.97
-2.30
12.70
24.88
33.78
39.41
42.04
42.02
39.78
35.90
31.14
26.36
22.42
19.97
19.26
20.11
21.99
24.17
26.00
26.97
26.85
25.66
23.53
20.61
17.02
12.82
8.01
2.53
-3.76
-11.09
-19.66
-29.41
-39.77
-49.54
-57.05
-60.50
-58.63
-51.06
-38.54
-22.71
-5.62
10.77
24.99
36.20
44.02
48.44
49.64
48.04
44.27
39.23
33.93
29.38
26.35
25.21
25.86
27.85
30.48
33.01
34.82
35.51
34.95
33.20
30.38
26.64
22.07
16.72
10.63
3.81
-3.81
-12.32
-21.69
-31.58
-41.10
-48.87
-53.24
-52.80
-46.91
-35.94
-21.26
-4.83
11.35
25.66
37.05
45.05
49.56
50.76
49.04
45.01
39.56
33.75
28.66
25.17
23.72
24.27
26.30
28.99
31.49
33.11
33.44
32.39
30.11
26.82
22.77
18.12
13.01
7.52
1.65
-4.67
-11.61
-19.33
-27.81
-36.67
-44.96
-51.33
-54.24
-52.48
-45.60
-34.14
-19.54
-3.72
11.44
24.50
34.60
41.44
45.05
45.71
43.87
40.25
35.80
31.56
28.36
26.62
26.22
26.71
27.55
28.41
29.21
30.03
30.87
31.41
31.11
29.37
25.86
20.73
14.57
8.16
2.16
-3.19
-8.08
-13.04
-18.67
-25.35
-33.07
-41.27
-48.94
-54.75
-57.32
-55.61
-49.22
-38.59
-24.94
-9.99
4.49
17.08
26.90
33.65
37.43
38.48
37.23
34.20
30.13
25.99
22.76
21.22
21.64
23.74
26.79
30.01
32.73
34.69
35.85
36.30
36.01
34.80
32.40
28.67
23.74
18.03
12.10
6.46
1.33
-3.36
-7.94
-12.84
-18.45
-24.99
-32.36
-40.12
-47.34
-52.80
-55.17
-53.44
-47.28
-37.12
-24.16
-10.01
3.75
15.82
25.39
32.05
35.72
36.53
34.88
31.43
27.12
23.05
20.21
19.27
20.36
23.05
26.54
29.95
32.57
34.05
34.39
33.77
32.38
30.28
27.44
23.73
19.11
13.70
7.79
1.81
-3.80
-8.76
-12.99
-16.70
-20.28
-24.18
-28.80
-34.33
-40.62
-47.13
-52.90
-56.71
-57.37
-54.05
-46.67
-35.91
-23.13
-9.97
2.12
12.10
19.45
24.01
25.83
25.12
22.29
18.03
13.32
9.24
6.74
6.35
8.06
11.38
15.50
19.68
23.34
26.22
28.21
29.25
29.23
27.98
25.33
21.33
16.25
10.60
4.97
-0.21
-4.82
-9.04
-13.29
-18.04
-23.63
-30.13
-37.17
-43.99
-49.49
-52.42
-51.82
-47.29
-39.17
-28.46
-16.58
-4.86
5.61
14.17
20.43
24.16
25.24
23.79
20.27
15.56
10.80
7.10
5.16
5.15
6.72
9.18
11.86
14.26
16.13
17.42
18.07
17.95
16.87
14.58
11.00
6.27
0.74
-5.07
-10.67
-15.71
-20.12
-24.08
-27.95
-32.14
-37.02
-42.80
-49.37
-56.23
-62.53
-67.10
-68.76
-66.61
-60.36
-50.49
-38.10
-24.67
-11.65
-0.14
9.22
16.18
20.77
23.15
23.55
22.37
20.15
17.66
15.71
14.99
15.87
18.27
21.68
25.37
28.57
30.81
31.91
31.99
31.25
29.81
27.61
24.46
20.21
14.91
8.92
2.80
-2.91
-7.87
-12.05
-15.72
-19.21
-22.85
-26.86
-31.38
-36.43
-41.74
-46.50
-49.30
-48.39
-42.21
-30.18
-13.07
7.12
27.70
46.13
60.63
70.28
74.85
74.54
69.75
61.18
49.91
37.40
25.36
15.31
8.25
4.41
3.30
3.94
5.23
6.23
6.40
5.63
4.08
2.05
-0.26
-2.84
-5.77
-9.10
-12.78
-16.64
-20.44
-24.01
-27.28
-30.25
-32.95
-35.45
-37.84
-40.33
-43.24
-47.02
-52.00
-58.22
-65.24
-72.07
-77.35
-79.65
-77.91
-71.74
-61.57
-48.56
-34.27
-20.26
-7.77
2.44
10.12
15.38
18.52
19.93
20.06
19.38
18.40
17.66
17.64
18.67
20.82
23.86
27.29
30.44
32.74
33.81
33.63
32.43
30.54
28.17
25.33
21.86
17.57
12.45
6.76
0.94
-4.55
-9.44
-13.70
-17.55
-21.25
-25.08
-29.23
-33.80
-38.90
-44.48
-50.26
-55.52
-59.24
-60.27
-57.71
-51.29
-41.44
-29.27
-16.15
-3.44
7.77
16.75
23.04
26.49
27.27
25.92
23.38
20.84
19.55
20.49
24.16
30.43
38.58
47.51
56.00
63.01
67.96
70.73
71.54
70.75
68.57
64.96
59.63
52.26
42.82
31.62
19.47
7.32
-3.98
-14.14
-23.45
-32.65
-42.57
-53.58
-65.32
-76.74
-86.41
-92.99
-95.67
-94.26
-89.09
-80.76
-70.01
-57.55
-44.16
-30.70
-18.09
-7.19
1.37
7.30
10.70
12.04
12.00
11.32
10.58
10.19
10.41
11.40
13.32
16.21
19.83
23.53
26.21
26.63
23.83
17.57
8.40
-2.54
-14.02
-25.10
-35.32
-44.48
-52.40
-58.74
-63.08
-65.29
-65.85
-65.93
-67.09
-70.73
-77.44
-86.59
-96.30
-103.96
-106.98
-103.58
-93.25
-76.81
-55.99
-32.85
-9.27
13.38
34.19
52.56
68.03
80.37
89.66
96.44
101.71
106.64
112.13
118.50
125.31
131.54
136.05
138.03
137.30
134.37
130.12
125.36
120.43
115.10
108.77
100.81
90.86
78.99
65.45
50.54
34.50
17.66
0.76
-14.93
-27.69
-35.89
-38.60
-36.05
-29.58
-21.16
-12.78
-5.90
-1.28
0.93
0.84
-1.36
-5.52
-11.53
-19.13
-27.84
-36.86
-45.16
-51.66
-55.53
-56.47
-54.85
-51.60
-47.87
-44.70
-42.76
-42.18
-42.80
-44.22
-46.00
-47.78
-49.26
-50.34
-51.16
-52.12
-53.79
-56.68
-61.04
-66.57
-72.39
-77.10
-79.04
-76.76
-69.47
-57.32
-41.47
-23.78
-6.28
9.30
21.91
31.18
37.24
40.50
41.41
40.45
38.17
35.21
32.27
29.96
28.62
28.29
28.78
29.78
31.03
32.39
33.79
35.11
36.11
36.38
35.52
33.25
29.60
24.92
19.77
14.70
10.00
5.61
1.07
-4.24
-10.74
-18.38
-26.40
-33.46
-37.91
-38.31
-33.94
-25.06
-12.95
0.38
12.76
22.34
27.98
29.49
27.47
23.12
17.85
12.86
8.88
6.04
3.95
2.01
-0.25
-2.90
-5.55
-7.47
-7.97
-6.68
-3.81
-0.09
3.41
5.65
5.83
3.63
-0.79
-6.91
-13.99
-21.29
-28.25
-34.61
-40.43
-46.05
-51.88
-58.20
-64.85
-71.12
-75.69
-76.96
-73.49
-64.58
-50.68
-33.38
-15.03
1.94
15.70
25.40
31.15
33.70
33.97
32.77
30.73
28.37
26.22
24.82
24.61
25.80
28.29
31.80
35.88
40.12
44.15
47.60
50.10
51.27
50.77
48.42
44.30
38.66
31.96
24.63
17.10
9.57
2.04
-5.72
-14.08
-23.28
-33.30
-43.53
-52.79
-59.49
-62.12
-59.68
-52.17
-40.65
-26.98
-13.22
-1.13
8.23
14.52
17.92
18.86
17.87
15.51
12.45
9.50
7.49
7.09
8.60
11.87
16.36
21.29
25.92
29.64
32.08
33.06
32.58
30.69
27.49
23.15
17.88
12.03
5.99
0.13
-5.38
-10.62
-15.95
-21.82
-28.51
-35.84
-43.02
-48.80
-51.69
-50.42
-44.40
-33.92
-20.15
-4.84
10.14
23.19
33.27
39.96
43.38
43.96
42.30
39.07
34.92
30.51
26.46
23.27
21.25
20.48
20.75
21.75
23.08
24.42
25.48
26.02
25.78
24.51
22.00
18.28
13.58
8.37
3.16
-1.69
-6.12
-10.43
-15.12
-20.74
-27.60
-35.49
-43.64
-50.71
-55.07
-55.26
-50.43
-40.75
-27.34
-12.01
3.31
17.00
28.04
35.94
40.62
42.20
40.95
37.35
32.15
26.30
20.79
16.43
13.63
12.42
12.53
13.51
14.95
16.52
18.00
19.19
19.89
19.77
18.54
16.01
12.23
7.53
2.43
-2.58
-7.20
-11.44
-15.56
-19.99
-25.19
-31.48
-38.87
-46.95
-54.70
-60.63
-63.11
-60.90
-53.58
-41.82
-27.20
-11.71
2.79
15.04
24.47
30.99
34.77
36.02
34.99
32.05
27.86
23.25
19.17
16.34
15.12
15.41
16.76
18.64
20.58
22.26
23.45
23.93
23.43
21.68
18.58
14.26
9.17
3.89
-1.01
-5.19
-8.60
-11.52
-14.36
-17.68
-21.89
-27.24
-33.62
-40.42
-46.61
-50.78
-51.59
-48.13
-40.28
-28.85
-15.35
-1.66
10.55
20.10
26.48
29.71
30.19
28.48
25.14
20.82
16.11
11.69
8.15
5.92
5.24
6.02
7.99
10.68
13.56
16.11
17.88
18.54
17.95
16.16
13.42
10.06
6.40
2.67
-1.10
-5.00
-9.30
-14.24
-20.00
-26.46
-33.16
-39.19
-43.37
-44.49
-41.73
-34.91
-24.66
-12.29
0.56
12.33
21.79
28.23
31.44
31.61
29.20
24.88
19.39
13.50
7.91
3.21
-0.19
-2.08
-2.49
-1.68
-0.11
1.59
2.73
2.79
1.49
-1.12
-4.66
-8.64
-12.62
-16.38
-19.99
-23.70
-27.85
-32.78
-38.69
-45.57
-53.02
-60.15
-65.61
-67.81
-65.49
-58.09
-46.18
-31.30
-15.52
-0.85
11.26
20.10
25.61
28.11
28.05
25.88
22.12
17.36
12.30
7.67
4.12
2.12
1.77
2.85
4.88
7.24
9.31
10.63
10.97
10.24
8.49
5.78
2.23
-1.97
-6.58
-11.37
-16.24
-21.31
-26.91
-33.40
-40.87
-48.84
-56.24
-61.54
-63.18
-60.15
-52.31
-40.49
-26.24
-11.38
2.44
14.01
22.68
28.26
30.87
30.82
28.59
24.84
20.39
16.10
12.74
10.79
10.36
11.26
13.03
15.22
17.38
19.17
20.31
20.53
19.65
17.57
14.37
10.30
5.69
0.86
-4.01
-8.95
-14.16
-20.03
-26.85
-34.74
-43.29
-51.47
-57.74
-60.43
-58.27
-50.90
-39.07
-24.41
-8.96
5.44
17.49
26.54
32.41
35.18
35.06
32.42
27.92
22.46
17.13
12.90
10.37
9.72
10.68
12.74
15.27
17.72
19.59
20.48
20.09
18.30
15.18
11.04
6.33
1.46
-3.30
-7.90
-12.50
-17.44
-23.05
-29.56
-36.98
-44.89
-52.39
-58.12
-60.55
-58.43
-51.22
-39.43
-24.49
-8.45
6.67
19.32
28.68
34.58
37.25
37.14
34.76
30.73
25.83
20.97
17.06
14.79
14.50
16.01
18.83
22.20
25.39
27.77
28.93
28.66
26.96
24.01
20.11
15.58
10.72
5.76
0.79
-4.23
-9.52
-15.40
-22.14
-29.82
-37.99
-45.66
-51.31
-53.32
-50.51
-42.60
-30.44
-15.70
-0.47
13.45
24.80
33.01
37.96
39.79
38.70
35.12
29.72
23.53
17.75
13.53
11.62
12.14
14.66
18.32
22.17
25.37
27.34
27.82
26.80
24.43
20.96
16.70
11.94
6.95
1.94
-3.08
-8.28
-13.98
-20.49
-27.86
-35.62
-42.73
-47.76
-49.23
-46.14
-38.29
-26.44
-12.09
2.90
16.75
28.11
36.16
40.62
41.66
39.71
35.39
29.49
22.85
16.40
10.98
7.22
5.44
5.54
7.06
9.34
11.61
13.23
13.75
12.97
11.01
8.12
4.68
1.04
-2.55
-6.06
-9.61
-13.50
-18.13
-23.79
-30.51
-37.93
-45.17
-50.96
-53.83
-52.57
-46.54
-36.00
-22.10
-6.62
8.47
21.45
31.25
37.41
40.07
39.67
36.81
32.16
26.49
20.70
15.79
12.59
11.63
12.88
15.86
19.69
23.42
26.19
27.46
27.08
25.17
22.05
18.06
13.52
8.62
3.44
-2.00
-7.80
-14.13
-21.19
-29.06
-37.44
-45.54
-52.02
-55.32
-54.01
-47.42
-35.93
-20.95
-4.63
10.78
23.48
32.45
37.53
39.15
38.07
35.06
30.84
26.06
21.42
17.67
15.42
15.07
16.52
19.24
22.42
25.25
27.14
27.82
27.29
25.67
23.10
19.69
15.59
11.00
6.15
1.25
-3.69
-8.82
-14.49
-21.07
-28.67
-36.93
-44.94
-51.33
-54.59
-53.51
-47.59
-37.22
-23.60
-8.48
6.30
19.16
29.01
35.27
37.92
37.36
34.27
29.60
24.35
19.51
15.87
13.98
14.01
15.76
18.73
22.20
25.42
27.87
29.23
29.44
28.58
26.72
23.91
20.25
15.92
11.27
6.67
2.42
-1.43
-5.09
-8.99
-13.61
-19.29
-26.06
-33.46
-40.58
-46.07
-48.53
-46.83
-40.52
-30.05
-16.66
-2.03
12.11
24.38
33.88
40.15
43.08
42.87
40.00
35.27
29.69
24.35
20.20
17.86
17.53
18.95
21.52
24.50
27.20
29.18
30.28
30.58
30.21
29.24
27.53
24.85
21.04
16.20
10.74
5.22
0.14
-4.28
-8.22
-12.09
-16.37
-21.43
-27.37
-33.95
-40.59
-46.32
-50.02
-50.58
-47.28
-40.03
-29.48
-16.89
-3.83
8.25
18.24
25.49
29.72
31.00
29.64
26.21
21.56
16.72
12.79
10.71
10.93
13.37
17.31
21.71
25.53
28.07
29.11
28.85
27.65
25.78
23.31
20.12
16.09
11.29
5.96
0.54
-4.56
-9.03
-12.75
-15.86
-18.64
-21.60
-25.17
-29.72
-35.23
-41.25
-46.87
-50.87
-52.03
-49.51
-43.03
-33.07
-20.67
-7.26
5.72
16.99
25.64
31.13
33.31
32.40
28.93
23.70
17.74
12.11
7.70
5.13
4.54
5.65
7.87
10.46
12.80
14.51
15.51
15.97
16.02
15.70
14.83
13.10
10.31
6.51
2.09
-2.39
-6.45
-9.91
-12.91
-15.87
-19.25
-23.45
-28.62
-34.72
-41.37
-47.84
-53.04
-55.75
-54.85
-49.75
-40.63
-28.46
-14.79
-1.31
10.52
19.66
25.60
28.25
27.85
24.88
20.12
14.52
9.22
5.30
3.49
4.01
6.44
9.90
13.39
16.07
17.61
18.12
17.97
17.49
16.83
15.81
14.16
11.63
8.20
4.09
-0.31
-4.56
-8.33
-11.52
-14.30
-17.03
-20.21
-24.27
-29.38
-35.27
-41.14
-45.77
-47.81
-46.20
-40.47
-31.01
-18.90
-5.68
7.08
18.05
26.34
31.46
33.24
31.81
27.63
21.46
14.33
7.34
1.42
-2.87
-5.38
-6.33
-6.06
-4.88
-3.02
-0.65
2.01
4.60
6.66
7.76
7.64
6.38
4.35
2.19
0.63
0.23
1.19
3.16
5.31
6.52
5.70
2.18
-4.04
-12.15
-20.70
-27.87
-31.88
-31.33
-25.49
-14.41
1.13
19.71
39.43
58.19
73.84
84.50
88.89
86.67
78.56
66.26
52.09
38.30
26.56
17.62
11.34
6.96
3.59
0.54
-2.56
-5.78
-9.06
-12.40
-15.85
-19.54
-23.53
-27.77
-32.03
-36.03
-39.54
-42.41
-44.70
-46.66
-48.64
-51.00
-53.99
-57.71
-62.04
-66.58
-70.65
-73.27
-73.36
-70.02
-62.83
-52.02
-38.57
-23.92
-9.66
2.81
12.48
18.82
21.73
21.45
18.53
13.77
8.10
2.51
-2.12
-5.22
-6.55
-6.23
-4.66
-2.40
-0.02
2.01
3.38
3.95
3.65
2.46
0.39
-2.50
-6.03
-9.95
-13.94
-17.78
-21.42
-25.04
-28.90
-33.30
-38.36
-43.90
-49.34
-53.71
-55.80
-54.45
-48.88
-38.98
-25.42
-9.49
7.22
23.21
37.34
48.86
57.37
62.70
64.87
64.20
61.38
57.51
53.95
52.10
53.16
57.77
65.87
76.50
87.88
97.64
103.35
102.99
95.47
80.82
60.01
34.69
6.81
-21.54
-48.17
-70.93
-88.04
-98.55
-102.72
-102.02
-98.70
-94.91
-91.91
-89.65
-87.07
-82.89
-76.51
-68.44
-60.06
-52.91
-47.78
-44.38
-41.70
-38.78
-35.48
-32.72
-32.06
-34.73
-40.76
-48.61
-55.61
-58.97
-56.95
-49.43
-37.89
-24.67
-12.12
-1.96
4.91
8.25
8.18
5.06
-0.51
-7.65
-15.27
-22.30
-28.01
-32.33
-35.71
-38.95
-42.76
-47.42
-52.61
-57.39
-60.42
-60.32
-56.12
-47.52
-35.14
-20.27
-4.56
10.32
23.09
32.88
39.25
42.13
41.76
38.71
33.82
28.02
22.18
16.97
12.76
9.72
7.93
7.47
8.33
10.31
12.90
15.29
16.60
16.20
13.92
10.04
5.15
-0.18
-5.59
-11.02
-16.62
-22.65
-29.40
-37.02
-45.37
-53.93
-61.60
-66.84
-68.04
-63.99
-54.42
-40.16
-23.00
-5.17
11.30
25.00
35.28
42.10
45.71
46.52
44.90
41.40
36.78
32.05
28.33
26.50
27.03
29.71
33.82
38.34
42.34
45.19
46.72
47.02
46.31
44.67
41.97
37.99
32.50
25.53
17.25
8.02
-1.76
-11.63
-20.98
-28.93
-34.28
-35.80
-32.56
-24.46
-12.33
2.16
17.04
30.46
41.18
48.62
52.72
53.68
51.84
47.63
41.68
34.85
28.20
22.82
19.56
18.79
20.29
23.27
26.61
29.17
30.11
29.09
26.26
22.17
17.45
12.61
7.93
3.36
-1.33
-6.54
-12.66
-19.93
-28.26
-37.08
-45.26
-51.27
-53.52
-50.83
-42.89
-30.40
-14.91
1.55
17.05
30.11
39.88
46.16
49.15
49.32
47.30
43.84
39.79
36.05
33.37
32.25
32.78
34.71
37.49
40.46
43.03
44.71
45.17
44.21
41.77
37.94
32.96
27.21
21.08
14.84
8.55
2.05
-4.96
-12.77
-21.45
-30.68
-39.71
-47.40
-52.40
-53.50
-49.97
-41.79
-29.78
-15.39
-0.37
13.71
25.68
34.96
41.41
45.20
46.68
46.29
44.61
42.33
40.17
38.77
38.45
39.17
40.54
42.01
43.04
43.33
42.80
41.55
39.66
37.15
33.86
29.60
24.28
18.03
11.28
4.58
-1.53
-6.76
-11.18
-15.14
-19.20
-23.89
-29.57
-36.31
-43.80
-51.25
-57.48
-61.10
-60.79
-55.78
-46.15
-32.89
-17.68
-2.37
11.51
23.03
31.86
38.08
41.90
43.54
43.29
41.61
39.22
37.00
35.82
36.20
38.18
41.28
44.66
47.43
48.94
48.97
47.73
45.68
43.29
40.82
38.27
35.46
32.24
28.60
24.66
20.70
16.96
13.60
10.66
8.05
5.58
3.05
0.25
-2.87
-6.25
-9.71
-13.05
-16.24
-19.44
-22.98
-27.19
-32.33
-38.50
-45.64
-53.49
-61.52
-68.83
-74.14
-76.02
-73.36
-65.78
-53.91
-39.27
-23.79
-9.25
3.11
12.71
19.50
23.70
25.68
25.87
24.83
23.27
21.88
21.26
21.77
23.40
25.89
28.77
31.58
33.96
35.73
36.87
37.45
37.54
37.16
36.28
34.90
33.02
30.72
28.08
25.18
22.08
18.86
15.63
12.49
9.56
6.90
4.45
2.08
-0.38
-3.06
-6.00
-9.16
-12.39
-15.53
-18.51
-21.31
-24.05
-26.95
-30.24
-34.20
-39.00
-44.64
-50.81
-56.78
-61.46
-63.57
-62.04
-56.37
-46.85
-34.54
-20.97
-7.78
3.77
12.91
19.43
23.47
25.37
25.56
24.52
22.82
21.08
19.97
19.98
21.33
23.89
27.18
30.55
33.41
35.34
36.20
36.07
35.10
33.46
31.21
28.42
25.15
21.52
17.72
14.00
10.60
7.68
5.30
3.42
1.87
0.46
-1.03
-2.79
-4.86
-7.23
-9.80
-12.48
-15.24
-18.17
-21.39
-25.03
-29.16
-33.79
-38.84
-44.16
-49.44
-54.18
-57.64
-58.95
-57.35
-52.39
-44.22
-33.59
-21.70
-9.93
0.46
8.64
14.24
17.29
18.07
17.03
14.72
11.77
8.94
6.95
6.39
7.51
10.13
13.62
17.20
20.10
21.84
22.32
21.75
20.46
18.81
16.98
15.02
12.88
10.48
7.85
5.13
2.55
0.42
-1.10
-1.98
-2.35
-2.51
-2.75
-3.29
-4.20
-5.43
-6.84
-8.29
-9.70
-11.07
-12.54
-14.38
-16.88
-20.26
-24.47
-29.06
-33.16
-35.69
-35.63
-32.31
-25.71
-16.45
-5.60
5.61
16.14
25.40
33.35
40.30
46.56
52.22
56.90
60.00
60.97
59.75
56.85
53.24
50.00
47.92
47.33
48.03
49.37
50.39
50.14
47.92
43.60
37.70
31.27
25.46
21.01
18.03
16.01
14.21
11.99
8.99
5.05
0.05
-6.17
-13.72
-22.35
-31.43
-39.97
-46.99
-51.89
-54.62
-55.74
-56.14
-56.72
-58.11
-60.52
-63.66
-66.89
-69.42
-70.45
-69.41
-66.00
-60.30
-52.65
-43.71
-34.26
-25.17
-17.23
-10.99
-6.71
-4.31
-3.49
-3.83
-4.89
-6.31
-7.73
-8.74
-8.95
-8.06
-5.98
-2.95
0.52
3.87
6.62
8.57
9.78
10.39
10.52
10.17
9.29
7.86
6.00
3.89
1.74
-0.38
-2.52
-4.86
-7.50
-10.40
-13.35
-16.04
-18.20
-19.81
-21.06
-22.38
-24.23
-26.94
-30.57
-34.81
-39.04
-42.50
-44.43
-44.22
-41.63
-36.73
-29.92
-21.82
-13.20
-4.85
2.51
8.29
12.16
14.04
14.11
12.71
10.30
7.39
4.50
2.13
0.70
0.49
1.52
3.56
6.17
8.85
11.18
12.88
13.88
14.28
14.21
13.78
13.01
11.80
9.97
7.43
4.19
0.49
-3.26
-6.64
-9.41
-11.62
-13.63
-15.94
-19.04
-23.17
-28.28
-34.00
-39.78
-44.96
-48.78
-50.56
-49.77
-46.15
-39.88
-31.55
-22.11
-12.66
-4.24
2.36
6.74
8.84
8.90
7.37
4.78
1.69
-1.39
-3.98
-5.70
-6.31
-5.76
-4.18
-1.94
0.49
2.60
3.99
4.43
3.89
2.46
0.27
-2.54
-5.87
-9.56
-13.40
-17.17
-20.75
-24.16
-27.65
-31.56
-36.18
-41.55
-47.37
-53.00
-57.55
-60.07
-59.70
-55.99
-48.98
-39.25
-27.88
-16.14
-5.25
3.88
10.71
15.09
17.09
17.00
15.27
12.45
9.20
6.13
3.73
2.26
1.86
2.44
3.86
5.92
8.36
10.87
13.09
14.72
15.48
15.18
13.75
11.27
7.92
3.98
-0.27
-4.67
-9.25
-14.22
-19.81
-26.21
-33.30
-40.62
-47.31
-52.27
-54.38
-52.77
-47.14
-37.80
-25.72
-12.28
0.99
12.77
22.11
28.53
31.98
32.72
31.26
28.25
24.44
20.52
17.15
14.77
13.61
13.69
14.84
16.77
19.10
21.41
23.28
24.33
24.27
22.99
20.58
17.22
13.25
8.95
4.52
0.07
-4.47
-9.32
-14.77
-21.10
-28.38
-36.27
-43.91
-49.97
-52.97
-51.70
-45.61
-35.03
-21.09
-5.49
10.00
23.82
34.88
42.62
46.94
48.12
46.70
43.44
39.19
34.79
31.00
28.32
26.94
26.78
27.50
28.71
30.03
31.13
31.73
31.59
30.42
28.03
24.39
19.63
14.10
8.21
2.37
-3.19
-8.45
-13.58
-18.87
-24.64
-31.08
-38.10
-45.22
-51.50
-55.70
-56.51
-53.04
-45.09
-33.32
-19.07
-4.06
10.04
22.00
31.05
36.94
39.70
39.58
37.00
32.58
27.16
21.74
17.29
14.51
13.66
14.51
16.44
18.74
20.76
22.08
22.47
21.86
20.24
17.68
14.31
10.38
6.13
1.71
-2.91
-7.97
-13.79
-20.58
-28.18
-35.98
-42.92
-47.68
-49.00
-46.00
-38.55
-27.25
-13.43
1.22
15.04
26.70
35.41
40.88
43.23
42.80
40.15
35.94
30.98
26.17
22.37
20.19
19.88
21.26
23.80
26.76
29.40
31.11
31.54
30.58
28.33
24.99
20.81
16.01
10.76
5.18
-0.66
-6.72
-13.04
-19.76
-26.95
-34.53
-42.00
-48.44
-52.59
-53.22
-49.59
-41.75
-30.55
-17.41
-3.81
8.96
20.03
28.88
35.16
38.65
39.36
37.63
34.24
30.29
26.91
24.98
24.83
26.27
28.74
31.55
34.09
35.98
36.98
37.01
36.02
33.98
30.93
26.94
22.18
16.86
11.24
5.56
0.01
-5.33
-10.55
-15.87
-21.56
-27.76
-34.25
-40.32
-44.90
-46.74
-44.82
-38.75
-28.93
-16.47
-2.93
10.15
21.55
30.55
36.90
40.67
42.13
41.69
39.93
37.63
35.67
34.84
35.62
38.03
41.61
45.60
49.19
51.81
53.20
53.43
52.71
51.25
49.10
46.22
42.50
38.00
32.91
27.66
22.68
18.26
14.45
10.97
7.36
3.05
-2.41
-9.12
-16.80
-24.71
-31.77
-36.84
-38.97
-37.71
-33.21
-26.17
-17.62
-8.65
-0.20
7.02
12.56
16.17
17.77
17.48
15.65
12.86
9.85
7.40
6.06
6.11
7.40
9.53
11.94
14.12
15.68
16.40
16.16
14.96
12.88
10.01
6.48
2.40
-2.08
-6.81
-11.53
-15.95
-19.82
-23.04
-25.78
-28.45
-31.52
-35.38
-40.08
-45.27
-50.22
-53.96
-55.49
-54.02
-49.21
-41.29
-31.09
-19.90
-9.03
0.42
7.84
13.08
16.25
17.57
17.20
15.32
12.31
8.80
5.66
3.75
3.60
5.20
8.03
11.22
13.96
15.66
16.22
15.81
14.75
13.26
11.37
8.94
5.86
2.19
-1.80
-5.71
-9.11
-11.72
-13.46
-14.42
-14.85
-15.10
-15.51
-16.48
-18.31
-21.09
-24.61
-28.25
-31.07
-32.02
-30.25
-25.42
-17.83
-8.32
1.95
11.87
20.56
27.51
32.47
35.31
36.00
34.64
31.56
27.36
22.90
19.05
16.44
15.37
15.76
17.21
19.24
21.31
22.97
23.79
23.48
21.92
19.24
15.74
11.90
8.15
4.82
2.06
-0.14
-1.93
-3.49
-4.99
-6.52
-8.02
-9.19
-9.46
-8.08
-4.41
1.78
9.99
19.02
27.36
33.68
37.39
38.75
38.87
39.06
40.42
43.36
47.52
51.89
55.15
56.00
53.56
47.56
38.41
27.20
15.32
4.27
-4.86
-11.52
-15.81
-18.35
-19.93
-21.32
-23.00
-25.09
-27.45
-29.84
-32.06
-34.09
-36.05
-38.10
-40.32
-42.64
-44.90
-46.90
-48.55
-49.87
-51.01
-52.17
-53.52
-55.17
-57.09
-59.20
-61.26
-62.91
-63.64
-62.85
-60.04
-55.00
-47.97
-39.61
-30.80
-22.42
-15.10
-9.22
-4.93
-2.25
-1.10
-1.28
-2.40
-3.83
-4.91
-5.02
-3.88
-1.52
1.71
5.34
8.95
12.26
15.14
17.49
19.18
20.01
19.74
18.17
15.31
11.36
6.73
1.95
-2.46
-6.19
-9.20
-11.73
-14.23
-17.20
-21.00
-25.67
-30.85
-35.74
-39.33
-40.58
-38.75
-33.64
-25.65
-15.79
-5.36
4.27
12.04
17.32
19.94
20.07
18.10
14.55
9.97
5.03
0.47
-3.06
-5.02
-5.27
-4.02
-1.81
0.71
2.96
4.58
5.39
5.34
4.45
2.75
0.31
-2.65
-5.91
-9.20
-12.38
-15.50
-18.80
-22.58
-27.10
-32.40
-38.24
-44.01
-48.80
-51.53
-51.29
-47.54
-40.40
-30.65
-19.55
-8.50
1.24
8.86
13.96
16.47
16.57
14.57
10.95
6.33
1.48
-2.84
-5.96
-7.50
-7.44
-6.08
-3.95
-1.69
0.15
1.21
1.31
0.44
-1.29
-3.76
-6.77
-10.12
-13.65
-17.28
-21.09
-25.36
-30.45
-36.63
-43.83
-51.43
-58.29
-62.96
-64.07
-60.78
-53.06
-41.73
-28.28
-14.40
-1.64
8.93
16.75
21.71
23.96
23.78
21.60
17.97
13.55
9.19
5.69
3.71
3.56
5.15
8.00
11.33
14.35
16.35
16.92
15.94
13.53
10.00
5.68
0.86
-4.22
-9.39
-14.59
-19.86
-25.38
-31.42
-38.22
-45.68
-53.21
-59.66
-63.50
-63.28
-58.09
-48.03
-34.17
-18.32
-2.48
11.68
23.11
31.41
36.67
39.18
39.32
37.57
34.46
30.71
27.08
24.33
22.96
23.19
24.82
27.38
30.20
32.60
34.06
34.32
33.30
31.11
27.94
23.96
19.40
14.45
9.30
4.07
-1.31
-7.08
-13.59
-21.07
-29.39
-37.85
-45.20
-49.88
-50.44
-46.06
-36.84
-23.85
-8.84
6.25
19.69
30.36
37.74
41.81
42.88
41.45
38.15
33.81
29.34
25.70
23.60
23.38
24.82
27.34
30.13
32.48
33.94
34.35
33.75
32.25
29.90
26.74
22.85
18.37
13.49
8.45
3.30
-2.06
-7.87
-14.44
-21.86
-29.81
-37.45
-43.43
-46.25
-44.70
-38.26
-27.43
-13.56
1.45
15.68
27.58
36.24
41.37
43.17
42.14
38.97
34.40
29.25
24.31
20.34
17.93
17.39
18.65
21.29
24.58
27.73
30.03
30.96
30.33
28.14
24.61
20.07
14.91
9.50
4.17
-0.93
-5.80
-10.65
-15.80
-21.65
-28.46
-36.14
-44.04
-51.02
-55.51
-56.04
-51.70
-42.51
-29.50
-14.46
0.58
13.91
24.38
31.59
35.60
36.79
35.70
32.92
29.16
25.15
21.62
19.09
17.86
17.86
18.83
20.38
22.12
23.71
24.82
25.14
24.36
22.28
18.86
14.30
8.97
3.37
-2.00
-6.76
-10.76
-14.08
-17.10
-20.43
-24.70
-30.26
-36.88
-43.56
-48.77
-50.80
-48.46
-41.42
-30.43
-16.99
-2.91
10.18
21.18
29.50
35.04
37.97
38.63
37.46
35.02
31.94
28.87
26.43
25.05
24.93
25.97
27.76
29.81
31.61
32.79
33.12
32.51
30.82
27.94
23.78
18.44
12.26
5.81
-0.32
-5.67
-10.17
-14.10
-17.99
-22.45
-27.96
-34.61
-42.04
-49.34
-55.19
-58.13
-56.97
-51.15
-41.05
-27.89
-13.41
0.62
12.84
22.52
29.51
34.01
36.32
36.73
35.58
33.37
30.81
28.68
27.71
28.23
30.14
32.89
35.74
37.98
39.16
39.19
38.22
36.50
34.23
31.46
28.15
24.22
19.68
14.71
9.57
4.63
0.14
-3.78
-7.16
-10.21
-13.15
-16.29
-19.89
-24.25
-29.62
-36.04
-43.13
-50.06
-55.52
-58.12
-56.72
-50.90
-41.13
-28.63
-15.00
-1.78
9.83
19.11
25.76
29.75
31.34
30.95
29.26
27.04
25.09
24.04
24.19
25.51
27.68
30.20
32.62
34.58
35.88
36.43
36.21
35.18
33.31
30.61
27.18
23.19
18.97
14.83
10.99
7.51
4.29
1.18
-1.97
-5.15
-8.34
-11.44
-14.38
-17.22
-20.07
-23.15
-26.73
-31.11
-36.47
-42.74
-49.40
-55.41
-59.36
-59.89
-56.13
-48.04
-36.52
-23.08
-9.41
3.07
13.46
21.35
26.66
29.54
30.25
29.24
27.16
24.81
22.97
22.19
22.65
24.18
26.29
28.46
30.28
31.50
32.09
32.11
31.64
30.73
29.35
27.44
24.94
21.85
18.30
14.50
10.74
7.33
4.44
2.08
0.06
-1.98
-4.31
-7.06
-10.08
-13.04
-15.59
-17.55
-19.05
-20.46
-22.29
-24.99
-28.79
-33.64
-39.17
-44.69
-49.17
-51.47
-50.50
-45.65
-36.98
-25.34
-12.10
1.18
13.20
23.17
30.74
35.84
38.53
38.88
37.17
33.95
30.10
26.65
24.48
24.04
25.24
27.56
30.31
32.93
35.06
36.54
37.32
37.27
36.27
34.23
31.16
27.25
22.73
17.93
13.09
8.41
4.07
0.19
-3.10
-5.79
-7.94
-9.69
-11.23
-12.74
-14.32
-16.02
-17.84
-19.76
-21.82
-24.13
-26.93
-30.48
-34.96
-40.24
-45.71
-50.37
-52.99
-52.52
-48.47
-41.12
-31.41
-20.67
-10.23
-1.08
6.20
11.44
14.69
16.12
15.95
14.50
12.16
9.51
7.12
5.52
4.99
5.49
6.66
8.00
9.08
9.64
9.68
9.29
8.59
7.54
6.05
4.01
1.43
-1.50
-4.45
-7.07
-9.17
-10.76
-12.11
-13.63
-15.66
-18.34
-21.42
-24.41
-26.59
-27.38
-26.49
-24.13
-21.11
-18.69
-18.26
-20.80
-26.38
-33.83
-41.06
-45.62
-45.65
-40.52
-30.99
-18.82
-6.08
5.55
14.99
21.70
25.50
26.41
24.65
20.85
15.99
11.28
7.88
6.46
7.07
9.21
12.01
14.62
16.53
17.62
18.11
18.33
18.51
18.74
19.04
19.47
20.15
21.21
22.49
23.48
23.29
21.03
16.17
8.86
0.00
-9.09
-17.07
-23.01
-26.63
-28.21
-28.53
-28.52
-29.08
-30.89
-34.24
-38.94
-44.32
-49.30
-52.68
-53.45
-51.04
-45.50
-37.38
-27.58
-17.09
-6.90
2.16
9.31
13.96
15.79
14.89
11.97
8.14
4.77
2.96
3.27
5.55
9.06
12.86
16.18
18.65
20.38
21.81
23.52
26.08
29.84
34.81
40.51
45.96
49.95
51.44
50.02
46.08
40.74
35.32
30.79
27.38
24.55
21.34
16.84
10.71
3.28
-4.52
-11.51
-16.70
-19.62
-20.37
-19.73
-18.79
-18.65
-20.04
-23.06
-27.14
-31.36
-34.91
-37.46
-39.40
-41.54
-44.69
-49.09
-54.24
-59.11
-62.63
-64.24
-64.10
-62.86
-61.24
-59.62
-57.92
-55.76
-52.90
-49.43
-45.91
-43.09
-41.62
-41.68
-42.97
-44.82
-46.54
-47.71
-48.27
-48.47
-48.69
-49.27
-50.47
-52.45
-55.32
-58.99
-63.09
-66.86
-69.24
-69.18
-65.95
-59.38
-49.89
-38.29
-25.60
-12.86
-1.07
8.87
16.23
20.57
21.88
20.59
17.48
13.44
9.33
5.82
3.40
2.33
2.66
4.28
6.92
10.21
13.65
16.78
19.13
20.27
19.94
18.12
15.02
11.05
6.72
2.37
-1.90
-6.25
-11.03
-16.62
-23.27
-31.03
-39.62
-48.37
-56.25
-61.94
-64.15
-61.93
-54.97
-43.78
-29.61
-14.13
0.93
14.13
24.57
31.90
36.16
37.67
36.89
34.34
30.72
26.85
23.59
21.61
21.19
22.15
23.95
25.99
27.80
29.18
30.08
30.35
29.72
27.76
24.17
18.93
12.40
5.25
-1.88
-8.59
-14.90
-21.16
-27.96
-35.79
-44.82
-54.68
-64.38
-72.43
-77.15
-77.12
-71.58
-60.69
-45.49
-27.66
-9.07
8.57
23.89
35.93
44.12
48.29
48.71
46.11
41.57
36.38
31.68
28.26
26.49
26.34
27.56
29.86
32.92
36.35
39.69
42.36
43.79
43.51
41.35
37.43
32.18
26.14
19.86
13.73
7.85
2.07
-3.97
-10.76
-18.69
-27.87
-37.96
-48.01
-56.49
-61.64
-61.85
-56.29
-45.14
-29.75
-12.14
5.55
21.55
34.87
45.08
52.13
56.11
57.12
55.47
51.79
47.04
42.33
38.64
36.55
36.12
37.04
38.81
40.95
43.10
45.02
46.44
47.07
46.50
44.37
40.45
34.79
27.75
19.95
12.10
4.74
-1.92
-8.09
-14.30
-21.19
-29.19
-38.27
-47.67
-56.06
-61.73
-63.05
-59.00
-49.42
-35.17
-17.82
0.69
18.55
34.33
47.07
56.24
61.61
63.24
61.53
57.27
51.55
45.60
40.57
37.22
35.81
36.12
37.59
39.61
41.67
43.43
44.72
45.35
45.03
43.37
40.06
34.97
28.43
21.04
13.54
6.52
0.20
-5.57
-11.19
-17.15
-23.86
-31.59
-40.25
-49.32
-57.76
-64.03
-66.48
-63.78
-55.48
-42.27
-25.81
-8.22
8.48
22.90
34.32
42.57
47.72
49.89
49.28
46.31
41.78
36.79
32.49
29.80
29.10
30.14
32.33
34.91
37.31
39.23
40.57
41.28
41.23
40.18
37.84
34.01
28.73
22.28
15.14
7.86
0.96
-5.26
-10.76
-15.77
-20.76
-26.27
-32.72
-40.28
-48.61
-56.87
-63.71
-67.53
-66.89
-60.97
-49.89
-34.75
-17.33
0.38
16.64
30.22
40.47
47.13
50.22
49.99
46.91
41.82
35.85
30.26
26.19
24.32
24.78
27.07
30.35
33.69
36.36
38.02
38.64
38.39
37.40
35.57
32.68
28.49
22.97
16.35
9.14
1.97
-4.63
-10.36
-15.22
-19.51
-23.73
-28.47
-34.23
-41.16
-48.90
-56.39
-62.12
-64.41
-61.96
-54.26
-41.81
-25.97
-8.59
8.46
23.66
36.03
45.10
50.73
53.06
52.42
49.36
44.74
39.60
35.01
31.80
30.35
30.45
31.50
32.77
33.67
33.93
33.53
32.56
31.02
28.78
25.62
21.37
16.06
9.94
3.39
-3.17
-9.43
-15.21
-20.51
-25.48
-30.32
-35.39
-41.03
-47.46
-54.61
-61.91
-68.19
-71.95
-71.73
-66.61
-56.59
-42.63
-26.47
-10.08
4.76
16.82
25.43
30.44
32.01
30.53
26.62
21.10
15.04
9.58
5.74
4.17
4.95
7.60
11.30
15.14
18.39
20.66
21.81
21.86
20.85
18.76
15.58
11.35
6.28
0.75
-4.80
-9.98
-14.65
-18.96
-23.38
-28.48
-34.70
-42.03
-49.84
-56.90
-61.64
-62.65
-59.00
-50.63
-38.30
-23.45
-7.79
7.06
19.83
29.70
36.24
39.33
39.15
36.16
31.20
25.35
19.84
15.71
13.62
13.62
15.33
18.04
21.07
23.86
26.03
27.29
27.38
26.04
23.14
18.72
13.10
6.76
0.28
-5.91
-11.59
-16.82
-21.87
-27.16
-33.09
-39.95
-47.72
-55.99
-63.77
-69.68
-72.13
-69.85
-62.27
-49.79
-33.78
-16.16
1.07
16.29
28.48
37.24
42.57
44.78
44.31
41.86
38.30
34.64
31.84
30.58
31.10
33.20
36.34
39.83
43.06
45.60
47.22
47.82
47.29
45.46
42.06
36.88
29.92
21.54
12.37
3.16
-5.48
-13.32
-20.54
-27.58
-34.98
-43.09
-51.96
-61.17
-69.88
-76.83
-80.66
-80.20
-74.89
-65.02
-51.67
-36.48
-21.12
-7.00
4.97
14.27
20.69
24.19
24.92
23.29
20.04
16.20
12.87
10.97
10.99
12.85
16.02
19.63
22.89
25.23
26.46
26.69
26.15
24.95
23.04
20.20
16.20
11.06
5.10
-1.07
-6.78
-11.61
-15.57
-19.09
-22.87
-27.62
-33.70
-41.01
-48.90
-56.29
-61.81
-64.09
-62.13
-55.51
-44.67
-30.77
-15.49
-0.54
12.69
23.32
31.02
35.81
37.88
37.54
35.21
31.55
27.42
23.81
21.54
21.05
22.24
24.57
27.28
29.70
31.45
32.49
32.96
32.93
32.24
30.55
27.47
22.92
17.15
10.76
4.47
-1.19
-6.05
-10.32
-14.43
-18.89
-24.08
-30.17
-37.11
-44.49
-51.59
-57.35
-60.58
-60.26
-55.81
-47.34
-35.71
-22.24
-8.46
4.21
14.73
22.42
27.03
28.61
27.52
24.36
20.01
15.52
11.93
10.09
10.37
12.63
16.23
20.30
24.02
26.84
28.48
28.94
28.31
26.67
24.06
20.52
16.20
11.32
6.20
1.10
-3.78
-8.41
-12.93
-17.59
-22.74
-28.61
-35.16
-41.90
-47.90
-51.96
-52.92
-50.03
-43.13
-32.83
-20.25
-6.79
6.14
17.37
26.08
31.79
34.34
33.91
30.99
26.39
21.15
16.37
12.97
11.42
11.70
13.32
15.56
17.79
19.58
20.75
21.26
21.03
19.91
17.70
14.30
9.77
4.38
-1.48
-7.36
-12.91
-17.93
-22.45
-26.72
-31.12
-36.08
-41.89
-48.62
-55.88
-62.83
-68.29
-70.91
-69.54
-63.59
-53.22
-39.41
-23.74
-7.97
6.29
17.96
26.47
31.73
33.98
33.62
31.26
27.68
23.82
20.62
18.86
18.86
20.41
22.86
25.41
27.38
28.43
28.60
28.13
27.20
25.84
23.83
20.90
16.88
11.82
6.07
0.10
-5.58
-10.67
-15.07
-19.00
-22.83
-27.06
-32.09
-38.11
-44.92
-51.87
-57.91
-61.74
-62.14
-58.34
-50.25
-38.58
-24.65
-10.11
3.52
15.10
24.01
30.09
33.41
34.18
32.72
29.54
25.45
21.47
18.58
17.46
18.20
20.34
23.05
25.53
27.24
27.99
27.84
26.95
25.35
23.04
19.95
16.08
11.56
6.69
1.82
-2.66
-6.50
-9.64
-12.24
-14.74
-17.67
-21.57
-26.77
-33.17
-40.19
-46.71
-51.32
-52.69
-49.95
-42.89
-32.09
-18.75
-4.43
9.27
20.98
29.72
35.01
36.87
35.79
32.55
28.09
23.29
18.86
15.31
12.97
12.01
12.42
14.02
16.42
19.08
21.42
22.98
23.46
22.75
20.91
18.07
14.37
9.99
5.13
0.08
-4.86
-9.48
-13.77
-18.01
-22.68
-28.22
-34.78
-41.95
-48.71
-53.64
-55.35
-52.96
-46.40
-36.48
-24.63
-12.42
-1.21
8.09
15.01
19.41
21.31
20.82
18.24
14.04
8.99
4.04
0.10
-2.10
-2.30
-0.66
2.32
5.96
9.57
12.65
14.83
15.89
15.78
14.57
12.40
9.52
6.17
2.52
-1.39
-5.66
-10.46
-15.95
-22.16
-28.87
-35.44
-40.94
-44.19
-44.17
-40.36
-32.98
-22.97
-11.75
-0.81
8.68
15.99
20.82
23.09
22.84
20.26
15.74
9.95
3.84
-1.55
-5.36
-7.09
-6.76
-4.87
-2.25
0.19
1.75
2.07
1.23
-0.33
-2.12
-3.72
-5.05
-6.33
-7.94
-10.30
-13.72
-18.26
-23.74
-29.71
-35.47
-40.07
-42.48
-41.78
-37.46
-29.60
-18.96
-6.81
5.33
16.09
24.42
29.79
32.06
31.45
28.40
23.51
17.56
11.47
6.19
2.57
1.03
1.52
3.46
5.90
7.89
8.73
8.14
6.26
3.43
-0.00
-3.80
-7.91
-12.39
-17.30
-22.72
-28.77
-35.52
-42.81
-50.14
-56.50
-60.52
-60.83
-56.56
-47.66
-35.07
-20.35
-5.29
8.57
20.22
29.14
35.19
38.43
39.04
37.34
33.85
29.30
24.47
20.10
16.77
14.79
14.23
14.92
16.49
18.43
20.17
21.13
20.87
19.18
16.10
11.88
6.83
1.23
-4.73
-11.00
-17.67
-24.85
-32.67
-41.12
-49.83
-57.98
-64.31
-67.34
-65.85
-59.27
-48.02
-33.36
-17.09
-1.02
13.45
25.51
34.84
41.42
45.30
46.61
45.56
42.59
38.41
33.88
29.84
26.90
25.36
25.16
25.98
27.39
28.90
30.02
30.29
29.34
26.89
22.88
17.52
11.20
4.43
-2.33
-8.76
-14.80
-20.58
-26.48
-32.92
-40.18
-48.19
-56.25
-63.13
-67.22
-67.09
-61.91
-51.81
-37.92
-21.96
-5.79
9.11
21.84
32.01
39.58
44.62
47.19
47.48
45.83
42.90
39.51
36.51
34.48
33.67
33.90
34.75
35.81
36.77
37.51
37.97
38.07
37.55
36.09
33.31
29.02
23.26
16.35
8.80
1.21
-5.92
-12.27
-17.84
-22.88
-27.85
-33.27
-39.54
-46.78
-54.67
-62.41
-68.75
-72.25
-71.58
-65.91
-55.25
-40.51
-23.34
-5.64
10.90
25.17
36.71
45.52
51.78
55.68
57.42
57.25
55.66
53.32
50.99
49.27
48.49
48.65
49.50
50.66
51.76
52.45
52.48
51.67
49.94
47.31
43.84
39.66
34.84
29.43
