1679490909.00
64.000000
-0.00
-0.00
-0.00
-0.00
-0.00
-0.00
-0.00
-0.00
-0.00
-0.00
0.00
0.01
0.01
-0.00
-0.03
-0.05
-0.05
0.00
0.13
0.36
0.66
1.01
1.37
1.72
2.06
2.40
2.79
3.24
3.80
4.42
5.06
5.66
6.20
6.68
7.15
7.68
8.31
9.14
10.09
11.04
11.88
12.56
13.14
13.76
14.65
15.96
17.91
20.32
22.90
25.38
27.58
29.57
31.68
34.32
37.81
42.54
48.15
54.10
59.83
64.97
69.58
74.14
79.34
85.71
93.76
103.00
112.62
121.73
129.77
136.75
143.30
150.75
157.77
166.64
177.95
191.79
206.97
220.57
228.25
225.36
208.53
176.87
132.76
80.05
23.07
-34.94
-92.44
-149.16
-205.23
-260.37
-313.74
-363.87
-409.83
-450.91
-486.50
-515.74
-537.23
-549.22
-549.96
-538.37
-514.21
-478.67
-433.88
-382.45
-327.02
-269.84
-212.63
-156.66
-102.95
-52.37
-5.90
35.58
71.43
101.35
125.50
144.38
158.69
169.15
176.37
180.75
182.57
182.07
179.51
175.23
169.65
163.18
156.15
148.81
141.30
133.69
126.02
118.33
110.69
103.16
95.80
88.68
81.83
75.25
68.95
62.95
57.25
51.86
46.78
42.03
37.59
33.45
29.61
26.07
22.81
19.83
17.11
14.67
12.48
10.54
8.83
7.35
6.07
4.97
4.05
3.27
2.62
2.09
1.65
1.30
1.01
0.79
0.61
0.47
0.37
0.28
0.22
0.18
0.14
0.12
0.11
0.11
0.11
0.13
0.14
0.17
0.20
0.23
0.27
0.31
0.36
0.40
0.45
0.50
0.55
0.60
0.65
0.71
0.77
0.84
0.91
0.99
1.08
1.17
1.28
1.40
1.53
1.68
1.85
2.04
2.25
2.47
2.73
3.02
3.33
3.67
4.05
4.46
4.90
5.39
5.91
6.47
7.07
7.71
8.40
9.14
9.92
10.74
11.61
12.53
13.49
14.51
15.60
16.74
17.95
19.21
20.51
21.79
23.01
24.07
24.85
25.26
25.16
24.45
23.05
20.90
18.05
14.54
10.48
6.04
1.43
-3.14
-7.47
-11.34
-14.61
-17.18
-19.00
-20.10
-20.54
-20.43
-19.89
-19.00
-17.83
-16.45
-14.90
-13.21
-11.47
-9.66
-7.89
-6.18
-4.52
-2.88
-1.21
0.50
2.27
4.06
5.89
7.61
9.19
10.69
12.23
13.95
15.93
18.19
20.64
23.24
25.64
27.73
29.62
31.54
33.75
36.39
39.44
42.67
45.88
48.42
50.05
50.97
51.62
52.48
53.84
55.65
57.51
58.97
58.97
57.04
53.19
47.75
41.04
32.96
22.62
8.07
-8.60
-27.65
-49.77
-75.49
-104.56
-135.38
-164.78
-188.52
-202.60
-204.58
-195.43
-178.45
-158.19
-138.84
-122.96
-111.14
-102.42
-95.27
-88.19
-80.50
-71.62
-60.98
-48.32
-33.86
-18.48
-3.47
9.92
20.88
28.99
34.49
38.02
40.26
41.78
42.92
43.85
44.62
45.28
45.74
46.00
46.16
46.27
46.42
46.65
46.97
47.32
47.54
47.29
46.17
43.88
40.36
35.90
31.08
26.55
22.71
19.61
16.90
14.06
10.64
6.56
2.10
-2.16
-5.66
-8.08
-9.55
-10.62
-12.07
-14.65
-18.84
-24.71
-31.84
-39.42
-46.25
-50.96
-52.32
-49.62
-42.88
-32.99
-21.42
-9.87
0.31
8.38
14.33
18.62
21.89
24.61
26.96
28.90
30.30
31.12
31.50
31.76
32.21
33.00
34.02
34.94
35.39
35.17
34.36
33.20
31.94
30.67
29.25
27.35
24.74
21.34
17.42
13.44
9.90
7.15
5.25
4.02
3.05
1.91
0.25
-2.13
-5.20
-8.75
-12.42
-15.88
-18.88
-21.45
-23.84
-26.45
-29.74
-34.06
-39.52
-45.92
-52.66
-58.70
-62.80
-63.72
-60.73
-53.94
-44.38
-33.75
-23.81
-15.83
-10.21
-6.53
-3.94
-1.68
0.57
2.58
3.83
3.86
2.59
0.46
-1.79
-3.45
-4.12
-3.98
-3.59
-3.66
-4.69
-6.74
-9.42
-12.07
-13.99
-14.67
-13.77
-11.12
-6.58
-0.10
8.26
18.18
29.07
40.21
50.88
60.52
68.81
75.64
80.90
84.36
85.61
84.24
80.06
73.21
64.24
53.87
42.79
31.42
19.89
8.18
-3.69
-15.38
-26.15
-34.92
-40.55
-42.22
-39.77
-33.83
-25.64
-16.76
-8.52
-1.74
3.42
7.28
10.27
12.64
14.35
15.28
15.35
14.80
14.15
13.95
14.62
16.20
18.40
20.72
22.69
23.99
24.58
24.65
24.44
24.11
23.57
22.58
20.84
18.26
15.03
11.64
8.59
6.17
4.35
2.80
1.11
-0.93
-3.24
-5.57
-7.64
-9.37
-10.95
-12.66
-14.72
-17.17
-19.83
-22.50
-25.17
-27.96
-31.05
-34.23
-36.69
-37.02
-33.62
-25.40
-12.36
4.14
21.77
37.93
50.72
59.55
65.21
69.35
73.79
79.86
88.08
98.39
110.47
123.81
137.62
150.63
161.41
169.28
175.16
181.99
193.60
212.68
238.70
267.13
290.79
302.60
298.54
278.99
248.01
211.09
172.80
135.57
100.09
66.43
35.11
7.31
-15.75
-33.56
-46.68
-56.38
-63.95
-69.99
-74.23
-75.87
-74.29
-69.60
-62.78
-55.42
-49.01
-44.33
-41.20
-38.75
-36.00
-32.53
-28.79
-25.92
-25.17
-27.24
-31.87
-38.11
-44.75
-51.26
-58.08
-67.02
-80.17
-99.14
-124.56
-155.93
-191.67
-229.08
-264.66
-294.81
-317.15
-331.02
-337.69
-339.77
-339.90
-339.31
-337.00
-330.29
-316.49
-295.41
-269.04
-240.44
-212.42
-186.32
-161.53
-135.64
-105.64
-69.37
-29.21
10.58
44.82
68.31
76.56
67.42
42.95
9.42
-24.56
-56.13
-83.97
-107.62
-127.26
-144.15
-159.55
-173.11
-182.82
-186.40
-190.59
-200.87
-218.28
-240.05
-263.41
-287.49
-312.78
-340.02
-369.57
-410.33
-464.84
-525.74
-579.68
-615.75
-630.26
-626.05
-609.74
-528.11
-366.11
-152.02
61.69
236.15
359.76
438.52
484.91
511.75
529.86
535.89
531.69
524.43
522.99
530.96
544.25
555.21
557.31
548.31
523.61
477.63
418.83
363.21
322.28
296.92
281.33
268.97
256.40
238.79
215.01
187.62
161.47
136.76
109.95
78.09
40.25
-2.32
-49.99
-102.74
-159.95
-220.37
-274.21
-316.88
-347.02
-366.29
-377.96
-386.19
-393.23
-407.23
-420.61
-425.43
-417.20
-394.31
-358.66
-314.93
-268.93
-222.26
-179.11
-140.25
-106.00
-76.94
-53.15
-34.62
-20.91
-11.00
-3.41
2.88
9.93
17.70
24.39
28.22
28.27
25.00
19.95
15.06
11.51
10.78
12.71
15.94
19.10
21.42
23.11
25.12
28.64
34.20
42.27
52.30
63.18
74.02
84.58
95.43
107.63
122.24
139.61
159.63
181.51
204.22
226.94
249.41
271.95
295.29
320.52
348.84
381.19
417.61
456.44
493.99
525.01
544.02
546.90
532.18
501.28
457.75
405.91
349.71
292.14
235.36
181.08
130.75
85.43
45.48
10.39
-21.03
-50.12
-77.77
-104.09
-128.21
-148.49
-162.91
-169.55
-167.12
-155.11
-133.98
-104.78
-68.86
-27.53
17.84
65.62
113.43
158.05
195.74
223.11
238.11
240.76
233.09
218.34
199.74
179.46
158.18
135.45
110.33
82.20
50.96
17.02
-19.04
-56.56
-94.76
-132.49
-168.09
-199.56
-225.18
-244.07
-256.73
-265.06
-271.93
-280.44
-292.98
-310.64
-332.85
-357.59
-381.98
-402.98
-418.25
-426.46
-427.43
-421.71
-410.07
-392.91
-370.24
-341.94
-308.23
-270.12
-229.34
-188.04
-148.02
-110.40
-75.39
-42.51
-11.04
19.60
49.56
78.49
105.61
129.92
150.50
166.84
178.87
186.92
191.37
192.57
190.78
186.53
180.80
174.96
170.32
167.50
165.97
164.20
160.20
152.39
140.24
124.48
106.95
90.12
76.44
67.73
64.65
66.62
72.01
78.75
85.06
89.85
92.79
94.06
93.80
91.90
87.80
80.74
70.09
55.81
38.71
20.48
3.33
-10.64
-20.22
-25.52
-27.89
-29.41
-32.00
-36.72
-43.58
-51.78
-60.30
-68.45
-76.02
-83.20
-90.17
-96.75
-102.24
-105.57
-105.66
-101.91
-94.45
-84.20
-72.50
-60.69
-49.64
-39.62
-30.43
-21.70
-13.21
-5.03
2.54
9.24
15.02
20.09
24.85
29.57
34.28
38.72
42.47
45.22
46.86
47.53
47.46
46.78
45.48
43.50
40.88
38.01
35.73
35.20
37.66
44.05
54.66
68.87
85.29
101.93
116.85
128.53
136.24
140.01
140.34
137.85
133.17
126.84
119.52
111.98
105.03
99.28
94.91
91.69
89.15
86.76
84.12
80.99
77.17
72.43
66.53
59.29
50.62
40.54
29.05
16.15
1.76
-14.20
-31.64
-50.30
-69.65
-88.91
-107.21
-123.69
-137.71
-149.04
-157.93
-165.01
-171.01
-176.39
-180.90
-183.49
-182.51
-176.24
-163.63
-144.81
-121.17
-95.05
-69.07
-45.36
-25.25
-9.08
3.41
12.75
19.38
23.60
25.63
25.74
24.28
21.58
17.73
12.57
5.86
-2.41
-11.67
-20.73
-28.06
-32.41
-33.33
-31.34
-27.68
-23.67
-20.21
-17.50
-15.36
-13.61
-12.48
-12.60
-14.68
-19.04
-25.35
-32.65
-39.71
-45.50
-49.49
-51.65
-52.33
-51.93
-50.81
-49.34
-47.95
-47.19
-47.46
-48.73
-50.38
-51.25
-50.06
-45.87
-38.49
-28.40
-16.53
-3.92
8.54
20.15
30.27
38.36
44.11
47.56
49.24
50.05
50.93
52.60
55.33
58.97
63.03
66.91
70.01
71.91
72.42
71.65
69.99
67.90
65.71
63.39
60.56
56.68
51.30
44.33
36.11
27.15
17.96
8.79
-0.44
-10.00
-20.18
-31.12
-42.72
-54.78
-67.11
-79.73
-92.92
-107.16
-122.88
-140.09
-158.10
-175.49
-190.31
-200.53
-204.44
-201.08
-190.37
-172.97
-150.15
-123.47
-94.60
-65.14
-36.53
-9.93
13.89
34.60
52.44
67.94
81.92
95.10
107.97
120.69
133.05
144.62
154.89
163.34
169.51
173.04
173.63
171.12
165.49
156.86
145.49
131.77
116.30
99.87
83.54
68.43
55.60
45.71
38.93
34.89
32.75
31.50
30.12
27.89
24.38
19.54
13.54
6.63
-0.97
-9.25
-18.29
-28.27
-39.25
-50.94
-62.56
-72.82
-80.19
-83.26
-81.28
-74.41
-63.71
-50.80
-37.32
-24.41
-12.65
-2.10
7.33
15.66
22.71
28.38
32.83
36.64
40.76
46.14
53.34
62.24
72.06
81.67
89.95
96.20
100.22
102.22
102.58
101.57
99.31
95.83
91.18
85.51
79.09
72.21
65.07
57.83
50.55
43.28
36.05
28.93
21.95
15.11
8.45
2.03
-4.05
-9.63
-14.64
-19.07
-23.08
-27.00
-31.22
-36.09
-41.89
-48.77
-56.82
-66.12
-76.55
-87.62
-98.20
-106.56
-110.76
-109.33
-101.91
-89.51
-74.21
-58.34
-43.73
-31.20
-20.76
-12.06
-4.91
0.51
3.95
5.50
5.81
5.93
6.86
9.10
12.44
16.17
19.49
21.90
23.39
24.26
24.90
25.53
26.18
26.83
27.51
28.36
29.53
31.03
32.65
34.00
34.68
34.31
32.64
29.46
24.62
18.07
9.98
0.82
-8.64
-17.50
-25.03
-30.86
-35.13
-38.36
-41.36
-44.89
-49.44
-55.00
-60.89
-65.90
-68.59
-67.80
-63.10
-54.95
-44.57
-33.38
-22.62
-13.03
-4.86
1.87
7.18
11.01
13.31
14.11
13.71
12.58
11.26
10.14
9.39
8.90
8.43
7.77
6.85
5.81
4.89
4.31
4.04
3.82
3.24
1.85
-0.52
-3.75
-7.36
-10.70
-13.19
-14.51
-14.77
-14.44
-14.14
-14.41
-15.45
-17.10
-18.97
-20.64
-21.85
-22.55
-22.89
-23.09
-23.38
-24.09
-25.52
-27.84
-30.90
-34.02
-36.03
-35.64
-31.88
-24.62
-14.66
-3.55
7.02
15.71
21.97
26.01
28.49
30.09
31.28
32.12
32.52
32.38
31.88
31.43
31.61
32.82
35.08
38.00
40.90
43.12
44.31
44.47
43.89
42.85
41.47
39.60
37.00
33.56
29.48
25.29
21.66
19.10
17.74
17.25
16.96
16.15
14.29
11.17
6.95
2.06
-3.03
-7.88
-12.21
-15.90
-19.00
-21.69
-24.31
-27.30
-31.14
-36.18
-42.35
-49.00
-54.91
-58.60
-58.75
-54.80
-47.16
-37.10
-26.30
-16.28
-7.96
-1.52
3.40
7.32
10.64
13.48
15.79
17.49
18.69
19.63
20.67
22.04
23.79
25.68
27.42
28.74
29.52
29.85
29.88
29.70
29.29
28.54
27.33
25.61
23.46
20.99
18.36
15.76
13.36
11.35
9.77
8.53
7.36
5.87
3.73
0.79
-2.82
-6.83
-10.90
-14.79
-18.42
-21.84
-25.15
-28.52
-32.11
-36.16
-40.95
-46.59
-52.81
-58.84
-63.42
-65.17
-63.03
-56.74
-47.01
-35.30
-23.32
-12.53
-3.73
2.93
7.78
11.27
13.73
15.33
16.14
16.33
16.17
16.09
16.47
17.51
19.13
21.00
22.71
23.94
24.61
24.83
24.79
24.65
24.42
23.94
23.02
21.51
19.41
16.88
14.19
11.61
9.35
7.46
5.84
4.21
2.30
-0.10
-3.00
-6.26
-9.66
-13.02
-16.24
-19.31
-22.32
-25.42
-28.78
-32.64
-37.21
-42.51
-48.21
-53.51
-57.23
-58.09
-55.19
-48.41
-38.48
-26.85
-15.18
-4.82
3.44
9.51
13.73
16.58
18.43
19.48
19.82
19.62
19.14
18.77
18.86
19.60
20.95
22.64
24.28
25.60
26.48
27.01
27.32
27.46
27.25
26.43
24.77
22.25
19.13
15.84
12.78
10.21
8.10
6.26
4.43
2.40
0.11
-2.38
-4.90
-7.28
-9.28
-10.80
-11.84
-12.60
-13.52
-15.11
-17.88
-22.10
-27.57
-33.54
-38.80
-41.99
-41.97
-38.31
-31.42
-22.43
-12.82
-3.93
3.40
8.91
12.84
15.54
17.31
18.24
18.34
17.63
16.31
14.72
13.26
12.28
11.91
12.08
12.58
13.19
13.74
14.11
14.21
13.93
13.14
11.74
9.72
7.23
4.51
1.79
-0.78
-3.25
-5.80
-8.65
-11.87
-15.37
-18.97
-22.43
-25.67
-28.78
-32.01
-35.68
-40.10
-45.39
-51.45
-57.78
-63.54
-67.58
-68.79
-66.36
-60.20
-51.00
-40.05
-28.82
-18.54
-9.88
-3.00
2.29
6.23
8.98
10.64
11.41
11.60
11.69
12.13
13.16
14.79
16.75
18.71
20.41
21.69
22.52
22.89
22.73
21.96
20.49
18.37
15.71
12.71
9.57
6.40
3.26
0.14
-2.99
-6.10
-9.09
-11.86
-14.36
-16.58
-18.69
-20.93
-23.64
-27.15
-31.71
-37.42
-44.05
-50.96
-57.04
-60.95
-61.47
-57.88
-50.35
-39.84
-27.89
-16.06
-5.51
3.26
10.29
15.98
20.72
24.74
28.08
30.70
32.61
34.05
35.40
37.07
39.34
42.22
45.47
48.73
51.69
54.26
56.44
58.27
59.75
60.70
60.97
60.51
59.44
58.05
56.70
55.64
54.96
54.56
54.13
53.36
51.94
49.78
47.01
44.02
41.30
39.28
38.13
37.64
37.27
36.33
34.35
31.34
27.95
25.51
25.50
29.18
36.97
48.20
61.36
74.38
85.33
92.76
95.94
94.78
89.70
81.56
71.54
61.15
51.94
45.34
42.33
43.31
48.07
55.97
65.98
76.75
86.75
94.30
97.78
95.86
87.75
73.29
52.97
27.76
-1.09
-32.34
-64.95
-98.19
-131.54
-164.47
-196.26
-225.85
-251.90
-272.98
-287.90
-295.91
-296.98
-291.77
-281.71
-268.65
-254.62
-241.43
-230.24
-221.49
-214.78
-209.03
-202.71
-194.29
-182.56
-167.12
-148.52
-128.10
-107.43
-87.65
-68.93
-50.61
-31.61
-11.22
10.35
31.93
51.87
68.75
81.83
91.27
97.80
102.35
105.66
108.15
109.94
111.04
111.41
111.03
109.83
107.66
104.31
99.59
93.50
86.29
78.51
70.88
64.09
58.61
54.60
51.96
50.44
49.83
49.98
50.84
52.36
54.36
56.57
58.62
60.04
60.23
58.53
54.23
46.91
36.71
24.58
12.23
1.71
-5.22
-7.66
-5.91
-1.31
4.22
8.75
10.87
9.92
5.96
-0.45
-8.58
-17.81
-27.74
-38.09
-48.61
-58.89
-68.31
-76.14
-81.62
-84.23
-83.75
-80.26
-74.16
-66.07
-56.89
-47.67
-39.59
-33.60
-30.22
-29.30
-30.08
-31.47
-32.41
-32.29
-31.11
-29.42
-28.07
-27.81
-29.09
-31.77
-35.19
-38.34
-40.27
-40.50
-39.37
-37.91
-37.44
-38.80
-41.73
-44.80
-45.99
-43.55
-36.84
-26.66
-14.75
-3.09
6.95
14.91
21.09
26.00
29.93
32.77
34.23
34.25
33.22
31.93
31.26
31.72
33.20
35.06
36.53
37.09
36.75
36.00
35.43
35.39
35.79
36.16
35.89
34.59
32.28
29.39
26.57
24.42
23.24
22.96
23.18
23.40
23.13
22.13
20.37
17.96
15.00
11.44
7.04
1.39
-5.93
-15.21
-26.38
-38.82
-51.35
-62.34
-69.99
-72.85
-70.23
-62.56
-51.33
-38.66
-26.66
-16.72
-9.14
-3.31
1.75
6.82
12.01
16.87
20.76
23.33
24.80
25.85
27.15
29.04
31.25
33.10
33.86
33.15
31.18
28.58
26.19
24.59
23.90
23.83
23.83
23.54
22.95
22.49
22.70
23.94
26.05
28.33
29.77
29.47
27.00
22.54
16.79
10.63
4.76
-0.49
-5.17
-9.65
-14.34
-19.60
-25.71
-32.75
-40.57
-48.56
-55.61
-60.23
-60.89
-56.60
-47.30
-34.05
-18.63
-3.05
11.17
23.30
33.41
41.99
49.59
56.45
62.58
67.87
72.31
76.13
79.74
83.51
87.57
91.75
95.57
98.48
100.03
100.02
98.48
95.53
91.26
85.64
78.59
70.05
60.10
49.04
37.29
25.42
13.96
3.36
-6.14
-14.56
-22.17
-29.39
-36.60
-43.88
-50.95
-57.21
-61.98
-64.81
-65.72
-65.23
-64.15
-63.33
-63.37
-64.48
-66.40
-68.46
-69.63
-68.66
-64.35
-55.87
-43.12
-26.82
-8.43
10.27
27.71
42.95
55.76
66.47
75.57
83.47
90.34
96.16
100.88
104.55
107.38
109.63
111.55
113.24
114.59
115.25
114.74
112.58
108.51
102.61
95.36
87.45
79.51
71.88
64.45
56.88
48.78
39.95
30.45
20.39
9.79
-1.66
-14.47
-29.11
-45.65
-63.53
-81.73
-99.04
-114.53
-127.79
-138.99
-148.56
-156.84
-163.87
-169.39
-172.98
-174.27
-172.92
-168.54
-160.70
-149.00
-133.33
-114.25
-93.08
-71.61
-51.60
-34.19
-19.67
-7.54
2.96
12.45
21.07
28.69
35.13
40.51
45.25
49.89
54.80
59.99
65.11
69.70
73.32
75.70
76.76
76.53
75.06
72.50
69.10
65.19
61.10
57.02
52.94
48.68
44.03
38.90
33.39
27.74
22.27
17.23
12.76
8.88
5.53
2.61
-0.09
-2.93
-6.41
-10.97
-16.73
-23.18
-29.11
-33.00
-33.51
-30.14
-23.43
-14.75
-5.75
2.35
8.95
14.07
17.95
20.70
22.18
22.17
20.59
17.65
13.81
9.53
5.08
0.51
-4.28
-9.34
-14.54
-19.60
-24.24
-28.44
-32.49
-36.95
-42.33
-48.82
-56.11
-63.44
-69.91
-74.86
-78.13
-80.07
-81.38
-82.73
-84.48
-86.53
-88.43
-89.60
-89.63
-88.41
-86.29
-83.97
-82.35
-82.24
-84.02
-87.30
-90.82
-92.59
-90.47
-82.81
-69.11
-50.16
-27.87
-4.55
17.74
37.57
54.30
67.77
78.02
85.16
89.39
91.14
91.11
90.19
89.20
88.55
88.20
87.64
86.19
83.29
78.80
73.01
66.47
59.78
53.29
47.04
40.83
34.44
27.82
21.19
14.94
9.44
4.88
1.18
-1.92
-4.66
-7.21
-9.51
-11.35
-12.46
-12.70
-12.14
-11.08
-10.05
-9.63
-10.41
-12.79
-16.88
-22.27
-28.09
-32.98
-35.55
-34.70
-30.16
-22.60
-13.53
-4.79
2.12
6.54
8.81
9.89
10.85
12.29
14.17
15.95
17.05
17.21
16.59
15.61
14.56
13.39
11.67
8.84
4.60
-0.88
-6.96
-12.76
-17.54
-20.92
-22.98
-24.13
-24.89
-25.70
-26.79
-28.13
-29.51
-30.58
-31.03
-30.75
-29.86
-28.80
-28.16
-28.48
-29.95
-32.35
-35.14
-37.71
-39.72
-41.26
-42.73
-44.62
-47.25
-50.61
-54.51
-58.67
-62.79
-66.41
-68.81
-69.01
-65.97
-59.05
-48.36
-34.88
-20.15
-5.75
7.18
18.26
27.73
36.08
43.70
50.64
56.71
61.64
65.37
68.12
70.36
72.59
75.15
78.10
81.24
84.30
86.97
89.06
90.42
90.92
90.38
88.62
85.58
81.41
76.50
71.37
66.53
62.22
58.40
54.78
51.01
46.79
42.05
36.93
31.59
26.13
20.49
14.53
8.08
1.19
-5.82
-12.46
-18.20
-22.81
-26.54
-30.16
-34.74
-41.28
-50.34
-61.84
-74.99
-88.41
-100.36
-108.93
-112.39
-109.59
-100.35
-85.75
-67.96
-49.69
-33.42
-20.68
-11.72
-5.75
-1.50
2.17
5.86
9.68
13.47
17.07
20.50
23.95
27.67
31.87
36.65
42.07
48.17
54.98
62.47
70.47
78.53
85.90
91.63
94.84
94.93
91.86
86.29
79.50
73.15
68.77
67.30
68.71
72.04
75.68
78.10
78.39
76.57
73.41
69.94
66.91
64.46
62.18
59.33
55.13
48.88
39.95
27.85
12.51
-5.46
-24.54
-42.56
-57.39
-67.72
-73.62
-76.47
-78.27
-80.73
-84.63
-89.66
-94.88
-99.37
-102.73
-105.15
-107.10
-109.00
-110.90
-112.56
-113.66
-114.05
-113.76
-112.93
-111.56
-109.45
-106.25
-101.68
-95.68
-88.47
-80.41
-71.86
-62.96
-53.62
-43.75
-33.40
-22.84
-12.58
-3.09
5.29
12.44
18.33
22.85
25.76
26.77
25.75
22.94
18.98
14.67
10.67
7.21
4.08
0.80
-3.11
-7.95
-13.82
-20.75
-28.62
-37.04
-45.16
-51.67
-55.01
-53.94
-47.96
-37.59
-24.12
-9.27
5.44
18.97
30.75
40.62
48.53
54.56
58.90
61.99
64.40
66.78
69.56
72.86
76.46
79.93
82.78
84.60
85.13
84.26
82.03
78.69
74.60
70.20
65.82
61.55
57.18
52.33
46.70
40.27
33.34
26.41
19.88
13.86
8.13
2.31
-3.89
-10.50
-17.25
-23.68
-29.46
-34.53
-39.19
-43.91
-49.12
-54.97
-61.32
-67.84
-74.15
-79.95
-84.87
-88.26
-89.13
-86.28
-78.80
-66.57
-50.51
-32.43
-14.40
1.97
15.96
27.79
38.20
47.77
56.62
64.36
70.39
74.37
76.54
77.61
78.50
79.90
82.03
84.65
87.18
89.07
89.97
89.77
88.53
86.35
83.21
79.03
73.55
66.51
57.61
46.77
34.14
20.26
5.96
-7.84
-20.41
-31.52
-41.48
-51.06
-61.08
-72.09
-84.06
-96.39
-108.13
-118.31
-126.26
-131.83
-135.37
-137.61
-139.47
-141.75
-144.82
-148.39
-151.33
-151.95
-148.37
-139.28
-124.40
-104.76
-82.40
-59.76
-39.02
-21.61
-8.03
1.96
8.98
13.80
17.15
19.67
21.90
24.31
27.19
30.65
34.55
38.63
42.52
45.91
48.63
50.67
52.14
53.15
53.73
53.79
53.07
51.35
48.53
44.77
40.53
36.33
32.61
29.48
26.74
23.92
20.61
16.59
11.96
7.08
2.41
-1.75
-5.32
-8.52
-11.77
-15.61
-20.51
-26.70
-34.00
-41.66
-48.39
-52.66
-53.04
-48.81
-40.22
-28.46
-15.34
-2.58
8.58
17.70
25.00
30.94
35.90
39.99
43.13
45.25
46.51
47.35
48.35
49.98
52.48
55.77
59.54
63.43
67.17
70.69
74.06
77.35
80.53
83.33
85.37
86.30
86.01
84.74
83.00
81.31
79.97
78.91
77.69
75.78
72.74
68.48
63.16
57.19
50.99
44.90
39.10
33.57
28.05
22.06
14.94
6.13
-4.46
-16.23
-27.78
-37.20
-42.74
-43.40
-39.37
-31.98
-23.19
-14.89
-8.25
-3.55
-0.35
2.02
3.96
5.35
5.62
4.02
0.06
-6.17
-13.91
-21.96
-29.00
-34.11
-36.91
-37.66
-37.14
-36.34
-36.30
-37.88
-41.70
-47.95
-56.36
-66.11
-76.04
-84.82
-91.34
-94.99
-95.93
-94.96
-93.22
-91.53
-89.70
-86.31
-79.07
-65.86
-45.86
-20.23
8.15
35.76
59.72
78.69
92.87
103.27
110.79
115.80
118.16
117.72
114.76
109.97
104.16
97.92
91.45
84.69
77.58
70.30
63.34
57.36
52.83
49.82
47.81
45.80
42.61
37.28
29.50
19.77
9.34
-0.21
-7.43
-11.46
-12.30
-10.72
-8.03
-5.67
-4.88
-6.42
-10.41
-16.11
-21.89
-25.28
-23.40
-13.79
4.68
31.03
62.06
93.04
118.94
135.72
141.20
135.35
119.84
97.41
71.18
44.22
19.27
-1.54
-16.94
-26.88
-32.66
-36.80
-42.42
-52.38
-68.40
-90.52
-117.09
-145.41
-172.59
-196.37
-215.56
-229.92
-239.68
-245.16
-246.55
-244.00
-237.82
-228.61
-217.14
-204.12
-190.00
-174.92
-158.85
-141.82
-124.01
-105.90
-88.07
-71.12
-55.51
-41.47
-29.07
-18.23
-8.90
-1.13
4.89
8.96
11.00
11.25
10.26
8.81
7.60
7.03
7.04
7.14
6.69
5.07
1.95
-2.76
-8.84
-15.89
-23.24
-29.96
-34.90
-36.89
-35.07
-29.21
-19.83
-8.11
4.49
16.62
27.32
36.15
43.04
48.12
51.58
53.56
54.28
54.10
53.52
53.13
53.41
54.55
56.41
58.56
60.50
61.84
62.39
62.15
61.12
59.28
56.56
52.95
48.65
43.99
39.34
34.92
30.73
26.53
22.06
17.26
12.31
7.60
3.52
0.29
-2.17
-4.28
-6.66
-9.96
-14.68
-20.90
-28.09
-35.10
-40.29
-42.01
-39.05
-31.13
-18.99
-4.11
11.78
27.27
41.53
54.36
65.88
76.26
85.55
93.74
100.80
106.90
112.34
117.48
122.62
128.00
133.80
140.13
147.09
154.64
162.40
169.56
174.80
176.60
173.59
164.95
150.64
131.39
108.43
83.06
56.39
29.18
1.94
-24.88
-50.80
-75.20
-97.46
-117.05
-133.59
-146.97
-157.28
-164.86
-170.27
-174.29
-177.88
-182.00
-187.36
-194.09
-201.53
-208.33
-212.84
-213.71
-210.44
-203.49
-193.91
-182.82
-170.85
-158.01
-143.98
-128.57
-112.10
-95.49
-79.89
-66.31
-55.25
-46.50
-39.38
-32.99
-26.54
-19.58
-12.13
-4.61
2.47
8.57
13.39
16.80
18.67
18.86
17.14
13.43
8.01
1.55
-4.96
-10.69
-15.27
-19.04
-22.84
-27.61
-33.93
-41.78
-50.67
-59.93
-69.11
-78.21
-87.48
-97.15
-106.97
-115.89
-122.17
-123.82
-119.28
-108.04
-91.00
-70.20
-48.17
-27.08
-8.10
8.68
23.87
38.13
51.60
63.72
73.46
79.84
82.43
81.71
79.10
76.67
76.59
80.51
89.05
101.65
116.64
131.56
143.48
149.42
146.91
134.57
112.76
83.76
51.27
19.44
-8.45
-30.76
-47.70
-60.63
-71.20
-80.56
-89.17
-97.00
-103.87
-109.78
-114.96
-119.75
-124.48
-129.44
-134.71
-140.11
-145.08
-148.68
-149.70
-146.95
-139.54
-127.17
-110.27
-89.87
-67.42
-44.49
-22.38
-2.05
15.94
31.38
44.24
54.72
63.17
70.05
75.91
81.17
86.09
90.69
94.87
98.54
101.63
104.13
105.91
106.69
106.15
103.99
100.19
95.05
89.16
83.14
77.46
72.26
67.34
62.31
56.79
50.57
43.73
36.54
29.37
22.47
15.91
9.57
3.07
-4.08
-12.31
-21.91
-32.75
-44.15
-54.84
-63.12
-67.29
-66.09
-59.15
-47.12
-31.51
-14.23
2.89
18.51
31.98
43.17
52.34
59.79
65.81
70.55
74.18
77.00
79.42
81.91
84.74
87.89
90.98
93.46
94.90
95.22
94.69
93.79
92.85
91.85
90.46
88.19
84.76
80.25
75.19
70.20
65.83
62.21
59.04
55.74
51.73
46.70
40.71
34.18
27.64
21.54
15.99
10.72
5.16
-1.38
-9.51
-19.42
-30.81
-42.75
-53.80
-62.20
-66.28
-64.90
-57.90
-46.19
-31.54
-16.05
-1.49
11.18
21.79
30.76
38.52
45.20
50.57
54.36
56.54
57.59
58.28
59.36
61.25
63.86
66.74
69.39
71.42
72.73
73.35
73.34
72.67
71.17
68.71
65.24
60.87
55.93
50.78
45.76
41.07
36.65
32.33
27.87
23.10
18.03
12.87
7.85
3.16
-1.21
-5.50
-10.17
-15.79
-22.83
-31.47
-41.35
-51.50
-60.40
-66.36
-67.97
-64.52
-56.25
-44.30
-30.33
-16.06
-2.82
8.69
18.27
26.04
32.15
36.75
39.95
41.93
43.08
43.87
44.76
46.07
47.83
49.84
51.79
53.38
54.42
54.85
54.63
53.73
52.06
49.52
46.08
41.89
37.20
32.40
27.82
23.56
19.48
15.26
10.59
5.37
-0.16
-5.59
-10.49
-14.68
-18.33
-21.92
-26.13
-31.58
-38.66
-47.36
-57.17
-66.97
-75.23
-80.29
-80.79
-76.19
-66.92
-54.30
-40.09
-26.00
-13.24
-2.33
6.72
14.17
20.33
25.32
29.20
31.99
33.83
35.03
35.98
37.01
38.30
39.77
41.23
42.46
43.35
43.85
43.97
43.61
42.53
40.47
37.27
32.98
27.92
22.53
17.26
12.39
7.98
3.85
-0.30
-4.81
-9.87
-15.43
-21.15
-26.51
-31.05
-34.59
-37.40
-40.11
-43.55
-48.37
-54.79
-62.35
-70.03
-76.37
-79.90
-79.53
-74.83
-66.24
-54.81
-42.00
-29.22
-17.53
-7.48
0.77
7.34
12.46
16.35
19.22
21.30
22.85
24.13
25.36
26.68
28.08
29.45
30.63
31.46
31.87
31.89
31.56
30.88
29.73
27.94
25.34
21.91
17.87
13.67
9.77
6.54
4.00
1.86
-0.40
-3.27
-7.00
-11.48
-16.26
-20.83
-24.83
-28.23
-31.35
-34.77
-39.14
-44.88
-52.09
-60.38
-68.83
-76.16
-80.92
-81.90
-78.47
-70.81
-59.90
-47.21
-34.28
-22.28
-11.84
-3.08
4.22
10.27
15.21
19.04
21.78
23.55
24.70
25.68
26.89
28.54
30.55
32.60
34.29
35.32
35.63
35.32
34.60
33.62
32.35
30.64
28.29
25.22
21.58
17.71
14.06
10.99
8.59
6.66
4.71
2.27
-0.95
-4.88
-9.16
-13.33
-17.07
-20.32
-23.33
-26.49
-30.23
-34.91
-40.72
-47.64
-55.27
-62.77
-68.92
-72.38
-72.08
-67.59
-59.34
-48.46
-36.40
-24.52
-13.70
-4.33
3.61
10.27
15.74
19.99
22.94
24.67
25.45
25.81
26.27
27.26
28.89
30.90
32.87
34.33
35.04
35.05
34.56
33.76
32.63
30.98
28.57
25.31
21.44
17.40
13.68
10.59
8.10
5.89
3.53
0.72
-2.58
-6.18
-9.79
-13.21
-16.43
-19.67
-23.31
-27.75
-33.29
-39.96
-47.47
-55.06
-61.63
-65.92
-66.86
-63.84
-56.97
-47.05
-35.38
-23.36
-12.14
-2.43
5.55
11.87
16.68
20.11
22.26
23.35
23.73
23.93
24.48
25.72
27.67
30.04
32.43
34.45
35.93
36.85
37.24
37.11
36.31
34.67
32.13
28.82
25.06
21.28
17.83
14.84
12.21
9.64
6.82
3.53
-0.21
-4.28
-8.46
-12.63
-16.79
-21.10
-25.77
-31.01
-36.99
-43.82
-51.47
-59.61
-67.45
-73.82
-77.28
-76.67
-71.52
-62.32
-50.45
-37.71
-25.65
-15.23
-6.60
0.59
6.84
12.43
17.29
21.19
24.00
25.87
27.28
28.79
30.77
33.24
35.85
38.08
39.50
39.95
39.54
38.57
37.28
35.82
34.13
32.07
29.51
26.42
22.93
19.23
15.61
12.33
9.48
7.02
4.75
2.36
-0.41
-3.76
-7.72
-12.18
-16.89
-21.60
-26.07
-30.22
-34.13
-38.05
-42.39
-47.56
-53.83
-61.12
-68.88
-76.07
-81.28
-83.14
-80.71
-73.81
-63.17
-50.26
-36.76
-24.10
-13.06
-3.75
4.19
11.17
17.38
22.72
26.97
30.07
32.20
33.84
35.52
37.59
40.10
42.82
45.37
47.42
48.77
49.38
49.32
48.65
47.43
45.67
43.38
40.65
37.58
34.31
30.97
27.65
24.38
21.16
17.97
14.76
11.56
8.39
5.22
2.00
-1.41
-5.18
-9.40
-14.05
-18.94
-23.83
-28.49
-32.85
-37.02
-41.26
-45.96
-51.43
-57.85
-65.05
-72.35
-78.61
-82.41
-82.42
-77.93
-69.16
-57.20
-43.77
-30.59
-18.87
-9.12
-1.13
5.70
11.93
17.81
23.21
27.80
31.28
33.64
35.18
36.36
37.62
39.16
40.88
42.55
43.89
44.80
45.28
45.37
45.08
44.29
42.88
40.75
38.00
34.80
31.42
28.08
24.94
22.05
19.42
16.96
14.57
12.14
9.52
6.60
3.26
-0.53
-4.79
-9.41
-14.19
-18.92
-23.39
-27.55
-31.54
-35.68
-40.39
-46.04
-52.76
-60.26
-67.75
-74.00
-77.59
-77.29
-72.52
-63.59
-51.67
-38.51
-25.81
-14.75
-5.81
1.20
6.71
11.12
14.54
16.96
18.40
19.09
19.50
20.16
21.43
23.36
25.67
27.94
29.78
31.00
31.66
31.95
32.06
32.01
31.71
30.94
29.51
27.39
24.73
21.84
19.08
16.72
14.85
13.28
11.64
9.48
6.46
2.46
-2.28
-7.33
-12.14
-16.34
-19.81
-22.81
-25.84
-29.51
-34.34
-40.57
-48.04
-56.10
-63.65
-69.34
-71.83
-70.15
-64.01
-54.00
-41.38
-27.81
-14.84
-3.53
5.70
12.96
18.61
22.97
26.18
28.24
29.22
29.37
29.16
29.14
29.70
30.91
32.55
34.18
35.44
36.17
36.44
36.41
36.18
35.67
34.61
32.71
29.83
26.05
21.71
17.29
13.22
9.72
6.75
4.06
1.27
-1.94
-5.75
-10.11
-14.76
-19.38
-23.67
-27.50
-31.03
-34.60
-38.74
-43.91
-50.39
-58.05
-66.26
-73.86
-79.38
-81.34
-78.75
-71.44
-60.16
-46.40
-31.95
-18.37
-6.70
2.76
10.20
16.06
20.71
24.37
27.12
29.06
30.44
31.66
33.15
35.19
37.79
40.64
43.29
45.36
46.68
47.29
47.35
46.94
46.01
44.34
41.72
38.10
33.69
28.90
24.19
19.88
16.04
12.44
8.68
4.40
-0.58
-6.16
-12.00
-17.67
-22.84
-27.44
-31.70
-36.05
-41.01
-47.03
-54.33
-62.77
-71.73
-80.14
-86.57
-89.59
-88.13
-81.90
-71.48
-58.26
-43.99
-30.30
-18.22
-8.08
0.36
7.59
13.95
19.52
24.18
27.80
30.46
32.48
34.28
36.20
38.35
40.59
42.70
44.55
46.15
47.57
48.81
49.68
49.87
49.08
47.13
44.13
40.39
36.37
32.45
28.87
25.70
22.82
20.00
17.03
13.77
10.22
6.46
2.71
-0.90
-4.31
-7.64
-11.20
-15.40
-20.59
-26.74
-33.27
-39.05
-42.84
-43.80
-42.01
-38.54
-35.12
-33.50
-34.77
-39.13
-45.92
-53.95
-61.84
-68.16
-71.57
-71.00
-65.86
-56.34
-43.45
-28.82
-14.20
-0.92
10.34
19.50
26.84
32.68
37.31
40.95
43.95
46.82
50.08
54.08
58.81
63.91
68.84
73.21
76.94
80.31
83.72
87.41
91.31
94.99
97.97
99.88
100.73
100.89
100.94
101.61
103.64
107.77
114.52
123.74
134.07
142.74
145.98
140.29
123.91
97.82
65.56
31.97
1.35
-23.78
-42.93
-56.85
-66.47
-72.39
-75.04
-75.27
-74.69
-75.27
-78.50
-84.57
-92.39
-100.22
-106.78
-112.01
-117.05
-123.64
-133.21
-146.29
-162.37
-180.29
-198.61
-216.00
-231.39
-244.16
-254.12
-261.46
-266.54
-269.48
-269.72
-265.80
-255.69
-237.43
-209.89
-173.54
-130.40
-83.71
-37.19
5.80
42.73
72.20
93.88
108.31
116.56
119.92
119.66
116.78
112.01
105.76
98.28
89.83
80.86
72.14
64.71
59.65
57.75
59.20
63.53
69.68
76.38
82.48
87.19
90.18
91.48
91.32
90.04
87.98
85.48
82.88
80.48
78.57
77.28
76.52
76.00
75.31
74.00
71.77
68.50
64.26
59.24
53.63
47.63
41.40
35.12
29.00
23.22
17.91
13.06
8.58
4.31
0.12
-4.08
-8.28
-12.42
-16.47
-20.50
-24.66
-29.27
-34.66
-41.07
-48.48
-56.40
-63.90
-69.71
-72.57
-71.57
-66.50
-57.88
-46.79
-34.56
-22.34
-10.91
-0.60
8.56
16.60
23.51
29.13
33.28
35.91
37.23
37.76
38.16
39.01
40.54
42.58
44.66
46.26
47.07
47.09
46.53
45.61
44.35
42.59
40.11
36.87
33.09
29.26
25.82
23.00
20.67
18.37
15.60
12.03
7.65
2.75
-2.23
-6.95
-11.28
-15.31
-19.32
-23.71
-28.80
-34.82
-41.76
-49.26
-56.61
-62.77
-66.55
-66.97
-63.51
-56.34
-46.26
-34.49
-22.28
-10.67
-0.31
8.55
15.92
21.93
26.74
30.45
33.19
35.10
36.42
37.45
38.50
39.81
41.40
43.12
44.60
45.54
45.79
45.38
44.51
43.37
42.00
40.29
38.00
35.00
31.33
27.27
23.26
19.70
16.79
14.44
12.30
9.90
6.85
3.02
-1.42
-6.07
-10.51
-14.45
-17.90
-21.12
-24.50
-28.47
-33.27
-39.03
-45.58
-52.48
-58.93
-63.89
-66.23
-65.04
-59.99
-51.46
-40.52
-28.63
-17.11
-6.88
1.76
8.96
15.01
20.09
24.12
26.97
28.58
29.26
29.56
30.14
31.46
33.55
36.05
38.35
39.87
40.33
39.75
38.41
36.63
34.65
32.53
30.20
27.57
24.61
21.39
18.15
15.08
12.38
10.06
7.99
5.92
3.57
0.74
-2.65
-6.50
-10.61
-14.72
-18.65
-22.34
-25.86
-29.40
-33.15
-37.36
-42.23
-47.90
-54.29
-60.95
-67.06
-71.46
-72.98
-70.76
-64.67
-55.35
-44.08
-32.33
-21.32
-11.71
-3.61
3.25
9.19
14.38
18.79
22.29
24.83
26.56
27.79
28.88
30.11
31.53
32.99
34.26
35.15
35.56
35.58
35.33
34.92
34.36
33.54
32.28
30.47
28.14
25.54
23.01
20.89
19.29
18.03
16.74
15.00
12.62
9.63
6.35
3.17
0.33
-2.18
-4.61
-7.35
-10.71
-14.75
-19.26
-23.79
-27.89
-31.31
-34.11
-36.71
-39.70
-43.67
-48.90
-55.27
-62.15
-68.59
-73.38
-75.42
-73.94
-68.80
-60.50
-50.11
-38.95
-28.22
-18.68
-10.57
-3.67
2.36
7.82
12.80
17.20
20.86
23.75
25.96
27.73
29.35
31.00
32.70
34.33
35.69
36.63
37.12
37.21
37.05
36.71
36.17
35.30
33.92
31.91
29.37
26.55
23.80
21.47
19.74
18.47
17.35
15.96
13.97
11.31
8.17
4.96
2.04
-0.41
-2.50
-4.56
-7.01
-10.15
-14.03
-18.43
-22.93
-27.08
-30.55
-33.25
-35.39
-37.42
-39.90
-43.39
-48.13
-54.00
-60.34
-66.06
-69.81
-70.38
-67.08
-59.96
-49.91
-38.32
-26.69
-16.19
-7.40
-0.27
5.57
10.57
14.99
18.90
22.23
24.94
27.07
28.77
30.24
31.61
32.98
34.35
35.66
36.80
37.70
38.34
38.73
38.90
38.81
38.31
37.18
35.25
32.54
29.28
25.84
22.65
19.93
17.66
15.58
13.36
10.79
7.85
4.75
1.77
-0.97
-3.53
-6.17
-9.16
-12.61
-16.41
-20.25
-23.80
-26.94
-29.80
-32.70
-36.01
-40.00
-44.71
-49.96
-55.32
-60.10
-63.43
-64.37
-62.14
-56.43
-47.62
-36.74
-25.16
-14.24
-4.88
2.58
8.31
12.70
16.11
18.74
20.64
21.89
22.58
22.97
23.39
24.12
25.32
26.95
28.82
30.64
32.17
33.23
33.78
33.80
33.31
32.26
30.63
28.41
25.67
22.54
19.19
15.81
12.50
9.38
6.50
3.91
1.58
-0.56
-2.60
-4.75
-7.14
-9.92
-13.12
-16.70
-20.51
-24.37
-28.13
-31.72
-35.30
-39.14
-43.61
-49.02
-55.35
-62.16
-68.46
-72.91
-74.21
-71.48
-64.65
-54.51
-42.51
-30.26
-19.10
-9.73
-2.24
3.75
8.65
12.77
16.15
18.76
20.64
22.03
23.33
24.90
26.97
29.48
32.16
34.69
36.77
38.27
39.18
39.53
39.39
38.77
37.70
36.23
34.36
32.07
29.33
26.12
22.54
18.81
15.29
12.25
9.77
7.67
5.52
2.90
-0.45
-4.45
-8.77
-13.01
-16.88
-20.36
-23.69
-27.26
-31.45
-36.55
-42.63
-49.57
-56.91
-63.88
-69.39
-72.21
-71.37
-66.43
-57.73
-46.32
-33.65
-21.18
-9.98
-0.59
6.98
13.01
17.81
21.60
24.44
26.37
27.52
28.16
28.72
29.62
31.10
33.18
35.65
38.16
40.40
42.20
43.53
44.41
44.81
44.59
43.55
41.56
38.63
35.00
31.07
27.31
24.06
21.39
19.06
16.60
13.46
9.26
3.98
-2.02
-8.12
-13.76
-18.56
-22.52
-25.99
-29.53
-33.68
-38.85
-45.17
-52.43
-60.03
-67.01
-72.15
-74.23
-72.35
-66.27
-56.49
-44.22
-31.00
-18.30
-7.15
1.98
9.12
14.54
18.53
21.28
22.92
23.65
23.78
23.85
24.33
25.53
27.45
29.80
32.14
34.11
35.50
36.30
36.61
36.44
35.74
34.34
32.07
28.96
25.20
21.13
17.13
13.43
10.03
6.76
3.42
-0.09
-3.76
-7.45
-11.02
-14.49
-18.03
-21.93
-26.51
-32.03
-38.56
-45.91
-53.50
-60.37
-65.26
-66.94
-64.57
-58.04
-48.07
-36.01
-23.43
-11.69
-1.64
6.43
12.64
17.25
20.49
22.56
23.65
24.10
24.28
24.64
25.49
26.92
28.81
30.89
32.87
34.50
35.61
36.10
35.87
34.82
32.87
30.06
26.55
22.60
18.54
14.59
10.81
7.08
3.22
-0.90
-5.25
-9.65
-13.87
-17.76
-21.37
-24.92
-28.74
-33.17
-38.52
-44.98
-52.52
-60.76
-68.89
-75.62
-79.50
-79.32
-74.54
-65.54
-53.51
-40.10
-26.88
-14.97
-4.86
3.43
10.17
15.64
20.01
23.38
25.86
27.65
29.06
30.43
31.98
33.76
35.66
37.43
38.89
39.93
40.56
40.82
40.63
39.85
38.23
35.61
32.00
27.61
22.81
17.99
13.37
8.97
4.67
0.29
-4.25
-8.94
-13.65
-18.21
-22.48
-26.44
-30.14
-33.78
-37.67
-42.19
-47.69
-54.35
-61.85
-69.31
-75.29
-78.03
-75.99
-68.26
-54.85
-36.64
-15.08
8.31
32.26
56.01
79.29
102.21
125.17
148.75
173.59
200.19
228.57
258.00
286.76
312.22
331.24
340.90
339.29
326.08
302.64
271.53
235.56
196.93
156.77
115.48
73.46
31.76
-7.73
-42.85
-72.00
-94.76
-111.98
-125.24
-136.08
-145.39
-153.23
-159.00
-161.92
-161.29
-156.77
-148.48
-137.03
-123.43
-108.99
-95.05
-82.69
-72.54
-64.73
-58.87
-54.14
-49.46
-43.76
-36.22
-26.68
-15.78
-4.95
3.96
9.14
9.41
4.54
-4.62
-16.39
-28.45
-38.38
-44.00
-43.76
-36.99
-24.14
-6.59
13.59
34.11
53.10
69.42
82.84
93.82
103.14
111.43
119.00
125.69
131.08
134.59
135.73
134.17
129.94
123.48
115.61
107.35
99.63
92.96
87.20
81.63
75.15
66.77
55.89
42.53
27.16
10.52
-6.74
-24.16
-41.47
-58.53
-75.18
-91.25
-106.60
-121.09
-134.51
-146.40
-155.90
-161.84
-163.05
-158.88
-149.55
-136.22
-120.71
-105.02
-90.85
-79.39
-71.38
-67.11
-66.59
-69.47
-75.01
-82.07
-89.22
-95.00
-98.10
-97.58
-93.03
-84.63
-73.09
-59.54
-45.27
-31.49
-19.07
-8.43
0.45
7.90
14.35
20.24
25.90
31.56
37.32
43.08
48.52
53.04
55.81
56.03
53.25
47.73
40.57
33.49
28.19
25.71
25.91
27.53
28.57
27.11
21.71
11.74
-2.75
-21.30
-43.25
-67.82
-94.05
-120.74
-146.54
-170.14
-190.45
-206.72
-218.51
-225.61
-227.86
-225.26
-217.91
-206.24
-191.11
-173.78
-155.69
-138.20
-122.28
-108.35
-96.34
-85.93
-76.90
-69.23
-63.14
-58.88
-56.48
-55.64
-55.77
-56.18
-56.38
-56.24
-55.96
-56.06
-57.09
-59.53
-63.59
-69.14
-75.54
-81.56
-85.51
-85.60
-80.44
-69.65
-54.06
-35.45
-16.05
2.33
18.69
32.95
45.54
56.87
67.03
75.66
82.40
87.12
90.24
92.55
94.99
98.15
102.17
106.64
110.91
114.45
117.03
118.76
119.83
120.35
120.15
118.92
116.49
113.06
109.31
106.19
104.51
104.66
106.32
108.61
110.35
110.48
108.33
103.74
96.96
88.39
78.35
67.00
54.28
40.09
24.50
7.78
-9.53
-26.65
-42.56
-56.01
-65.60
-69.96
-68.14
-59.84
-45.63
-26.83
-5.19
17.59
40.26
62.10
82.78
102.01
119.31
133.96
145.36
153.37
158.55
162.02
165.01
168.39
172.29
176.24
179.52
181.55
182.22
181.83
180.82
179.65
178.60
177.85
177.52
177.66
178.23
179.10
180.04
180.72
180.80
179.77
176.94
171.42
162.20
148.44
129.74
106.25
78.69
48.14
15.87
-16.79
-48.45
-77.70
-103.12
-123.66
-138.82
-148.95
-155.13
-158.80
-161.36
-163.69
-166.04
-168.10
-169.37
-169.35
-167.77
-164.61
-160.00
-154.16
-147.24
-139.33
-130.46
-120.79
-110.66
-100.68
-91.66
-84.36
-79.31
-76.61
-75.97
-76.94
-79.00
-81.71
-84.58
-87.00
-88.24
-87.62
-84.93
-80.57
-75.53
-70.98
-67.81
-66.40
-66.66
-68.42
-71.68
-76.71
-83.74
-92.65
-102.76
-113.02
-122.40
-130.16
-136.02
-139.96
-141.92
-141.69
-138.94
-133.59
-126.06
-117.31
-108.54
-100.74
-94.28
-88.82
-83.47
-77.23
-69.41
-59.84
-48.89
-37.32
-26.06
-16.11
-8.37
-3.55
-1.91
-2.97
-5.56
-8.00
-8.66
-6.57
-1.75
4.90
11.98
18.26
23.14
26.70
29.47
31.91
34.12
35.67
35.89
34.13
30.13
24.03
16.31
7.46
-2.09
-12.07
-22.32
-32.74
-43.38
-54.52
-66.72
-80.68
-96.80
-114.98
-134.35
-153.41
-170.33
-183.30
-190.83
-191.97
-186.41
-174.76
-158.46
-139.65
-120.66
-103.25
-88.03
-74.32
-60.43
-44.48
-25.07
-1.89
24.30
51.91
79.16
104.60
127.50
147.89
166.33
183.48
199.61
214.25
226.35
234.60
238.09
236.67
231.00
222.11
210.80
197.28
181.17
162.04
140.06
116.27
92.36
70.02
50.19
32.73
16.65
0.79
-15.51
-32.12
-48.23
-62.74
-74.62
-83.01
-87.27
-86.93
-81.86
-72.45
-59.70
-45.06
-29.97
-15.54
-2.38
9.26
19.26
27.39
33.37
37.01
38.50
38.40
37.53
36.72
36.47
36.90
37.72
38.47
38.69
38.13
36.73
34.53
31.58
27.74
22.83
16.67
9.37
1.34
-6.75
-14.28
-20.87
-26.48
-31.37
-35.89
-40.36
-44.91
-49.61
-54.42
-59.31
-64.26
-69.23
-74.28
-79.60
-85.47
-92.06
-99.16
-105.87
-110.66
-111.70
-107.56
-97.79
-83.21
-65.71
-47.53
-30.51
-15.63
-3.00
7.71
16.84
24.40
30.21
34.25
37.00
39.43
42.66
47.53
54.20
62.17
70.62
78.75
86.04
92.29
97.42
101.23
103.38
103.54
101.54
97.59
92.25
86.25
80.18
74.37
68.71
62.90
56.60
49.71
42.39
34.95
27.70
20.74
13.92
6.86
-0.91
-9.84
-20.26
-32.12
-44.88
-57.32
-67.69
-74.01
-74.69
-69.00
-57.41
-41.43
-23.10
-4.46
13.00
28.42
41.58
52.56
61.53
68.68
74.16
78.20
81.15
83.44
85.51
87.60
89.70
91.57
92.89
93.51
93.48
93.05
92.40
91.49
89.88
86.87
81.89
74.73
65.83
56.13
46.77
38.59
31.85
26.15
20.72
14.79
7.97
0.39
-7.44
-14.90
-21.57
-27.36
-32.47
-37.24
-42.02
-47.00
-52.12
-56.84
-60.04
-60.06
-55.11
-43.96
-26.52
-4.19
20.43
44.36
65.04
81.08
92.22
99.02
102.23
102.40
99.85
94.88
87.99
80.01
71.93
64.65
58.73
54.27
51.05
48.69
46.94
45.83
45.60
46.48
48.38
50.66
52.20
51.69
48.19
41.51
32.34
21.99
11.87
2.93
-4.57
-11.01
-17.11
-23.41
-30.05
-36.74
-42.87
-47.91
-51.62
-54.24
-56.41
-59.00
-62.80
-68.31
-75.46
-83.58
-91.35
-97.05
-98.88
-95.38
-85.96
-71.07
-52.20
-31.47
-11.00
7.67
23.80
37.38
48.80
58.45
66.59
73.39
79.08
84.05
88.87
93.97
99.60
105.68
111.96
118.17
124.12
129.80
135.22
140.36
145.08
149.17
152.47
154.93
156.73
158.23
159.84
161.95
164.67
167.77
170.64
172.47
172.41
169.92
164.85
157.50
148.45
138.33
127.67
116.74
105.57
93.88
81.30
67.38
51.86
34.81
16.76
-1.41
-18.63
-33.97
-46.97
-57.71
-66.73
-74.79
-82.55
-90.41
-98.52
-106.92
-115.59
-124.43
-133.12
-141.03
-147.27
-151.00
-151.84
-150.07
-146.57
-142.45
-138.59
-135.30
-132.40
-129.46
-126.22
-122.70
-119.14
-115.72
-112.32
-108.53
-103.85
-97.97
-91.04
-83.64
-76.53
-70.38
-65.51
-61.85
-59.06
-56.74
-54.66
-52.77
-51.23
-50.25
-50.01
-50.68
-52.31
-54.87
-58.03
-61.14
-63.13
-62.80
-59.16
-51.82
-41.19
-28.46
-15.18
-2.87
7.46
15.37
20.91
24.32
25.91
25.84
24.30
21.54
17.93
13.93
9.88
5.96
1.99
-2.37
-7.50
-13.60
-20.48
-27.69
-34.66
-40.99
-46.59
-51.70
-56.69
-61.79
-66.97
-71.91
-76.24
-79.76
-82.56
-84.85
-86.86
-88.58
-89.76
-90.05
-89.13
-86.93
-83.56
-79.40
-74.97
-70.92
-67.93
-66.51
-66.69
-67.81
-68.56
-67.27
-62.56
-53.78
-41.28
-26.22
-10.09
5.74
20.31
33.03
43.56
51.63
57.10
60.04
60.88
60.38
59.45
58.80
58.78
59.34
60.11
60.71
60.89
60.63
60.05
59.28
58.33
57.05
55.15
52.39
48.68
44.19
39.27
34.35
29.74
25.58
21.76
18.04
14.19
10.08
5.74
1.32
-3.00
-7.15
-11.13
-15.04
-19.06
-23.46
-28.61
-34.78
-41.95
-49.48
-56.09
-60.05
-59.77
-54.41
-44.36
-31.09
-16.66
-2.97
8.79
18.33
25.94
32.04
36.84
40.26
42.20
42.73
42.30
41.60
41.30
41.84
43.27
45.32
47.53
49.42
50.64
50.96
50.34
48.87
46.83
44.56
42.49
40.99
40.34
40.60
41.70
43.46
45.68
48.22
51.00
54.02
57.32
60.91
64.75
68.84
73.13
77.58
82.12
86.71
91.42
96.54
102.57
110.07
119.29
129.84
140.54
149.74
155.82
157.82
155.78
150.59
143.45
135.32
126.57
117.08
106.65
95.43
83.96
72.93
62.76
53.42
44.47
35.49
26.53
18.22
11.62
7.70
6.94
9.05
12.98
17.10
19.47
18.08
11.37
-1.43
-19.90
-42.47
-67.02
-91.52
-114.80
-136.72
-157.89
-178.99
-200.28
-221.39
-241.62
-260.39
-277.47
-292.80
-306.15
-316.74
-323.24
-324.20
-318.66
-306.70
-289.46
-268.78
-246.46
-223.61
-200.46
-176.56
-151.42
-125.07
-98.22
-72.05
-47.59
-25.32
-4.97
14.18
32.85
51.36
69.48
86.64
102.24
115.92
127.67
137.72
146.41
154.06
160.90
167.11
172.77
177.85
182.16
185.26
186.51
185.11
180.33
171.67
159.11
143.07
124.29
103.56
81.39
57.95
33.04
6.37
-22.17
-52.31
-83.20
-113.49
-141.48
-165.38
-183.72
-195.65
-201.16
-201.04
-196.64
-189.47
-180.83
-171.55
-162.05
-152.38
-142.46
-132.13
-121.23
-109.66
-97.40
-84.53
-71.23
-57.74
-44.25
-30.92
-17.92
-5.47
6.08
16.24
24.49
30.34
33.53
34.06
32.24
28.70
24.22
19.60
15.50
12.27
10.00
8.48
7.37
6.34
5.12
3.68
2.14
0.83
0.17
0.54
2.09
4.61
7.49
9.79
10.46
8.79
4.62
-1.38
-7.82
-13.05
-15.67
-15.14
-11.95
-7.37
-2.86
0.52
2.39
3.01
2.76
1.75
-0.36
-4.05
-9.45
-16.00
-22.40
-27.11
-28.90
-27.44
-23.34
-17.81
-12.17
-7.34
-3.62
-0.88
1.13
2.44
2.77
1.74
-0.83
-4.75
-9.39
-13.96
-17.88
-20.93
-23.36
-25.62
-28.10
-30.95
-33.95
-36.71
-38.74
-39.75
-39.67
-38.71
-37.35
-36.33
-36.47
-38.44
-42.47
-48.03
-53.75
-57.72
-58.04
-53.48
-44.00
-30.75
-15.63
-0.63
12.89
24.40
34.02
42.17
49.10
54.75
58.92
61.50
62.75
63.22
63.64
64.56
66.17
68.26
70.37
72.04
72.98
73.18
72.82
72.07
70.94
69.26
66.73
63.14
58.45
52.98
47.25
41.79
37.00
32.87
29.06
25.04
20.30
14.68
8.41
2.00
-3.95
-9.14
-13.64
-17.97
-22.90
-29.14
-37.09
-46.65
-57.08
-66.96
-74.52
-77.99
-76.17
-68.81
-56.82
-41.94
-26.20
-11.30
1.79
12.81
21.97
29.58
35.76
40.47
43.65
45.48
46.38
46.95
47.76
49.13
51.08
53.38
55.68
57.73
59.33
60.40
60.90
60.76
59.94
58.42
56.22
53.41
50.14
46.57
42.91
39.39
36.22
33.54
31.33
29.33
27.13
24.28
20.42
15.49
9.70
3.50
-2.59
-8.19
-13.22
-17.91
-22.82
-28.56
-35.65
-44.19
-53.73
-63.14
-70.84
-75.13
-74.71
-69.11
-58.91
-45.57
-30.97
-16.83
-4.25
6.36
15.19
22.57
28.72
33.66
37.26
39.52
40.59
40.90
40.93
41.14
41.84
43.06
44.67
46.41
48.02
49.31
50.21
50.69
50.75
50.24
48.96
46.65
43.22
38.78
33.73
28.58
23.78
19.61
16.08
12.97
9.99
6.88
3.44
-0.42
-4.62
-9.04
-13.48
-17.75
-21.77
-25.64
-29.63
-34.15
-39.63
-46.39
-54.49
-63.51
-72.47
-79.89
-84.03
-83.51
-77.72
-67.20
-53.44
-38.43
-23.99
-11.29
-0.77
7.68
14.33
19.26
22.45
23.82
23.55
22.12
20.21
18.45
17.10
15.88
14.16
11.24
6.76
0.99
-5.26
-10.91
-15.07
-17.38
-18.15
-18.15
-18.37
-19.60
-22.31
-26.57
-32.04
-38.21
-44.41
-50.04
-54.69
-58.16
-60.44
-61.56
-61.49
-60.09
-57.17
-52.61
-46.41
-38.85
-30.39
-21.54
-12.66
-3.66
6.11
17.88
33.14
53.21
78.72
109.21
143.07
177.73
210.23
237.91
258.88
272.39
278.63
278.45
272.90
263.03
249.94
235.07
220.32
207.95
199.98
197.52
200.34
207.04
215.65
224.57
232.95
240.69
247.97
254.60
259.84
262.55
261.74
256.99
248.59
237.33
224.03
209.28
193.26
175.94
157.38
137.88
117.95
98.14
78.69
59.45
39.98
19.85
-1.00
-22.02
-42.20
-60.40
-75.74
-87.93
-97.22
-104.18
-109.43
-113.47
-116.62
-119.15
-121.37
-123.66
-126.41
-129.97
-134.64
-140.67
-148.18
-157.05
-166.85
-176.79
-185.96
-193.65
-199.65
-204.31
-208.31
-212.42
-217.06
-222.32
-228.04
-234.03
-240.28
-246.85
-253.62
-260.00
-264.88
-266.80
-264.46
-257.23
-245.42
-230.27
-213.44
-196.56
-180.71
-166.38
-153.58
-142.21
-132.20
-123.55
-116.26
-110.21
-105.34
-101.70
-99.55
-99.24
-100.85
-103.84
-107.09
-109.06
-108.45
-104.59
-97.63
-88.42
-78.02
-67.38
-57.14
-47.77
-39.60
-33.00
-28.21
-25.25
-23.78
-23.20
-22.80
-22.00
-20.50
-18.27
-15.49
-12.40
-9.32
-6.54
-4.45
-3.47
-4.07
-6.57
-11.07
-17.35
-24.82
-32.71
-40.31
-47.21
-53.42
-59.34
-65.44
-72.02
-78.95
-85.78
-91.96
-97.10
-101.20
-104.65
-108.10
-112.14
-117.11
-122.73
-127.99
-131.09
-129.73
-121.67
-105.41
-80.78
-48.97
-12.09
27.54
68.29
109.73
152.63
198.39
248.05
301.26
355.58
406.64
449.14
478.57
492.76
492.78
482.46
466.71
449.51
432.37
414.07
391.75
362.64
325.54
281.38
232.73
182.70
133.93
88.19
46.38
9.03
-23.30
-49.96
-70.41
-84.51
-92.83
-96.63
-97.73
-98.18
-100.00
-104.89
-114.22
-128.82
-148.84
-173.20
-199.20
-222.38
-237.14
-238.14
-222.13
-189.30
-143.56
-91.38
-39.63
6.46
44.48
74.65
98.80
118.92
136.36
151.63
164.73
175.55
184.08
190.28
193.94
194.64
191.88
185.43
175.59
163.24
149.66
136.20
123.80
112.81
102.96
93.66
84.32
74.68
64.85
55.21
46.22
38.17
31.14
24.97
19.42
14.16
8.88
3.27
-2.87
-9.56
-16.55
-23.35
-29.39
-34.20
-37.57
-39.56
-40.42
-40.32
-39.27
-37.03
-33.26
-27.69
-20.33
-11.46
-1.63
8.52
18.44
27.76
36.37
44.50
52.48
60.63
69.01
77.23
84.52
89.88
92.36
91.43
87.07
79.70
70.05
58.82
46.52
33.47
19.93
6.11
-7.71
-21.25
-34.43
-47.42
-60.64
-74.68
-90.20
-107.81
-128.02
-150.97
-176.25
-202.64
-228.19
-250.59
-267.89
-279.06
-284.34
-284.95
-282.44
-278.14
-272.81
-266.80
-260.40
-254.13
-248.71
-244.80
-242.66
-242.03
-242.33
-242.93
-243.51
-244.14
-245.21
-247.21
-250.43
-254.83
-259.99
-265.26
-269.85
-273.04
-274.25
-273.08
-269.25
-262.57
-252.93
-240.38
-225.10
-207.40
-187.71
-166.47
-144.11
-121.07
-97.81
-74.86
-52.82
-32.42
-14.31
1.09
13.82
24.42
33.77
42.72
51.56
59.80
66.15
68.94
66.64
58.42
44.55
26.31
5.91
-14.03
-30.82
-42.39
-47.75
-47.27
-42.63
-36.33
-30.93
-28.19
-28.51
-30.88
-33.40
-34.10
-31.75
-26.36
-19.05
-11.56
-5.53
-2.04
-1.41
-3.19
-6.45
-9.96
-12.34
-12.32
-8.98
-2.07
7.82
19.29
30.56
39.89
46.02
48.42
47.25
43.24
37.41
30.86
24.46
18.70
13.64
8.89
3.80
-2.27
-9.80
-19.08
-30.22
-43.18
-57.67
-73.00
-87.83
-100.29
-108.29
-110.18
-105.32
-94.38
-79.04
-61.39
-43.21
-25.53
-8.58
7.90
24.32
40.90
57.66
74.34
90.51
105.64
119.15
130.61
139.83
146.90
152.16
156.01
158.77
160.66
161.75
162.02
161.43
159.82
156.97
152.62
146.66
139.29
131.02
122.59
114.64
107.46
100.91
94.52
87.71
80.15
71.84
63.15
54.51
46.16
37.94
29.22
19.09
6.64
-8.68
-26.67
-46.20
-65.17
-80.85
-90.48
-92.07
-84.96
-70.05
-49.46
-25.86
-1.72
21.19
41.94
60.20
75.95
89.22
100.08
108.64
115.25
120.48
125.08
129.81
135.23
141.47
148.18
154.65
160.04
163.68
165.24
164.80
162.61
158.89
153.72
147.09
139.10
130.09
120.59
111.23
102.45
94.41
86.97
79.76
72.38
64.48
55.89
46.63
36.95
27.27
18.03
9.54
1.72
-5.93
-14.28
-24.30
-36.66
-51.25
-66.97
-81.70
-92.73
-97.54
-94.58
-83.84
-66.93
-46.58
-25.76
-6.77
9.22
22.19
32.76
41.64
49.17
55.35
59.94
62.85
64.30
64.81
65.07
65.69
67.03
69.12
71.65
74.18
76.22
77.36
77.32
75.99
73.34
69.53
64.87
59.88
55.27
51.80
50.02
50.06
51.49
53.49
55.01
55.17
53.47
49.92
44.90
39.08
33.17
27.78
23.25
19.58
16.47
13.27
9.22
3.61
-3.85
-12.73
-21.70
-28.68
-31.28
-27.63
-16.99
-0.21
20.56
42.44
62.82
80.10
94.02
105.39
115.43
125.07
134.61
143.69
151.70
158.22
163.19
166.93
169.89
172.52
175.22
178.44
182.71
188.50
195.88
204.28
212.42
218.62
221.27
219.34
212.46
200.82
184.79
164.72
140.87
113.58
83.42
51.28
18.18
-15.00
-47.73
-79.86
-111.45
-142.42
-172.35
-200.51
-226.09
-248.55
-267.87
-284.55
-299.33
-312.76
-324.70
-334.15
-339.38
-338.38
-329.63
-312.68
-288.43
-258.98
-227.00
-194.94
-164.40
-135.93
-109.32
-84.12
-60.16
-37.68
-17.14
1.10
17.09
31.14
43.72
55.06
65.15
73.77
80.81
86.43
91.02
94.97
98.50
101.45
103.48
104.20
103.38
101.06
97.40
92.64
87.01
80.72
74.03
67.26
60.76
54.86
49.72
45.28
41.25
37.05
31.99
25.33
16.57
5.70
-6.64
-19.11
-29.94
-37.43
-40.44
-38.75
-33.10
-24.98
-16.14
-8.18
-2.13
1.66
3.43
3.80
3.45
2.89
2.40
2.01
1.77
1.79
2.30
3.51
5.45
7.86
10.24
12.05
12.95
12.85
11.83
10.04
7.55
4.35
0.40
-4.24
-9.40
-14.87
-20.43
-25.96
-31.40
-36.73
-41.94
-46.99
-51.76
-56.12
-59.87
-62.85
-65.08
-66.84
-68.72
-71.47
-75.60
-81.01
-86.76
-91.22
-92.57
-89.50
-81.71
-70.02
-56.01
-41.36
-27.33
-14.49
-2.90
7.54
16.84
24.73
30.95
35.43
38.53
41.03
43.83
47.73
53.15
60.09
68.15
76.76
85.36
93.51
100.94
107.52
113.18
117.81
121.29
123.36
123.64
121.40
115.61
105.03
88.71
66.46
39.36
9.63
-19.75
-45.84
-66.42
-80.25
-87.11
-87.49
-82.45
-73.51
-62.65
-51.98
-43.33
-37.64
-34.71
-33.39
-32.30
-30.47
-27.87
-25.22
-23.48
-23.24
-24.34
-26.04
-27.38
-27.70
-26.76
-24.69
-21.54
-17.10
-10.81
-2.15
8.96
21.86
35.31
47.87
58.44
66.60
72.57
76.85
79.88
81.69
81.92
80.02
75.50
68.22
58.48
47.00
34.66
22.37
10.75
0.04
-9.87
-19.26
-28.40
-37.35
-45.88
-53.69
-60.52
-66.37
-71.60
-76.78
-82.54
-89.35
-97.36
-106.28
-115.46
-123.91
-130.47
-133.98
-133.56
-128.84
-120.11
-108.32
-94.94
-81.54
-69.41
-59.28
-51.29
-45.16
-40.50
-36.99
-34.47
-32.85
-31.94
-31.43
-30.94
-30.21
-29.22
-28.25
-27.71
-27.94
-29.02
-30.79
-33.01
-35.54
-38.48
-42.13
-46.69
-52.11
-57.82
-62.91
-66.36
-67.42
-65.83
-61.95
-56.53
-50.50
-44.68
-39.56
-35.29
-31.71
-28.55
-25.55
-22.57
-19.73
-17.35
-15.86
-15.56
-16.43
-17.90
-18.92
-18.32
-15.19
-9.31
-1.28
7.70
16.28
23.38
28.51
31.68
33.18
33.25
31.92
29.15
25.01
19.86
14.37
9.35
5.48
3.09
2.16
2.37
3.29
4.51
5.77
6.87
7.69
8.10
8.03
7.51
6.74
6.03
5.74
6.14
7.29
8.99
10.93
12.79
14.42
15.91
17.45
19.19
21.02
22.64
23.56
23.38
21.84
18.98
15.05
10.55
6.15
2.70
1.21
2.65
7.72
16.62
29.02
44.28
61.70
80.65
100.42
119.81
136.86
149.00
153.68
149.23
135.67
114.91
90.32
65.78
44.60
28.84
19.08
14.57
13.75
14.77
15.84
15.52
12.96
7.84
0.40
-8.73
-18.72
-28.73
-38.09
-46.35
-53.33
-59.03
-63.42
-66.47
-68.03
-67.88
-65.72
-61.29
-54.43
-45.25
-34.15
-21.74
-8.73
4.26
16.86
28.82
39.94
49.77
57.62
62.65
64.27
62.49
58.13
52.58
47.37
43.58
41.42
40.25
38.94
36.39
31.98
25.64
17.63
8.27
-2.29
-13.97
-26.53
-39.30
-51.21
-61.04
-67.81
-71.16
-71.41
-69.41
-66.15
-62.47
-58.96
-55.88
-53.30
-51.26
-49.76
-48.85
-48.44
-48.38
-48.41
-48.17
-47.36
-45.81
-43.60
-41.09
-38.84
-37.35
-36.93
-37.47
-38.53
-39.53
-40.09
-40.17
-40.11
-40.45
-41.67
-44.08
-47.68
-52.28
-57.39
-62.16
-65.28
-65.06
-59.81
-48.42
-30.85
-8.29
17.09
42.88
67.09
88.65
107.38
123.66
137.93
150.36
160.81
168.98
174.56
177.47
177.75
175.52
170.86
163.71
153.85
140.97
124.75
104.99
81.66
54.86
24.77
-8.29
-43.70
-80.19
-115.54
-146.54
-169.56
-181.38
-180.31
-166.89
-143.86
-115.43
-86.03
-59.27
-37.29
-20.86
-9.82
-3.49
-1.08
-1.68
-4.28
-7.84
-11.49
-14.70
-17.23
-18.85
-18.99
-16.64
-10.55
0.21
15.74
35.06
56.46
78.02
98.22
116.25
131.81
144.83
155.07
162.12
165.67
165.85
163.36
159.38
155.22
151.82
149.58
148.25
147.15
145.44
142.40
137.59
130.81
121.99
110.96
97.39
80.85
61.11
38.39
13.60
-11.79
-36.12
-57.92
-76.34
-91.22
-102.90
-112.02
-119.20
-124.93
-129.49
-133.03
-135.67
-137.59
-139.07
-140.56
-142.59
-145.60
-149.71
-154.55
-159.22
-162.40
-162.79
-159.43
-152.00
-140.94
-127.32
-112.48
-97.70
-83.94
-71.73
-61.23
-52.42
-45.21
-39.58
-35.44
-32.59
-30.65
-29.08
-27.30
-24.91
-21.85
-18.41
-15.15
-12.62
-11.13
-10.66
-10.93
-11.67
-12.85
-14.71
-17.72
-22.29
-28.54
-36.19
-44.65
-53.20
-61.22
-68.35
-74.57
-80.15
-85.55
-91.20
-97.38
-104.05
-110.88
-117.45
-123.40
-128.73
-133.81
-139.36
-146.15
-154.79
-165.45
-177.62
-190.14
-201.22
-208.86
-211.35
-207.74
-198.18
-183.85
-166.54
-148.06
-129.74
-112.22
-95.57
-79.55
-64.03
-49.07
-34.93
-21.85
-9.85
1.41
12.52
24.10
36.49
49.58
62.69
74.83
84.99
92.43
96.85
98.32
97.15
93.56
87.63
79.36
68.87
56.63
43.59
31.01
20.10
11.61
5.43
0.65
-4.13
-10.20
-18.25
-28.21
-39.34
-50.81
-61.97
-72.54
-82.40
-91.46
-99.79
-107.77
-116.30
-126.35
-138.15
-150.41
-160.09
-163.28
-156.59
-138.71
-110.92
-76.59
-39.71
-3.50
30.39
61.72
91.02
118.86
145.72
172.30
199.83
230.14
264.86
304.39
347.08
389.12
425.48
451.47
464.06
462.57
448.30
423.54
390.65
351.61
308.30
262.94
218.29
177.39
142.66
115.25
94.59
78.78
65.23
51.57
36.10
18.10
-2.53
-25.48
-50.40
-76.94
-104.79
-133.53
-162.51
-190.65
-216.38
-237.67
-252.25
-258.22
-254.58
-241.69
-221.23
-195.79
-168.16
-140.76
-115.33
-92.98
-74.45
-60.20
-50.50
-45.13
-43.30
-43.58
-44.20
-43.36
-39.74
-32.74
-22.58
-10.21
3.18
16.38
28.53
39.13
48.00
55.10
60.43
63.97
65.68
65.49
63.35
59.33
53.67
46.84
39.48
32.30
25.94
20.77
16.88
14.05
11.75
9.31
5.97
1.09
-5.50
-13.27
-20.84
-26.20
-27.34
-22.85
-12.61
2.22
19.41
36.48
51.41
63.12
71.59
77.46
81.56
84.44
86.35
87.29
87.35
86.85
86.25
86.00
86.27
86.83
87.12
86.52
84.53
80.98
76.01
69.93
63.04
55.56
47.62
39.40
31.28
23.78
17.59
13.31
11.26
11.34
13.18
16.25
20.03
24.13
28.19
31.78
34.39
35.40
34.27
30.61
24.30
15.58
5.06
-6.22
-16.87
-25.37
-30.43
-31.30
-28.00
-21.29
-12.46
-2.94
6.05
13.63
19.34
23.06
24.86
24.98
23.79
21.86
19.92
18.80
19.21
21.48
25.49
30.61
36.00
40.84
44.60
47.05
48.14
47.91
46.34
43.50
39.69
35.46
31.47
28.29
26.07
24.47
22.78
20.29
16.61
11.88
6.75
2.08
-1.32
-3.04
-3.12
-2.13
-1.00
-0.81
-2.57
-6.80
-13.33
-21.10
-28.30
-32.90
-33.27
-28.79
-20.10
-8.83
3.05
13.99
23.23
30.86
37.36
43.06
47.85
51.21
52.65
52.17
50.50
48.89
48.71
50.89
55.59
62.22
69.75
77.12
83.53
88.60
92.27
94.59
95.63
95.40
93.95
91.43
88.14
84.51
80.95
77.79
75.16
73.05
71.31
69.78
68.33
66.84
65.10
62.78
59.32
54.05
46.37
35.93
22.87
7.97
-7.36
-21.39
-32.51
-39.77
-43.30
-44.35
-44.90
-46.99
-52.06
-60.52
-71.80
-84.72
-97.92
-110.35
-121.39
-130.83
-138.78
-145.46
-151.09
-155.80
-159.53
-162.10
-163.24
-162.74
-160.50
-156.57
-151.15
-144.55
-137.13
-129.37
-121.80
-114.99
-109.34
-105.11
-102.22
-100.36
-99.05
-97.77
-96.14
-93.98
-91.37
-88.58
-86.07
-84.36
-83.89
-84.85
-87.08
-89.90
-92.16
-92.45
-89.42
-82.23
-70.83
-56.10
-39.62
-23.20
-8.42
3.75
13.03
19.68
24.12
26.71
27.64
27.02
25.09
22.37
19.64
17.71
17.17
18.21
20.59
23.72
26.93
29.63
31.46
32.24
31.95
30.64
28.45
25.58
22.28
18.88
15.67
12.87
10.59
8.84
7.49
6.39
5.34
4.10
2.44
0.09
-3.27
-7.99
-14.35
-22.40
-31.71
-41.28
-49.58
-54.92
-55.88
-51.94
-43.59
-32.27
-19.85
-8.10
1.79
9.38
14.79
18.52
21.03
22.65
23.57
23.97
24.11
24.40
25.23
26.85
29.22
32.00
34.74
37.16
39.26
41.36
43.84
46.89
50.34
53.66
56.23
57.58
57.61
56.57
54.90
52.91
50.75
48.30
45.36
41.83
37.75
33.32
28.72
23.97
18.92
13.27
6.67
-1.21
-10.60
-21.59
-33.96
-47.02
-59.46
-69.43
-74.98
-74.62
-67.85
-55.46
-39.30
-21.69
-4.81
9.94
21.99
31.45
38.71
44.06
47.53
49.01
48.51
46.38
43.32
40.14
37.53
35.75
34.67
33.92
33.12
32.10
30.89
29.57
28.08
26.12
23.26
19.13
13.65
7.18
0.40
-5.89
-11.09
-15.01
-18.00
-20.72
-23.91
-28.00
-32.90
-38.00
-42.39
-45.25
-46.20
-45.48
-43.94
-42.79
-43.24
-46.11
-51.53
-58.87
-66.72
-73.31
-76.89
-76.25
-71.07
-61.97
-50.24
-37.33
-24.42
-12.13
-0.60
10.25
20.38
29.49
37.16
43.11
47.37
50.40
52.87
55.45
58.54
62.25
66.43
70.85
75.19
79.13
82.23
84.02
84.02
82.01
78.09
72.70
66.49
60.06
53.87
48.11
42.80
37.77
32.76
27.43
21.45
14.61
6.96
-1.16
-9.18
-16.48
-22.66
-27.73
-32.17
-36.72
-42.21
-49.09
-57.24
-65.76
-73.14
-77.62
-77.69
-72.56
-62.49
-48.68
-32.96
-17.21
-2.97
8.94
18.32
25.49
30.85
34.78
37.49
39.14
39.96
40.33
40.71
41.48
42.77
44.37
45.87
46.80
46.89
46.11
44.59
42.48
39.79
36.39
32.10
26.83
20.70
14.03
7.19
0.50
-5.98
-12.44
-19.27
-26.79
-35.14
-44.07
-53.07
-61.47
-68.77
-74.81
-79.82
-84.36
-89.13
-94.66
-101.10
-107.93
-114.10
-118.02
-118.00
-112.69
-101.64
-85.40
-65.51
-44.03
-22.94
-3.74
12.77
26.45
37.48
46.17
52.78
57.52
60.72
62.90
64.71
66.81
69.59
73.14
77.07
80.76
83.51
84.80
84.42
82.43
79.09
74.62
69.18
62.86
55.80
48.26
40.60
33.32
26.81
21.28
16.67
12.65
8.76
4.59
-0.13
-5.37
-10.84
-16.14
-20.96
-25.26
-29.33
-33.78
-39.26
-46.22
-54.78
-64.52
-74.49
-83.29
-89.33
-91.15
-87.95
-79.83
-67.87
-53.79
-39.42
-26.21
-14.85
-5.43
2.36
8.85
14.27
18.72
22.30
25.22
27.77
30.22
32.72
35.24
37.59
39.51
40.71
41.03
40.40
38.84
36.40
33.05
28.62
22.95
15.92
7.62
-1.55
-10.92
-19.75
-27.43
-33.79
-39.25
-44.71
-51.18
-59.32
-69.02
-79.33
-88.80
-96.00
-100.02
-100.62
-98.14
-93.11
-86.01
-77.05
-66.23
-53.34
-38.04
-19.95
1.21
25.29
51.51
78.45
104.39
127.80
147.83
164.44
178.16
189.65
199.25
206.78
211.75
213.65
212.24
207.80
201.05
193.09
185.13
178.43
174.08
172.72
174.13
176.70
177.34
171.91
156.44
128.50
88.24
38.37
-16.86
-73.20
-127.76
-179.41
-228.23
-274.64
-318.52
-359.08
-395.16
-425.65
-449.63
-466.27
-474.65
-473.96
-463.83
-444.74
-418.11
-386.00
-350.52
-313.26
-275.14
-236.57
-197.85
-159.49
-122.33
-87.34
-55.42
-27.15
-2.75
17.83
34.80
48.47
59.24
67.66
74.46
80.46
86.47
93.03
100.37
108.23
116.08
123.20
128.94
132.90
134.99
135.37
134.38
132.33
129.41
125.70
121.12
115.64
109.32
102.36
95.08
87.77
80.70
73.94
67.47
61.13
54.76
48.18
41.20
33.68
25.55
17.05
8.76
1.64
-3.12
-4.53
-2.03
4.21
13.36
24.13
35.16
45.32
53.89
60.60
65.50
68.83
70.91
72.05
72.57
72.75
72.88
73.25
74.12
75.68
78.03
81.10
84.69
88.54
92.38
95.95
99.07
101.61
103.56
105.09
106.56
108.47
111.29
115.22
120.07
125.30
130.33
134.91
139.53
145.34
153.72
165.70
181.39
199.98
220.17
240.83
261.42
281.90
302.06
320.87
336.12
344.83
344.39
333.53
312.79
284.09
250.04
213.43
177.39
145.59
121.95
109.33
107.82
113.74
120.37
120.38
108.94
85.70
54.68
22.03
-6.79
-28.89
-44.10
-53.51
-58.04
-57.68
-52.05
-41.41
-27.28
-12.33
0.65
9.87
15.19
17.92
19.99
22.79
26.34
29.17
28.96
23.62
12.30
-4.15
-23.45
-42.80
-60.02
-74.34
-86.67
-99.21
-114.74
-135.45
-161.99
-192.59
-222.93
-246.86
-258.02
-251.95
-227.90
-189.54
-144.04
-99.78
-63.66
-39.15
-26.07
-21.63
-22.52
-26.48
-32.99
-42.94
-57.79
-78.91
-106.97
-141.47
-180.29
-219.73
-254.96
-281.26
-295.65
-297.85
-290.26
-276.70
-260.76
-244.65
-229.12
-214.16
-199.95
-187.16
-176.59
-168.39
-161.75
-155.17
-147.19
-137.20
-125.55
-113.26
-101.50
-90.84
-81.14
-71.59
-61.17
-49.15
-35.46
-20.88
-6.74
5.36
14.22
19.33
21.05
20.34
18.44
16.45
15.09
14.68
15.23
16.61
18.66
21.13
23.70
25.97
27.50
27.90
26.94
24.61
21.14
16.88
12.17
7.25
2.18
-3.06
-8.45
-13.81
-18.85
-23.28
-27.01
-30.25
-33.55
-37.54
-42.75
-49.44
-57.57
-66.95
-77.32
-88.38
-99.61
-110.26
-119.23
-125.37
-127.85
-126.46
-121.88
-115.44
-108.79
-103.30
-99.64
-97.69
-96.61
-95.25
-92.39
-86.94
-78.04
-65.12
-48.13
-27.91
-6.39
13.67
29.45
39.42
44.25
46.94
51.72
62.03
78.66
99.15
118.89
133.18
139.26
136.94
127.77
113.53
95.06
72.28
45.01
13.93
-19.29
-52.77
-85.36
-117.03
-148.29
-178.99
-207.36
-230.16
-243.76
-245.54
-234.98
-213.76
-185.02
-152.31
-118.60
-85.72
-54.23
-23.74
6.59
37.54
69.28
100.96
130.67
155.79
173.57
182.03
180.67
170.73
154.93
136.61
118.62
102.27
86.87
70.40
51.08
29.10
7.70
-7.34
-9.79
4.31
34.55
75.92
120.58
160.72
191.07
209.90
218.28
218.35
211.76
199.27
181.19
158.36
132.65
106.64
82.71
62.15
44.74
28.99
12.94
-4.99
-25.50
-48.39
-72.81
-97.77
-122.39
-145.94
-167.60
-186.35
-200.97
-210.15
-212.97
-209.12
-199.11
-184.10
-165.50
-144.45
-121.46
-96.61
-70.26
-43.85
-20.21
-2.99
4.72
1.82
-9.90
-26.17
-41.65
-51.75
-54.00
-48.37
-36.60
-21.12
-3.99
13.46
30.64
47.30
63.20
77.92
90.99
101.98
110.68
117.20
121.77
124.50
125.22
123.70
120.01
114.85
109.50
105.32
102.97
102.07
101.26
98.96
94.10
86.37
76.02
63.23
47.76
29.11
6.84
-19.01
-47.81
-78.77
-111.27
-145.02
-179.77
-214.93
-249.28
-281.11
-308.48
-329.61
-343.03
-347.81
-343.57
-330.62
-309.95
-282.93
-250.98
-215.34
-177.24
-138.25
-100.59
-66.94
-39.59
-19.55
-6.08
2.93
9.97
16.78
23.82
30.62
36.47
41.13
44.83
47.78
49.71
49.72
46.76
40.30
30.67
18.86
6.03
-7.04
-19.98
-32.51
-43.97
-53.22
-58.93
-60.16
-56.85
-49.98
-41.17
-32.09
-23.98
-17.32
-12.01
-7.56
-3.43
0.79
5.29
10.06
15.05
20.23
25.73
31.92
39.24
48.00
58.16
69.21
80.22
90.13
98.01
103.32
106.04
106.63
105.84
104.49
103.22
102.33
101.67
100.77
99.03
95.97
91.43
85.62
78.98
72.10
65.49
59.53
54.37
49.98
46.07
42.11
37.40
31.24
23.30
13.89
4.05
-4.64
-10.61
-12.78
-10.97
-5.81
1.53
9.87
18.34
26.51
34.27
41.46
47.82
52.87
56.15
57.36
56.50
53.89
50.09
45.80
41.72
38.36
35.93
34.23
32.77
30.83
27.80
23.35
17.57
10.90
3.94
-2.85
-9.23
-15.21
-20.83
-25.97
-30.38
-33.82
-36.31
-38.23
-40.25
-43.08
-47.16
-52.39
-58.24
-63.81
-68.26
-71.02
-72.07
-71.86
-71.21
-70.97
-71.62
-72.98
-74.13
-73.59
-69.77
-61.55
-48.64
-31.77
-12.41
7.59
26.58
43.45
57.76
69.60
79.28
87.00
92.77
96.44
98.03
97.99
97.18
96.72
97.46
99.66
102.83
106.03
108.31
109.23
108.94
107.98
106.85
105.61
103.87
100.99
96.51
90.31
82.84
74.82
67.07
60.18
54.41
49.55
45.11
40.44
35.01
28.61
21.34
13.50
5.37
-2.92
-11.48
-20.53
-30.16
-40.19
-50.07
-58.87
-65.46
-68.66
-67.60
-61.98
-52.28
-39.71
-25.89
-12.40
-0.30
9.98
18.59
25.91
32.22
37.54
41.75
44.74
46.60
47.67
48.43
49.31
50.57
52.21
54.08
55.97
57.70
59.15
60.27
60.96
61.11
60.55
59.13
56.79
53.65
50.00
46.31
42.98
40.22
37.84
35.41
32.39
28.43
23.58
18.26
13.04
8.40
4.49
1.07
-2.29
-6.13
-10.91
-16.82
-23.74
-31.11
-37.93
-42.91
-44.81
-42.81
-36.84
-27.64
-16.54
-5.04
5.61
14.59
21.55
26.45
29.42
30.70
30.70
29.99
29.19
28.88
29.37
30.64
32.37
34.17
35.73
36.93
37.81
38.45
38.87
38.94
38.48
37.33
35.47
33.03
30.24
27.37
24.61
22.05
19.61
17.10
14.26
10.93
7.09
2.88
-1.40
-5.48
-9.18
-12.48
-15.55
-18.68
-22.23
-26.56
-31.89
-38.02
-44.25
-49.34
-51.82
-50.38
-44.52
-34.74
-22.42
-9.33
3.06
14.05
23.74
32.67
41.41
50.06
58.27
65.47
71.29
75.92
80.08
84.84
91.14
99.43
109.48
120.56
131.79
142.48
152.41
161.77
171.03
180.83
191.93
205.26
221.64
241.23
262.85
283.71
299.83
307.30
303.74
289.36
266.85
240.29
213.52
188.91
166.99
147.02
127.96
109.23
90.96
73.68
57.85
43.48
30.07
16.77
2.64
-13.07
-30.67
-50.02
-70.63
-91.91
-113.34
-134.70
-156.07
-177.74
-200.17
-224.06
-250.36
-279.90
-312.67
-346.87
-378.50
-401.97
-411.93
-405.53
-384.14
-353.44
-321.71
-297.10
-285.16
-287.52
-302.25
-325.24
-351.74
-377.38
-398.44
-411.81
-414.96
-406.43
-386.26
-356.30
-319.88
-280.86
-242.39
-205.98
-171.41
-137.53
-103.55
-70.04
-39.06
-13.31
5.16
16.06
21.04
22.95
24.73
28.43
34.78
43.46
53.57
64.11
74.17
83.03
90.20
95.62
99.90
104.31
110.47
119.84
132.98
148.98
165.45
178.96
186.16
184.80
174.58
157.24
135.95
114.13
94.46
78.32
65.75
56.02
48.20
41.53
35.65
30.36
25.53
21.03
16.75
12.66
8.80
5.27
2.15
-0.57
-2.98
-5.20
-7.36
-9.53
-11.83
-14.42
-17.57
-21.66
-27.07
-34.03
-42.34
-51.25
-59.45
-65.30
-67.26
-64.41
-56.77
-45.32
-31.68
-17.66
-4.73
6.29
15.20
22.28
27.94
32.49
36.02
38.48
39.84
40.25
40.08
39.85
40.04
40.89
42.36
44.18
46.00
47.50
48.47
48.73
48.14
46.60
44.11
40.84
37.13
33.37
29.90
26.83
24.08
21.37
18.38
14.88
10.76
6.16
1.32
-3.46
-8.00
-12.36
-16.89
-22.11
-28.55
-36.41
-45.32
-54.19
-61.35
-64.93
-63.39
-56.09
-43.48
-26.99
-8.63
9.72
26.77
42.09
55.96
69.02
81.83
94.62
107.26
119.45
131.07
142.35
153.85
166.29
180.18
195.53
211.89
228.49
244.72
260.37
275.76
291.58
308.56
327.15
347.27
368.08
387.87
404.27
414.63
416.73
409.52
393.62
371.15
345.01
317.64
290.08
261.65
230.45
194.43
152.45
104.84
53.13
-0.60
-54.58
-107.90
-160.49
-212.87
-265.94
-320.83
-378.68
-439.83
-502.59
-562.32
-611.54
-641.71
-646.19
-623.08
-576.34
-514.52
-447.61
-383.63
-326.63
-276.80
-232.21
-190.87
-151.79
-114.94
-80.45
-47.96
-16.75
13.61
42.60
68.65
89.45
102.99
108.53
106.89
100.37
91.80
83.54
76.58
70.34
63.08
52.92
38.85
21.41
2.55
-15.02
-28.91
-37.88
-42.11
-42.89
-41.89
-40.38
-38.76
-36.59
-32.96
-27.04
-18.56
-7.90
3.99
15.97
27.04
36.54
44.30
50.68
56.65
63.78
74.05
89.33
110.64
137.47
167.48
196.97
221.82
238.71
245.93
243.56
232.96
215.97
194.39
169.67
143.09
115.92
89.37
64.30
40.94
18.64
-3.86
-27.90
-54.37
-83.29
-113.85
-144.72
-174.52
-202.22
-227.36
-250.02
-270.62
-289.68
-307.63
-324.67
-340.80
-355.81
-369.23
-380.37
-388.29
-391.87
-390.02
-381.90
-367.18
-346.27
-320.30
-290.97
-260.21
-229.92
-201.64
-176.43
-154.93
-137.36
-123.73
-113.82
-107.21
-103.10
-100.32
-97.32
-92.51
-84.49
-72.40
-56.01
-35.80
-12.75
11.93
37.14
62.23
87.05
111.73
136.14
159.46
180.00
195.59
204.43
205.82
200.60
190.81
178.94
167.08
156.39
147.10
138.78
130.75
122.31
112.82
101.77
88.93
74.53
59.37
44.82
32.55
24.18
20.77
22.59
28.94
38.25
48.43
57.26
62.88
63.99
60.00
50.99
37.56
20.87
2.49
-15.71
-31.94
-44.91
-54.18
-60.09
-63.46
-65.06
-65.24
-63.98
-61.29
-57.72
-54.46
-52.89
-53.76
-56.30
-58.13
-55.94
-46.79
-29.38
-4.51
25.41
57.65
90.44
123.80
159.48
200.32
249.04
306.73
371.46
437.68
497.10
541.09
563.65
563.73
545.34
515.49
480.94
445.58
410.04
373.16
334.42
295.29
258.77
227.56
202.32
181.16
160.51
136.78
107.57
71.83
29.60
-18.53
-71.32
-126.72
-181.87
-233.29
-277.72
-312.88
-337.88
-352.91
-358.53
-354.83
-341.54
-318.71
-287.66
-251.40
-214.21
-180.38
-152.86
-132.29
-116.90
-103.92
-91.15
-78.02
-65.37
-54.72
-47.24
-43.36
-42.84
-44.55
-47.91
-53.34
-61.99
-74.68
-91.02
-109.33
-127.42
-143.47
-155.00
-160.99
-162.46
-162.03
-162.06
-163.02
-163.27
-160.30
-152.29
-136.48
-112.53
-82.94
-52.09
-23.58
1.74
25.54
50.31
78.17
114.33
163.11
225.80
298.95
375.64
447.72
508.06
552.33
556.58
507.60
409.90
285.66
160.81
51.75
-36.55
-105.37
-157.54
-196.10
-220.86
-232.81
-235.67
-236.24
-240.78
-252.16
-269.51
-288.69
-304.42
-309.51
-299.43
-274.07
-237.76
-196.47
-154.91
-117.60
-87.61
-66.51
-52.42
-42.28
-33.28
-24.29
-15.70
-8.62
-4.11
-2.19
-1.74
0.05
5.89
17.20
33.60
53.36
74.23
93.87
110.14
121.20
126.22
125.92
122.62
119.77
121.14
129.48
145.47
167.54
191.94
213.71
227.90
230.86
221.42
201.73
177.42
156.49
147.28
155.48
181.92
221.95
266.90
307.13
335.21
347.88
345.90
332.40
310.91
284.00
253.24
220.06
186.40
154.66
126.92
103.92
84.64
66.75
47.64
25.47
-0.12
-27.90
-55.85
-82.00
-105.37
-126.31
-146.34
-167.49
-191.44
-219.06
-250.22
-284.04
-319.10
-353.54
-385.22
-411.88
-431.64
-443.45
-447.27
-443.60
-432.80
-414.31
-386.53
-347.51
-296.22
-233.90
-164.67
-95.03
-32.42
16.78
48.92
63.86
64.64
56.25
44.02
32.18
23.35
18.51
17.63
20.30
26.15
34.71
45.23
56.37
66.28
73.05
75.40
73.24
68.10
62.71
60.12
62.46
69.95
80.58
90.76
96.69
96.02
88.91
78.17
68.01
62.24
62.41
67.01
72.09
72.88
65.83
50.22
28.61
6.01
-11.51
-18.83
-13.41
3.72
28.06
52.89
71.20
77.74
70.71
52.39
28.37
5.76
-9.17
-13.28
-7.68
2.76
11.53
13.31
6.34
-7.20
-22.78
-36.11
-45.34
-51.34
-56.23
-61.12
-64.52
-62.54
-50.87
-27.07
7.69
48.41
87.72
118.43
136.28
141.48
138.43
133.40
131.19
132.27
132.25
123.89
100.81
60.97
8.00
-50.21
-104.65
-148.51
-178.82
-196.20
-203.04
-201.67
-193.43
-178.89
-159.04
-136.20
-114.22
-97.69
-90.40
-93.83
-106.23
-122.83
-137.03
-142.00
-132.04
-103.47
-55.25
10.64
88.89
171.21
247.55
308.48
347.80
364.23
361.33
345.41
322.65
296.87
269.01
238.32
204.29
167.85
131.20
96.57
64.89
35.29
5.79
-25.47
-59.38
-95.74
-133.52
-171.35
-207.45
-239.46
-264.41
-279.34
-282.33
-273.45
-255.03
-231.03
-205.69
-182.41
-163.17
-148.59
-138.57
-132.62
-130.11
-130.07
-131.22
-132.19
-131.95
-130.20
-127.33
-124.14
-121.39
-119.40
-117.97
-116.55
-114.75
-112.56
-110.59
-109.76
-110.94
-114.53
-120.26
-127.36
-134.93
-142.34
-149.42
-156.37
-163.58
-171.38
-179.88
-188.82
-197.57
-205.20
-210.69
-213.17
-212.25
-208.21
-201.88
-194.25
-186.17
-178.13
-170.59
-164.28
-160.40
-160.22
-164.26
-171.39
-178.72
-182.43
-179.32
-168.43
-151.56
-132.63
-115.74
-103.14
-94.15
-85.33
-72.09
-50.69
-19.94
18.06
58.50
95.26
122.70
137.38
138.99
130.51
117.54
106.95
105.20
116.44
140.92
174.08
207.29
230.11
233.82
214.77
176.07
126.64
77.92
39.62
16.78
9.18
13.21
24.63
40.61
60.00
82.10
105.21
126.16
141.40
148.74
148.67
144.35
140.15
139.55
143.58
150.60
157.45
161.31
161.20
158.32
155.22
154.34
156.59
160.87
164.55
164.68
159.34
148.47
133.92
118.77
106.11
97.86
94.10
93.09
91.96
87.77
78.49
63.68
44.45
23.06
2.11
-16.14
-30.34
-40.23
-46.35
-49.63
-50.78
-49.75
-45.54
-36.45
-20.92
1.43
28.91
57.77
83.21
101.33
111.03
114.92
118.63
128.73
150.16
184.15
227.69
274.52
317.26
349.50
367.36
369.98
359.15
338.55
312.97
287.63
267.47
256.50
256.95
268.60
288.49
311.56
332.05
345.26
349.01
344.09
333.46
320.74
308.54
297.59
286.69
273.65
256.39
233.87
206.38
175.28
142.46
109.79
78.65
49.70
22.95
-2.12
-26.27
-50.15
-74.04
-97.86
-121.22
-143.65
-164.99
-185.45
-205.63
-226.36
-248.56
-273.20
-301.03
-332.20
-365.76
-399.32
-429.36
-452.31
-466.02
-470.91
-470.02
-467.78
-467.94
-471.85
-477.93
-482.72
-482.79
-476.45
-464.14
-447.60
-428.27
-406.20
-380.21
-349.17
-313.51
-275.94
-240.88
-212.66
-193.64
-183.43
-179.43
-178.48
-178.44
-178.80
-180.06
-182.48
-185.08
-185.62
-181.39
-170.39
-152.10
-127.59
-98.95
-68.66
-38.84
-11.02
14.11
36.83
58.36
80.76
106.69
138.93
179.52
228.67
283.58
338.18
384.19
413.54
421.19
406.98
375.65
334.94
292.80
255.16
224.90
202.06
184.94
171.29
159.55
149.71
143.47
143.65
152.50
169.85
191.88
211.76
221.97
217.17
195.96
160.64
115.03
62.29
4.04
-58.48
-122.34
-181.55
-227.59
-252.02
-249.74
-221.25
-172.71
-113.79
-54.36
-1.76
40.01
69.34
85.30
86.54
72.00
42.84
4.50
-33.21
-58.77
-63.61
-46.42
-14.60
18.15
37.33
33.15
3.88
-44.48
-101.33
-155.48
-198.18
-224.37
-232.43
-223.43
-200.38
-167.79
-130.99
-95.45
-65.84
-45.24
-34.78
-33.70
-39.61
-49.15
-58.85
-66.07
-69.66
-69.83
-67.66
-64.21
-59.90
-54.52
-47.63
-39.16
-29.69
-20.32
-12.29
-6.53
-3.48
-3.16
-5.27
-9.30
-14.58
-20.28
-25.40
-29.17
-31.17
-31.69
-31.51
-31.63
-32.82
-35.36
-38.98
-43.10
-47.19
-50.96
-54.44
-57.77
-61.03
-64.04
-66.38
-67.54
-67.09
-64.95
-61.47
-57.29
-53.22
-49.82
-47.17
-44.76
-41.63
-36.74
-29.40
-19.48
-7.48
5.69
19.04
31.86
43.96
55.59
67.18
78.89
90.40
100.94
109.42
114.98
117.53
118.01
118.29
120.69
127.36
139.47
156.96
177.90
198.79
215.62
225.17
225.99
218.75
205.99
191.19
178.18
169.50
165.86
166.31
168.78
170.81
170.20
165.62
156.84
145.07
131.61
117.32
