1680245287.00
64.000000
-0.00
-0.00
-0.00
-0.00
-0.00
-0.00
-0.00
-0.00
-0.00
-0.00
0.00
0.01
0.01
-0.00
-0.03
-0.05
-0.05
0.00
0.13
0.36
0.66
1.01
1.37
1.72
2.06
2.40
2.79
3.24
3.80
4.42
5.06
5.66
6.20
6.68
7.15
7.68
8.31
9.14
10.09
11.04
11.88
12.56
13.14
13.76
14.65
15.96
17.91
20.32
22.90
25.38
27.58
29.57
31.68
34.32
37.81
42.54
48.15
54.10
59.83
64.97
69.58
74.14
79.34
85.71
93.76
103.00
112.62
121.73
129.77
136.75
143.30
150.75
157.77
166.64
177.95
191.79
206.97
220.57
228.25
225.36
208.53
176.87
132.76
80.05
23.07
-34.94
-92.44
-149.16
-205.23
-260.37
-313.74
-363.87
-409.83
-450.91
-486.50
-515.74
-537.23
-549.22
-549.96
-538.37
-514.21
-478.67
-433.88
-382.45
-327.02
-269.84
-212.63
-156.66
-102.95
-52.37
-5.90
35.58
71.43
101.35
125.50
144.38
158.69
169.15
176.37
180.75
182.57
182.07
179.51
175.23
169.65
163.18
156.15
148.81
141.30
133.69
126.02
118.33
110.69
103.16
95.80
88.68
81.83
75.25
68.95
62.95
57.25
51.86
46.78
42.03
37.59
33.45
29.61
26.07
22.81
19.83
17.11
14.67
12.48
10.54
8.83
7.35
6.07
4.97
4.05
3.27
2.62
2.09
1.65
1.30
1.01
0.79
0.61
0.48
0.37
0.30
0.25
0.21
0.19
0.19
0.19
0.21
0.23
0.26
0.30
0.33
0.38
0.42
0.46
0.51
0.56
0.61
0.66
0.72
0.78
0.84
0.91
0.99
1.08
1.17
1.28
1.40
1.54
1.69
1.86
2.05
2.26
2.50
2.76
3.05
3.36
3.70
4.08
4.50
4.95
5.43
5.95
6.52
7.12
7.77
8.46
9.19
9.97
10.79
11.65
12.56
13.52
14.54
15.62
16.76
17.96
19.20
20.48
21.72
22.87
23.83
24.49
24.73
24.43
23.51
21.87
19.53
16.51
12.88
8.79
4.42
-0.02
-4.32
-8.27
-11.71
-14.50
-16.56
-17.86
-18.42
-18.32
-17.66
-16.55
-15.10
-13.43
-11.61
-9.72
-7.77
-5.78
-3.78
-1.80
0.19
2.19
4.24
6.37
8.55
10.80
13.14
15.45
17.69
19.88
22.06
24.30
26.64
29.12
31.82
34.85
38.08
41.49
45.15
49.16
53.62
58.58
64.01
69.90
76.30
82.81
89.31
95.85
102.59
109.65
117.06
124.68
132.32
139.84
146.55
152.20
156.81
160.44
162.99
163.82
161.56
153.91
142.78
128.38
111.26
92.40
73.02
54.16
36.34
19.38
2.68
-14.26
-32.13
-50.59
-68.55
-84.77
-98.39
-109.48
-119.00
-128.33
-138.76
-151.73
-168.17
-188.44
-211.97
-236.57
-258.20
-271.59
-271.91
-256.63
-227.02
-187.31
-143.01
-99.00
-58.58
-23.76
3.58
20.99
25.81
16.17
-7.33
-41.18
-79.62
-116.20
-145.47
-164.15
-171.53
-169.34
-161.00
-150.18
-139.53
-129.79
-119.70
-107.07
-90.23
-69.23
-46.12
-23.96
-5.51
7.97
16.89
22.72
26.83
29.61
30.22
27.22
19.61
7.72
-6.55
-20.38
-31.05
-36.99
-38.42
-37.06
-35.39
-35.65
-39.01
-45.26
-52.88
-59.63
-63.24
-62.11
-55.91
-45.64
-33.37
-21.34
-11.19
-3.38
2.74
8.34
14.51
21.94
31.05
42.23
55.97
72.29
89.97
106.10
116.57
117.59
107.75
89.22
67.10
46.93
31.97
21.87
13.89
5.77
-1.84
-5.41
-1.23
11.12
27.31
40.39
45.08
41.36
34.18
29.45
28.99
28.52
20.53
0.09
-30.52
-61.92
-82.64
-85.57
-71.52
-47.84
-23.60
-4.80
7.12
13.18
13.29
4.62
-16.92
-53.14
-100.68
-151.18
-194.56
-223.61
-237.27
-240.58
-241.79
-247.84
-261.08
-278.35
-292.99
-298.42
-291.27
-272.67
-247.19
-220.33
-195.98
-175.21
-156.72
-138.33
-118.49
-97.08
-75.05
-53.57
-33.03
-12.78
8.54
32.34
59.40
89.68
122.70
158.21
196.27
236.80
278.54
318.35
351.47
372.83
379.14
370.31
349.65
322.62
294.70
269.72
249.30
233.30
220.74
210.46
201.38
192.31
182.23
170.55
157.49
144.08
131.67
121.17
112.84
106.14
100.04
93.52
85.68
75.76
63.27
48.29
31.74
15.38
1.12
-9.91
-18.27
-26.22
-36.74
-52.03
-72.32
-95.60
-118.60
-138.36
-153.63
-165.32
-175.83
-187.83
-203.28
-222.93
-246.42
-272.47
-298.96
-322.91
-341.03
-350.86
-351.93
-346.32
-337.76
-329.72
-323.36
-316.72
-305.56
-285.49
-254.06
-211.93
-162.41
-110.20
-60.01
-15.83
19.08
42.43
53.48
53.91
48.23
43.26
46.32
62.94
95.20
141.18
195.84
253.02
307.34
355.65
397.36
433.74
466.96
498.89
530.39
560.98
588.97
611.95
627.48
633.87
630.48
617.85
597.32
570.60
539.29
504.78
468.20
430.69
393.46
357.91
325.44
297.10
273.32
253.67
236.79
220.63
202.90
181.60
155.50
124.35
88.65
49.55
8.20
-34.48
-78.08
-122.66
-168.97
-218.14
-271.12
-327.55
-384.70
-437.17
-477.87
-500.20
-500.45
-479.41
-442.25
-396.53
-349.57
-306.26
-268.49
-235.86
-207.30
-182.21
-160.83
-143.76
-131.31
-122.90
-117.08
-111.97
-105.92
-98.11
-88.86
-79.18
-70.33
-63.15
-57.81
-53.89
-50.82
-48.22
-45.91
-43.80
-41.51
-38.37
-33.71
-27.37
-19.83
-12.04
-4.78
1.76
7.94
14.01
19.59
23.40
23.82
19.90
12.08
2.28
-6.88
-13.25
-15.99
-15.60
-13.41
-10.71
-8.35
-6.67
-5.81
-5.97
-7.29
-9.69
-12.63
-15.23
-16.65
-16.46
-14.80
-12.30
-9.67
-7.45
-5.75
-4.38
-3.00
-1.40
0.52
2.73
5.19
7.86
10.48
12.65
13.85
13.88
13.16
12.96
14.92
20.28
29.03
39.68
49.73
56.81
60.02
60.59
61.52
66.25
77.06
93.95
114.44
134.47
149.66
156.76
154.39
143.10
124.85
101.90
75.99
47.64
16.28
-19.54
-60.87
-107.25
-155.76
-201.60
-238.38
-259.29
-258.96
-235.73
-193.51
-141.19
-90.18
-50.03
-25.50
-14.73
-10.88
-6.03
4.17
17.51
27.36
27.16
15.54
-3.75
-22.75
-32.80
-27.71
-6.22
25.96
60.31
89.26
110.59
122.94
126.59
122.96
115.78
110.25
107.64
108.77
114.27
128.50
148.25
166.35
174.14
167.41
147.28
113.35
69.16
22.54
-9.72
-21.86
-16.01
-0.92
15.51
27.31
22.79
-5.90
-59.21
-121.55
-185.94
-250.06
-316.31
-384.72
-402.65
-336.69
-191.05
-62.60
23.92
66.05
90.52
107.45
123.21
141.10
153.54
152.53
135.45
115.78
99.52
89.03
82.01
77.73
75.36
67.13
46.25
11.20
-26.20
-59.41
-84.75
-102.85
-114.13
-120.08
-127.22
-141.44
-164.65
-189.42
-210.90
-225.87
-234.28
-236.72
-235.14
-234.32
-238.99
-252.00
-271.61
-296.59
-324.31
-350.07
-365.34
-360.06
-327.26
-266.25
-184.54
-95.84
-17.62
35.45
56.14
46.71
16.64
-21.72
-56.81
-79.83
-84.46
-66.29
-23.10
43.40
126.01
211.95
285.35
331.86
343.31
320.34
271.57
210.20
148.87
95.80
52.93
16.91
-18.06
-57.08
-101.96
-150.54
-197.86
-238.34
-268.08
-286.24
-294.79
-297.03
-295.80
-292.44
-286.98
-279.17
-269.48
-259.39
-250.85
-245.17
-242.29
-240.79
-238.64
-234.24
-227.13
-218.08
-208.56
-199.93
-192.71
-186.43
-179.89
-171.76
-161.24
-148.35
-133.89
-119.05
-104.90
-92.02
-80.39
-69.64
-59.26
-49.01
-38.99
-29.68
-21.61
-15.30
-10.92
-8.37
-7.23
-7.00
-7.20
-7.38
-7.30
-6.79
-5.84
-4.43
-2.62
-0.50
1.89
4.48
7.32
10.41
13.82
17.53
21.46
25.48
29.42
33.23
36.98
40.94
45.44
50.77
57.01
63.96
71.19
78.19
84.64
90.53
96.27
102.47
109.69
118.10
127.36
136.68
145.14
152.19
157.90
163.06
168.90
176.51
186.41
198.24
211.01
223.55
235.04
245.46
255.51
266.48
279.80
296.97
319.12
346.40
377.12
407.40
431.58
443.78
440.02
419.83
386.61
346.34
305.42
268.53
237.54
211.86
189.63
169.22
150.03
132.57
117.80
106.42
98.24
92.23
86.93
81.21
74.90
68.69
63.40
59.21
55.15
49.58
41.18
30.09
18.14
8.14
2.40
1.61
4.46
8.53
11.57
12.52
11.68
10.02
8.21
6.12
3.04
-1.51
-7.17
-12.75
-16.80
-18.52
-18.14
-16.71
-15.27
-14.16
-12.87
-10.49
-6.43
-0.95
4.83
9.44
11.71
11.25
8.53
4.66
0.93
-1.57
-2.28
-1.28
0.84
3.26
5.18
6.05
5.63
3.95
1.23
-2.09
-5.36
-7.78
-8.65
-7.71
-5.35
-2.64
-0.92
-1.15
-3.37
-6.65
-9.42
-10.24
-8.38
-4.21
1.14
6.17
9.63
10.78
9.39
5.75
0.54
-5.11
-9.81
-12.21
-11.54
-7.98
-2.64
2.82
6.91
8.69
8.08
5.51
1.81
-2.01
-4.91
-6.00
-4.80
-1.56
2.69
6.51
8.65
8.72
7.40
5.95
5.58
6.68
8.79
10.75
11.47
10.32
7.40
3.27
-1.38
-6.00
-10.28
-13.92
-16.57
-17.69
-16.94
-14.47
-11.12
-8.38
-7.73
-9.96
-14.66
-20.25
-24.62
-26.10
-24.10
-19.27
-13.09
-7.16
-2.65
-0.07
0.55
-0.47
-2.68
-5.45
-8.00
-9.69
-10.10
-9.30
-7.69
-5.84
-4.15
-2.71
-1.43
-0.15
1.13
2.34
3.34
3.96
4.05
3.50
2.27
0.42
-1.87
-4.35
-6.69
-8.65
-9.90
-10.12
-9.04
-6.65
-3.42
-0.33
1.42
0.96
-1.76
-5.81
-9.62
-11.84
-11.99
-10.69
-9.19
-8.71
-9.80
-12.24
-15.39
-18.64
-21.83
-25.05
-28.35
-31.49
-33.91
-35.17
-35.33
-35.15
-35.81
-38.34
-43.14
-49.69
-56.78
-62.94
-67.03
-68.52
-67.40
-63.84
-57.76
-48.58
-35.52
-18.13
3.02
26.18
48.62
67.40
80.25
86.12
85.26
78.82
68.40
55.66
42.15
29.29
18.41
10.57
6.53
6.52
10.15
16.32
23.29
29.01
31.67
30.35
25.52
18.91
12.68
8.31
5.69
3.23
-1.07
-8.21
-17.25
-25.68
-30.58
-30.27
-25.24
-17.87
-11.14
-7.17
-6.46
-7.98
-10.07
-11.40
-11.46
-10.57
-9.41
-8.79
-9.37
-11.76
-16.33
-23.04
-31.22
-39.53
-46.07
-48.88
-46.64
-39.18
-27.66
-14.25
-1.56
8.21
13.84
15.40
14.00
11.28
8.90
8.03
9.15
11.98
15.65
18.96
20.66
19.89
16.44
10.85
4.33
-1.67
-5.78
-7.05
-5.10
-0.36
5.78
10.97
12.61
8.73
-0.91
-14.30
-27.81
-37.57
-41.12
-38.34
-31.28
-22.86
-15.46
-10.00
-6.08
-2.97
-0.45
0.75
-0.52
-4.96
-12.08
-20.24
-27.32
-31.67
-32.93
-32.17
-31.26
-31.92
-34.95
-39.89
-45.43
-49.96
-52.41
-52.62
-51.45
-50.39
-51.03
-54.52
-61.15
-70.38
-80.98
-91.42
-100.14
-105.62
-106.84
-103.75
-98.07
-93.49
-94.75
-105.66
-126.58
-153.35
-178.01
-191.69
-188.13
-166.04
-129.12
-83.87
-36.52
9.05
51.69
91.90
130.40
167.58
204.11
241.93
284.19
333.62
390.03
448.39
499.19
531.39
536.66
513.02
465.65
404.75
341.20
282.82
232.38
188.53
148.07
108.19
67.42
24.95
-19.99
-67.96
-117.91
-166.00
-205.67
-230.01
-235.06
-222.51
-199.73
-176.64
-161.36
-156.82
-160.44
-166.52
-169.69
-167.18
-158.62
-144.49
-124.69
-98.68
-67.09
-33.26
-3.20
16.39
20.86
9.90
-12.45
-39.49
-64.57
-83.13
-93.37
-95.83
-92.29
-84.79
-75.02
-64.13
-52.65
-40.64
-28.01
-14.93
-2.15
8.96
16.75
20.03
18.58
13.38
6.27
-0.81
-6.43
-10.09
-12.01
-12.83
-13.17
-13.46
-13.95
-14.88
-16.50
-18.89
-21.74
-24.28
-25.52
-24.60
-21.33
-16.41
-11.24
-7.37
-5.91
-7.00
-9.90
-13.29
-15.86
-16.78
-15.92
-13.81
-11.33
-9.34
-8.36
-8.36
-8.88
-9.27
-8.93
-7.65
-5.52
-2.92
-0.26
2.10
3.99
5.35
6.29
7.13
8.32
10.36
13.53
17.66
22.11
25.89
28.09
28.25
26.53
23.60
20.33
17.25
14.43
11.34
7.12
0.93
-7.44
-17.43
-27.56
-35.88
-40.70
-41.30
-38.33
-33.50
-28.74
-25.28
-23.10
-21.15
-18.08
-13.21
-7.19
-1.90
0.30
-2.32
-10.07
-21.57
-34.22
-45.01
-51.48
-52.32
-47.54
-38.21
-25.92
-12.33
1.27
13.94
25.06
34.12
40.66
44.44
45.62
44.78
42.89
40.90
39.34
38.13
36.62
34.01
29.75
23.90
17.23
11.01
6.58
4.91
6.15
9.46
13.25
15.77
15.87
13.42
9.42
5.42
2.65
1.46
1.19
0.78
-0.51
-2.55
-4.51
-5.39
-4.72
-2.82
-0.57
1.12
1.86
1.85
1.60
1.51
1.61
1.60
1.34
0.95
0.93
1.78
3.63
6.08
8.38
9.72
9.62
8.10
5.68
3.08
0.94
-0.41
-1.05
-1.36
-1.80
-2.67
-4.02
-5.59
-7.04
-8.16
-8.97
-9.63
-10.21
-10.60
-10.54
-9.90
-8.99
-8.43
-8.93
-10.75
-13.44
-15.96
-17.17
-16.48
-14.18
-11.37
-9.24
-8.46
-8.77
-9.26
-8.92
-7.31
-4.83
-2.47
-1.23
-1.59
-3.28
-5.34
-6.70
-6.50
-4.48
-1.00
3.12
6.95
9.64
10.74
10.26
8.57
6.32
4.12
2.38
1.23
0.57
0.21
0.04
0.10
0.56
1.54
2.97
4.42
5.27
5.01
3.50
1.21
-0.97
-2.21
-2.13
-1.00
0.42
1.33
1.26
0.17
-1.56
-3.51
-5.35
-7.02
-8.64
-10.40
-12.48
-14.95
-17.76
-20.65
-23.17
-24.85
-25.25
-24.20
-21.81
-18.40
-14.51
-10.71
-7.46
-5.03
-3.44
-2.39
-1.47
-0.33
1.18
2.91
4.57
5.96
7.06
7.99
8.94
9.90
10.70
11.06
10.82
10.05
8.99
7.95
7.08
6.42
5.89
5.34
4.80
4.33
4.11
4.28
4.82
5.58
6.35
6.94
7.29
7.51
7.72
8.02
8.40
8.84
9.26
9.61
9.68
9.27
8.18
6.43
4.25
2.10
0.46
-0.52
-1.07
-1.73
-3.07
-5.32
-8.33
-11.59
-14.63
-17.17
-19.26
-21.18
-23.20
-25.34
-27.28
-28.45
-28.23
-26.29
-22.76
-18.16
-13.25
-8.72
-5.00
-2.20
-0.33
0.71
0.98
0.61
-0.14
-0.88
-1.18
-0.85
0.04
1.23
2.44
3.53
4.57
5.69
6.92
8.11
8.93
9.07
8.50
7.50
6.57
6.20
6.61
7.69
9.11
10.50
11.66
12.50
12.95
12.91
12.23
10.98
9.48
8.30
7.84
8.05
8.17
6.97
3.37
-2.96
-11.25
-19.78
-26.51
-29.95
-29.74
-26.72
-22.50
-18.65
-16.10
-14.85
-14.29
-13.68
-12.74
-11.72
-11.29
-11.95
-13.74
-16.13
-18.29
-19.54
-19.60
-18.61
-16.84
-14.44
-11.27
-7.06
-1.75
4.38
10.65
16.33
20.92
24.28
26.69
28.50
29.93
30.96
31.44
31.39
31.07
30.92
31.28
32.25
33.62
35.11
36.59
38.12
39.78
41.31
42.04
41.10
37.96
32.89
27.02
21.95
19.06
18.87
20.82
23.49
25.24
24.75
21.42
15.66
8.52
1.45
-4.23
-7.65
-8.72
-7.97
-6.38
-4.96
-4.41
-5.02
-6.68
-9.08
-11.76
-14.18
-15.69
-15.62
-13.46
-9.23
-3.56
2.38
7.24
10.05
10.54
9.21
6.92
4.55
2.58
1.12
0.08
-0.60
-0.83
-0.54
0.17
0.96
1.48
1.59
1.54
1.85
3.05
5.41
8.70
12.26
15.09
16.17
14.67
10.28
3.36
-4.97
-13.06
-19.22
-22.22
-21.69
-18.29
-13.43
-8.85
-6.01
-5.69
-7.75
-11.37
-15.30
-18.46
-20.31
-20.99
-21.13
-21.47
-22.45
-23.90
-25.24
-25.70
-24.75
-22.30
-18.66
-14.43
-10.24
-6.62
-3.86
-2.03
-0.94
-0.25
0.42
1.34
2.47
3.48
3.87
3.22
1.49
-0.82
-2.83
-3.68
-2.84
-0.49
2.65
5.67
7.78
8.66
8.39
7.35
5.99
4.71
3.75
3.21
3.06
3.12
3.20
3.07
2.56
1.68
0.58
-0.53
-1.40
-1.84
-1.75
-1.15
-0.25
0.68
1.21
1.03
-0.10
-2.14
-4.80
-7.62
-10.01
-11.56
-12.17
-12.20
-12.26
-12.98
-14.54
-16.53
-18.09
-18.32
-16.79
-13.83
-10.34
-7.31
-5.30
-4.17
-3.31
-2.09
-0.28
1.81
3.47
4.16
3.82
2.88
2.07
1.94
2.61
3.72
4.69
5.08
4.80
4.10
3.39
2.99
3.01
3.23
3.39
3.25
2.79
2.19
1.73
1.61
1.86
2.40
3.08
3.87
4.83
5.98
7.23
8.20
8.45
7.76
6.29
4.66
3.66
3.83
5.19
7.26
9.36
10.95
11.87
12.13
11.72
10.45
8.00
4.22
-0.63
-5.84
-10.46
-13.66
-14.99
-14.44
-12.40
-9.43
-6.10
-2.87
-0.13
1.92
3.19
3.72
3.77
3.64
3.71
4.27
5.46
7.20
9.26
11.33
13.13
14.60
15.79
16.79
17.55
17.77
17.02
14.97
11.70
7.85
4.44
2.45
2.43
4.15
6.71
9.02
10.25
10.20
9.28
8.22
7.62
7.68
8.18
8.68
8.80
8.41
7.68
6.95
6.51
6.39
6.30
5.65
3.88
0.77
-3.39
-7.74
-11.24
-12.99
-12.66
-10.62
-7.69
-4.85
-2.83
-1.98
-2.29
-3.46
-5.04
-6.48
-7.25
-6.92
-5.43
-3.03
-0.29
2.14
3.83
4.67
4.87
4.76
4.54
4.21
3.57
2.42
0.71
-1.42
-3.72
-5.93
-7.92
-9.69
-11.31
-12.74
-13.83
-14.28
-13.84
-12.45
-10.34
-7.96
-5.80
-4.18
-3.17
-2.66
-2.59
-3.04
-4.18
-6.14
-8.79
-11.69
-14.17
-15.61
-15.64
-14.29
-11.93
-9.14
-6.51
-4.38
-2.84
-1.65
-0.40
1.27
3.46
5.94
8.20
9.58
9.64
8.37
6.31
4.55
4.37
6.76
11.89
18.88
25.88
30.76
31.82
28.48
21.40
12.16
2.55
-6.05
-13.04
-18.54
-23.04
-26.97
-30.45
-33.21
-34.81
-34.89
-33.35
-30.31
-26.08
-20.89
-14.89
-8.14
-0.87
6.30
12.35
16.16
16.87
14.30
9.07
2.29
-4.81
-11.30
-16.73
-21.02
-24.25
-26.46
-27.64
-27.77
-27.05
-26.00
-25.28
-25.50
-26.84
-29.08
-31.56
-33.58
-34.71
-34.83
-34.14
-32.88
-31.19
-29.01
-26.30
-23.14
-19.88
-16.92
-14.45
-12.35
-10.18
-7.45
-3.90
0.26
4.51
8.26
11.12
13.17
14.75
16.39
18.43
20.88
23.37
25.43
26.74
27.35
27.59
27.83
28.30
28.98
29.73
30.43
31.13
32.04
33.36
35.15
37.15
38.91
39.89
39.53
37.32
32.74
25.34
14.94
1.81
-13.14
-28.48
-42.59
-54.10
-62.22
-66.84
-68.50
-68.05
-66.33
-63.98
-61.39
-58.75
-55.96
-52.65
-48.31
-42.58
-35.61
-28.16
-21.26
-15.70
-11.57
-7.91
-3.08
4.45
14.99
26.77
36.24
39.07
32.07
14.94
-9.12
-34.27
-54.05
-63.61
-61.26
-48.53
-29.34
-8.19
11.11
26.19
35.97
40.50
40.73
38.55
36.47
36.89
41.15
48.94
58.22
66.14
70.70
72.11
72.81
76.04
83.47
93.50
101.48
101.87
91.53
71.54
46.69
22.79
3.63
-10.14
-20.07
-27.89
-34.35
-39.59
-44.47
-51.27
-62.48
-78.22
-94.38
-102.99
-95.39
-66.34
-17.24
43.59
103.37
148.92
170.97
166.76
140.62
102.51
64.86
38.82
31.18
42.91
69.80
104.88
140.74
171.33
192.41
201.23
196.25
177.32
145.97
105.48
60.26
14.61
-28.14
-66.12
-98.51
-125.11
-146.04
-161.77
-173.31
-182.14
-189.82
-197.28
-204.38
-210.18
-213.69
-214.62
-213.47
-210.98
-207.27
-201.27
-191.16
-175.53
-154.44
-129.76
-104.51
-81.36
-61.50
-44.31
-28.14
-11.38
6.68
25.75
45.07
64.01
82.14
98.86
112.67
121.06
121.00
110.31
88.99
59.89
28.27
0.23
-19.13
-27.27
-24.77
-14.65
-1.08
12.02
21.83
26.94
27.19
23.18
16.00
7.06
-2.04
-10.05
-16.62
-22.64
-30.12
-41.05
-56.08
-73.65
-90.22
-101.76
-105.65
-101.96
-93.07
-82.14
-71.29
-60.91
-50.31
-39.13
-28.36
-20.17
-16.64
-18.46
-24.39
-31.80
-37.86
-40.64
-39.42
-34.50
-26.70
-17.12
-7.06
2.02
8.89
12.87
14.07
13.19
11.01
7.86
3.69
-1.64
-7.81
-13.66
-17.21
-16.29
-9.68
2.02
16.13
28.57
35.34
33.97
24.41
9.00
-8.58
-24.54
-36.11
-41.94
-42.18
-38.25
-32.59
-28.09
-27.50
-32.63
-43.69
-59.36
-77.43
-95.69
-112.54
-126.77
-136.87
-140.83
-136.40
-122.08
-98.22
-67.32
-33.30
0.01
30.34
57.91
84.65
113.00
144.84
181.05
221.76
266.44
313.88
361.74
407.10
446.40
476.34
495.18
503.23
502.54
495.59
484.02
468.09
448.39
425.34
399.57
371.98
343.67
315.51
287.69
259.71
230.81
202.50
176.56
154.16
135.40
119.55
105.64
92.58
79.41
65.66
53.86
46.44
44.22
46.09
49.96
54.12
57.78
60.98
49.08
16.12
-33.52
-86.93
-131.13
-159.63
-172.44
-172.94
-165.10
-151.88
-133.87
-111.30
-85.26
-58.00
-32.06
-9.29
9.16
22.44
31.69
39.28
46.56
53.56
59.04
61.58
60.38
55.40
47.09
36.34
24.97
13.64
2.46
-8.76
-20.09
-31.32
-42.19
-52.43
-61.46
-68.40
-74.90
-82.02
-89.64
-96.66
-102.11
-106.04
-109.30
-112.31
-115.51
-123.96
-140.33
-163.64
-190.25
-216.87
-242.51
-267.99
-293.65
-320.51
-357.11
-407.65
-470.05
-537.44
-603.10
-664.01
-720.93
-775.47
-831.84
-903.50
-995.91
-1102.22
-1205.44
-1287.25
-1336.21
-1350.43
-1334.52
-1230.23
-1019.64
-729.05
-416.50
-135.04
89.36
253.79
356.21
417.81
453.52
463.12
448.19
416.14
378.80
346.53
323.07
307.37
298.73
294.31
285.05
267.05
243.16
221.05
208.15
208.02
220.35
243.31
271.16
292.75
300.39
292.87
275.36
255.70
240.23
231.82
230.42
232.14
230.44
221.65
206.45
188.76
172.78
160.75
152.68
147.73
144.49
141.51
138.37
135.28
132.59
129.70
125.12
117.07
104.31
86.28
63.57
37.59
10.00
-17.27
-42.85
-66.10
-86.95
-105.54
-121.86
-135.56
-146.11
-153.10
-155.92
-154.45
-149.19
-141.11
-131.37
-120.94
-110.43
-100.02
-89.75
-78.46
-65.25
-49.95
-33.39
-17.02
-2.27
9.98
19.56
26.68
34.93
47.51
65.85
88.69
112.76
134.58
151.88
164.03
171.31
181.25
200.62
232.48
274.29
319.41
360.80
393.92
417.50
432.08
450.28
483.41
536.61
606.01
681.23
751.51
810.22
855.92
889.62
928.43
987.48
1074.14
1185.05
1309.43
1435.65
1555.13
1661.64
1674.41
1538.95
1241.02
823.41
365.07
-60.57
-411.53
-677.73
-858.00
-982.83
-1062.69
-1101.08
-1102.38
-1078.21
-1046.68
-1026.27
-1028.23
-1055.68
-1105.86
-1157.68
-1188.76
-1183.42
-1138.47
-1062.86
-971.92
-880.61
-799.55
-734.56
-677.73
-619.44
-553.72
-481.30
-408.10
-340.71
-282.71
-234.15
-193.73
-155.38
-114.66
-70.23
-24.01
20.73
61.56
97.85
130.21
159.17
186.62
213.91
241.94
271.42
302.94
336.47
370.72
402.98
429.81
448.99
460.30
464.97
463.99
456.43
439.63
411.04
370.80
323.06
274.51
230.89
193.77
159.82
123.72
83.18
42.08
9.54
-5.30
0.57
21.52
46.30
64.93
75.11
83.26
99.49
129.71
170.08
207.68
227.12
218.61
182.93
129.76
70.80
13.47
-41.42
-96.19
-150.71
-199.24
-232.43
-243.11
-231.52
-206.38
-181.04
-167.39
-171.37
-192.56
-226.23
-266.36
-307.24
-342.58
-364.85
-365.69
-338.68
-283.18
-206.71
-123.97
-52.07
-4.67
12.30
1.10
-30.33
-72.67
-118.18
-161.41
-198.22
-224.00
-233.68
-223.26
-191.94
-143.10
-82.64
-15.98
53.91
126.02
198.57
266.47
321.39
354.61
361.13
341.93
303.20
253.83
202.69
157.70
125.54
110.88
114.73
132.94
156.87
176.67
185.71
183.27
174.33
165.68
161.03
158.67
153.37
140.50
119.65
94.67
70.27
49.20
30.72
11.74
-10.58
-36.24
-62.34
-81.90
-87.94
-78.39
-56.82
-30.40
-6.09
12.06
23.97
32.61
40.97
52.03
65.08
76.73
82.51
78.51
62.48
34.33
-3.99
-49.10
-91.94
-124.70
-141.54
-140.86
-126.81
-108.38
-95.91
-96.76
-112.42
-138.48
-168.74
-198.14
-225.26
-252.40
-283.53
-321.90
-368.37
-421.05
-475.58
-526.48
-567.18
-591.30
-594.66
-576.82
-541.26
-494.29
-442.64
-391.44
-343.89
-301.37
-264.56
-234.24
-210.91
-194.19
-182.24
-172.19
-161.21
-147.93
-132.80
-117.63
-104.71
-95.41
-89.60
-85.66
-81.22
-74.12
-63.33
-49.22
-33.28
-17.44
-3.20
8.93
19.53
29.90
41.39
54.74
69.79
85.56
100.72
114.34
126.31
137.46
149.20
162.85
178.95
197.04
215.84
233.84
250.34
265.61
280.78
297.18
315.40
334.99
355.04
375.00
395.08
415.78
437.09
457.89
475.86
488.36
493.07
488.43
473.52
447.47
409.09
357.03
290.81
212.35
127.51
46.25
-19.31
-59.08
-69.32
-54.93
-27.44
0.32
19.97
30.11
34.47
36.70
36.47
29.98
14.12
-9.18
-31.90
-43.88
-38.75
-17.61
12.04
41.37
65.01
82.95
98.30
113.50
127.98
138.65
141.93
135.71
119.73
94.63
61.02
19.46
-28.81
-81.35
-134.65
-184.93
-228.63
-262.42
-283.04
-287.52
-274.16
-243.84
-200.85
-152.22
-105.71
-67.08
-38.31
-18.06
-3.87
5.39
8.75
4.60
-6.59
-20.83
-31.78
-34.04
-26.77
-14.74
-6.24
-8.37
-22.79
-44.45
-63.98
-72.13
-63.64
-38.47
-0.76
43.16
86.38
122.38
145.99
154.79
150.37
138.26
125.79
118.50
116.74
115.07
104.95
79.66
38.36
-12.87
-63.60
-103.67
-126.54
-130.44
-117.18
-90.83
-56.88
-22.23
5.25
18.83
16.02
0.94
-16.58
-25.68
-20.22
-2.22
19.86
36.92
45.26
48.26
52.80
63.12
77.20
87.91
88.60
78.10
61.40
46.06
36.79
33.23
31.75
29.61
27.63
28.86
34.86
42.84
46.57
40.29
22.81
-1.98
-28.21
-52.49
-76.67
-106.36
-146.37
-196.35
-249.70
-296.50
-328.65
-343.76
-345.75
-341.67
-336.96
-332.23
-322.73
-301.63
-264.13
-210.94
-148.56
-86.40
-32.29
10.99
46.04
78.15
111.03
144.02
172.59
191.76
199.92
200.41
199.82
203.73
213.15
224.17
230.93
229.79
221.86
212.11
205.66
204.32
205.68
205.61
201.35
193.79
186.77
184.49
188.77
197.95
207.82
213.41
211.01
198.87
177.26
147.66
112.12
73.00
33.34
-3.15
-32.60
-52.08
-60.68
-59.72
-52.27
-41.94
-31.90
-24.46
-21.39
-24.39
-34.87
-52.94
-76.43
-100.66
-119.71
-128.56
-125.29
-111.94
-93.79
-77.24
-67.49
-66.74
-73.73
-84.67
-95.01
-101.19
-101.70
-97.17
-89.60
-81.42
-74.81
-71.35
-71.77
-75.61
-80.99
-84.86
-83.93
-76.13
-61.79
-43.63
-25.61
-10.96
-1.04
4.69
7.33
7.06
2.67
-7.43
-23.35
-42.53
-60.25
-71.76
-74.74
-70.40
-62.53
-55.28
-50.85
-48.84
-47.14
-43.72
-38.15
-31.86
-27.15
-25.84
-28.27
-33.25
-38.77
-42.95
-44.70
-44.00
-41.82
-39.86
-40.04
-43.76
-51.31
-61.72
-73.00
-82.88
-89.62
-92.43
-91.62
-88.50
-84.90
-82.67
-83.22
-87.14
-94.13
-103.20
-113.07
-122.84
-132.35
-142.35
-153.74
-166.76
-179.95
-189.93
-192.09
-182.36
-159.02
-123.86
-81.97
-40.16
-5.02
18.69
28.71
25.28
10.68
-11.17
-34.97
-54.80
-65.22
-62.72
-46.64
-19.15
15.98
55.00
95.40
135.96
175.73
213.06
245.28
269.39
283.21
286.05
278.73
262.80
239.71
210.60
176.75
140.33
104.93
74.98
54.50
45.65
47.70
57.26
69.32
78.97
82.85
80.02
71.97
61.72
52.42
46.18
43.41
43.03
43.32
42.64
40.02
35.19
28.27
19.55
9.27
-2.25
-14.50
-26.88
-38.84
-49.97
-59.76
-67.46
-71.84
-71.50
-65.50
-54.03
-38.79
-22.50
-8.12
2.25
7.96
9.85
9.58
8.97
9.25
10.93
13.93
17.91
22.42
26.92
30.78
33.28
33.79
32.01
28.02
22.37
15.94
9.73
4.67
1.36
-0.11
-0.13
0.57
1.28
1.70
2.12
3.34
6.23
11.15
17.64
24.41
29.88
32.74
32.63
30.15
26.62
23.47
21.64
21.33
22.04
23.10
24.04
24.82
25.61
26.43
27.01
26.84
25.61
23.52
21.31
20.01
20.48
23.01
27.27
32.46
37.62
41.87
44.51
45.04
43.21
38.97
32.56
24.38
14.97
4.92
-5.10
-14.40
-22.43
-28.90
-33.88
-37.91
-41.76
-46.16
-51.53
-57.75
-64.14
-69.59
-72.87
-72.96
-69.40
-62.54
-53.57
-44.34
-36.81
-32.46
-31.78
-34.09
-37.85
-41.20
-42.75
-42.01
-39.54
-36.52
-34.23
-33.52
-34.52
-36.88
-39.99
-43.46
-47.32
-51.92
-57.71
-64.99
-73.75
-83.69
-94.12
-103.95
-111.60
-115.14
-112.69
-103.05
-86.32
-64.19
-39.59
-15.86
4.61
21.29
35.60
49.99
66.26
84.17
100.98
112.54
115.08
107.00
89.53
65.81
39.37
13.10
-10.59
-29.16
-39.47
-38.44
-24.76
-0.40
29.22
56.90
76.33
84.37
81.91
72.77
61.60
51.97
45.51
42.17
41.17
41.66
42.98
44.50
45.38
44.67
41.63
36.17
29.04
21.77
16.05
13.04
13.04
15.47
19.19
22.97
25.88
27.34
27.18
25.61
23.11
20.33
17.79
15.77
14.16
12.64
10.87
8.70
6.20
3.56
1.04
-1.10
-2.56
-3.07
-2.53
-1.09
0.80
2.51
3.50
3.57
2.90
1.96
1.21
0.98
1.34
2.15
3.13
3.98
4.41
4.19
3.23
1.61
-0.41
-2.44
-4.14
-5.38
-6.28
-7.05
-7.82
-8.46
-8.72
-8.37
-7.48
-6.41
-5.61
-5.32
-5.50
-5.80
-5.88
-5.58
-4.99
-4.37
-3.91
-3.67
-3.53
-3.43
-3.30
-3.15
-2.94
-2.57
-1.92
-0.99
0.04
0.86
1.20
0.97
0.38
-0.22
-0.53
-0.41
0.04
0.56
0.86
0.78
0.29
-0.43
-1.13
-1.58
-1.60
-1.20
-0.54
0.03
0.17
-0.30
-1.31
-2.53
-3.55
-4.11
-4.17
-3.90
-3.52
-3.14
-2.76
-2.32
-1.78
-1.20
-0.70
-0.33
-0.15
-0.17
-0.38
-0.75
-1.15
-1.47
-1.60
-1.54
-1.46
-1.60
-2.11
-2.95
-3.88
-4.54
-4.73
-4.48
-4.03
-3.61
-3.29
-2.96
-2.47
-1.83
-1.28
-1.11
-1.51
-2.37
-3.39
-4.18
-4.55
-4.54
-4.39
-4.35
-4.42
-4.42
-4.11
-3.37
-2.34
-1.28
-0.45
0.02
0.19
0.19
0.17
0.15
0.09
-0.09
-0.45
-0.90
-1.30
-1.50
-1.52
-1.50
-1.62
-1.96
-2.43
-2.80
-2.87
-2.64
-2.30
-2.17
-2.45
-3.09
-3.80
-4.23
-4.15
-3.64
-2.93
-2.32
-2.00
-2.04
-2.37
-2.98
-3.75
-4.49
-5.00
-5.06
-4.65
-3.91
-3.15
-2.71
-2.77
-3.32
-4.13
-4.93
-5.43
-5.55
-5.38
-5.15
-5.13
-5.43
-5.98
-6.58
-7.03
-7.33
-7.74
-8.61
-10.14
-12.18
-14.22
-15.65
-16.12
-15.76
-15.12
-14.98
-15.87
-17.81
-20.32
-22.67
-24.28
-24.89
-24.69
-24.07
-23.39
-22.77
-22.22
-21.64
-20.93
-20.05
-18.83
-16.94
-13.98
-9.70
-4.39
1.14
5.59
7.79
7.28
4.64
1.31
-1.07
-1.37
0.53
3.82
7.39
10.49
12.92
15.02
17.04
18.87
20.12
20.59
20.88
22.37
26.59
34.23
44.38
54.68
62.20
64.85
62.25
55.76
47.69
40.06
33.77
28.53
23.59
18.46
13.31
8.82
5.60
3.75
2.88
2.37
1.82
1.17
0.61
0.34
0.36
0.44
0.26
-0.40
-1.58
-3.13
-4.74
-6.05
-6.73
-6.59
-5.71
-4.39
-3.09
-2.24
-2.08
-2.64
-3.77
-5.27
-6.87
-8.24
-9.04
-8.98
-7.99
-6.31
-4.47
-3.04
-2.45
-2.75
-3.67
-4.81
-5.91
-6.98
-8.22
-9.79
-11.59
-13.11
-13.71
-12.91
-10.74
-7.73
-4.75
-2.55
-1.52
-1.54
-2.20
-3.01
-3.67
-4.16
-4.63
-5.23
-5.95
-6.61
-6.92
-6.75
-6.22
-5.63
-5.36
-5.60
-6.26
-6.99
-7.34
-7.03
-6.07
-4.78
-3.56
-2.73
-2.36
-2.27
-2.21
-2.00
-1.62
-1.22
-1.03
-1.22
-1.85
-2.76
-3.67
-4.33
-4.60
-4.55
-4.38
-4.25
-4.24
-4.28
-4.28
-4.16
-3.98
-3.80
-3.69
-3.58
-3.39
-3.03
-2.54
-2.07
-1.75
-1.71
-1.89
-2.11
-2.16
-1.90
-1.30
-0.45
0.58
1.75
3.02
4.30
5.37
6.01
6.07
5.53
4.61
3.59
2.73
2.12
1.65
1.18
0.57
-0.15
-0.83
-1.32
-1.51
-1.42
-1.11
-0.69
-0.23
0.20
0.50
0.57
0.34
-0.22
-1.07
-2.11
-3.21
-4.22
-5.04
-5.61
-5.88
-5.87
-5.68
-5.44
-5.33
-5.48
-5.83
-6.23
-6.45
-6.31
-5.80
-5.04
-4.26
-3.68
-3.39
-3.40
-3.58
-3.78
-3.85
-3.70
-3.29
-2.60
-1.65
-0.48
0.87
2.38
3.97
5.56
6.94
7.88
8.19
7.83
7.03
6.13
5.47
5.22
5.28
5.38
5.29
4.90
4.26
3.52
2.80
2.16
1.64
1.24
1.00
0.89
0.83
0.71
0.47
0.12
-0.24
-0.51
-0.69
-0.79
-0.86
-0.87
-0.73
-0.40
0.04
0.36
0.32
-0.15
-0.94
-1.77
-2.40
-2.75
-2.90
-3.05
-3.36
-3.83
-4.28
-4.44
-4.10
-3.18
-1.80
-0.21
1.28
2.46
3.20
3.57
3.67
3.64
3.50
3.26
2.90
2.48
2.08
1.78
1.60
1.51
1.45
1.42
1.46
1.66
2.09
2.77
3.56
4.24
4.64
4.65
4.35
3.91
3.52
3.32
3.34
3.41
3.36
3.01
2.30
1.33
0.33
-0.48
-0.91
-0.91
-0.58
-0.12
0.21
0.13
-0.46
-1.54
-2.92
-4.34
-5.53
-6.28
-6.47
-6.14
-5.38
-4.28
-2.96
-1.52
-0.07
1.23
2.24
2.89
3.16
3.12
2.90
2.64
2.42
2.23
1.99
1.62
1.11
0.57
0.18
0.15
0.56
1.36
2.36
3.29
3.90
4.03
3.69
2.97
2.01
0.92
-0.18
-1.23
-2.19
-2.99
-3.64
-4.13
-4.51
-4.81
-5.00
-5.02
-4.84
-4.52
-4.21
-4.06
-4.17
-4.46
-4.71
-4.60
-3.92
-2.68
-1.14
0.30
1.29
1.66
1.48
1.04
0.66
0.58
0.86
1.36
1.89
2.26
2.44
2.44
2.32
2.10
1.75
1.28
0.77
0.30
-0.07
-0.41
-0.93
-1.77
-2.93
-4.19
-5.15
-5.47
-5.09
-4.26
-3.48
-3.23
-3.72
-4.88
-6.37
-7.81
-8.89
-9.44
-9.39
-8.73
-7.55
-5.97
-4.22
-2.54
-1.11
-0.07
0.62
0.99
1.12
1.02
0.71
0.28
-0.11
-0.22
0.11
0.88
1.86
2.76
3.35
3.65
3.85
4.22
4.91
5.80
6.61
7.02
6.86
6.18
5.22
4.26
3.55
3.13
2.99
3.03
3.14
3.27
3.32
3.18
2.80
2.11
1.12
-0.12
-1.52
-2.97
-4.35
-5.53
-6.36
-6.82
-7.03
-7.21
-7.53
-8.04
-8.57
-8.79
-8.47
-7.57
-6.30
-5.02
-4.04
-3.42
-3.02
-2.61
-2.02
-1.25
-0.38
0.44
1.15
1.67
1.94
1.88
1.50
0.95
0.50
0.43
0.89
1.77
2.72
3.36
3.41
2.96
2.30
1.79
1.69
1.96
2.42
2.79
2.88
2.66
2.25
1.76
1.27
0.81
0.36
-0.08
-0.46
-0.73
-0.90
-1.02
-1.16
-1.40
-1.74
-2.13
-2.52
-2.87
-3.17
-3.45
-3.69
-3.86
-3.90
-3.74
-3.39
-2.86
-2.19
-1.37
-0.36
0.81
2.01
2.98
3.49
3.41
2.89
2.23
1.81
1.85
2.40
3.32
4.35
5.28
5.89
6.10
5.92
5.48
5.00
4.71
4.75
5.02
5.26
5.13
4.47
3.41
2.27
1.42
1.02
1.02
1.14
1.05
0.58
-0.26
-1.32
-2.38
-3.34
-4.17
-4.93
-5.71
-6.47
-7.11
-7.46
-7.31
-6.64
-5.57
-4.39
-3.39
-2.72
-2.25
-1.73
-0.92
0.23
1.49
2.52
3.06
3.03
2.60
2.06
1.64
1.42
1.36
1.36
1.34
1.33
1.42
1.73
2.35
3.22
4.15
4.78
4.81
4.04
2.62
0.89
-0.70
-1.86
-2.52
-2.80
-2.94
-3.05
-3.13
-3.13
-3.02
-2.80
-2.51
-2.20
-1.86
-1.58
-1.48
-1.77
-2.53
-3.69
-4.97
-6.06
-6.77
-7.05
-7.03
-6.80
-6.34
-5.60
-4.57
-3.32
-2.08
-1.03
-0.24
0.33
0.82
1.24
1.49
1.43
1.03
0.40
-0.18
-0.43
-0.30
0.11
0.56
0.86
1.01
1.14
1.41
1.92
2.57
3.14
3.44
3.39
3.11
2.83
2.70
2.73
2.73
2.48
1.85
0.92
-0.05
-0.80
-1.18
-1.25
-1.25
-1.39
-1.82
-2.49
-3.25
-4.01
-4.72
-5.36
-5.91
-6.28
-6.34
-6.00
-5.20
-4.01
-2.56
-1.00
0.50
1.83
2.88
3.56
3.85
3.78
3.47
3.08
2.73
2.49
2.36
2.30
2.27
2.27
2.32
2.46
2.70
3.01
3.33
3.58
3.72
3.74
3.67
3.59
3.58
3.64
3.76
3.85
3.82
3.55
3.06
2.40
1.71
1.12
0.68
0.31
-0.12
-0.75
-1.64
-2.69
-3.72
-4.55
-5.06
-5.28
-5.33
-5.34
-5.36
-5.33
-5.18
-4.82
-4.24
-3.52
-2.72
-1.91
-1.14
-0.47
0.01
0.19
0.05
-0.36
-0.87
-1.28
-1.42
-1.23
-0.78
-0.25
0.20
0.42
0.41
0.27
0.16
0.20
0.43
0.81
1.25
1.61
1.77
1.64
1.20
0.49
-0.37
-1.22
-1.96
-2.54
-2.99
-3.37
-3.69
-3.96
-4.17
-4.36
-4.59
-4.91
-5.24
-5.40
-5.14
-4.31
-2.97
-1.41
-0.03
0.81
0.93
0.46
-0.28
-0.90
-1.13
-0.92
-0.49
-0.13
-0.02
-0.15
-0.26
-0.04
0.65
1.63
2.55
3.01
2.85
2.18
1.29
0.46
-0.27
-1.00
-1.88
-2.89
-3.86
-4.53
-4.73
-4.52
-4.15
-3.94
-4.04
-4.44
-4.89
-5.14
-5.02
-4.54
-3.86
-3.15
-2.52
-2.03
-1.70
-1.47
-1.33
-1.21
-1.05
-0.80
-0.48
-0.12
0.19
0.39
0.47
0.49
0.50
0.59
0.74
0.90
1.03
1.10
1.16
1.31
1.62
2.12
2.69
3.14
3.31
3.11
2.59
1.95
1.35
0.88
0.50
0.12
-0.32
-0.80
-1.25
-1.64
-1.96
-2.30
-2.70
-3.15
-3.56
-3.78
-3.75
-3.49
-3.13
-2.77
-2.46
-2.13
-1.63
-0.88
0.08
1.04
1.75
1.99
1.75
1.23
0.75
0.62
0.93
1.60
2.36
2.99
3.38
3.53
3.52
3.42
3.24
2.89
2.36
1.69
1.00
0.50
0.33
0.47
0.71
0.75
0.38
-0.43
-1.44
-2.29
-2.69
-2.57
-2.13
-1.70
-1.53
-1.68
-1.94
-2.04
-1.77
-1.15
-0.39
0.22
0.47
0.37
0.07
-0.16
-0.13
0.21
0.74
1.23
1.49
1.44
1.18
0.89
0.77
0.85
1.06
1.23
1.23
1.06
0.84
0.71
0.77
0.95
1.11
1.08
0.80
0.31
-0.23
-0.66
-0.83
-0.70
-0.35
-0.03
0.00
-0.43
-1.30
-2.24
-2.80
-2.58
-1.54
-0.05
1.29
1.91
1.64
0.76
-0.19
-0.68
-0.50
0.21
1.11
1.86
2.30
2.48
2.53
2.59
2.66
2.65
2.46
2.09
1.61
1.15
0.80
0.64
0.66
0.79
0.98
1.17
1.35
1.52
1.68
1.80
1.88
1.87
1.76
1.58
1.35
1.13
0.88
0.59
0.23
-0.23
-0.76
-1.29
-1.75
-2.04
-2.14
-2.00
-1.61
-0.97
-0.11
0.87
1.83
2.64
3.15
3.29
3.06
2.53
1.88
1.28
0.94
0.96
1.32
1.88
2.46
2.90
3.16
3.27
3.28
3.23
3.08
2.81
2.38
1.82
1.17
0.51
-0.07
-0.42
-0.43
-0.07
0.60
1.39
2.08
2.50
2.60
2.45
2.18
1.86
1.52
1.12
0.63
0.12
-0.31
-0.48
-0.31
0.18
0.85
1.48
1.92
2.12
2.13
2.10
2.12
2.18
2.18
2.02
1.68
1.23
0.84
0.61
0.60
0.73
0.88
0.96
0.95
0.90
0.91
1.01
1.21
1.42
1.57
1.58
1.43
1.17
0.83
0.47
0.08
-0.34
-0.76
-1.10
-1.25
-1.15
-0.86
-0.54
-0.33
-0.34
-0.53
-0.72
-0.76
-0.57
-0.20
0.17
0.38
0.37
0.19
-0.03
-0.22
-0.37
-0.55
-0.78
-1.03
-1.18
-1.08
-0.73
-0.19
0.33
0.67
0.74
0.59
0.29
-0.09
-0.57
-1.13
-1.69
-2.09
-2.14
-1.73
-1.03
-0.41
-0.30
-0.99
-2.38
-4.02
-5.29
-5.74
-5.27
-4.20
-3.05
-2.26
-1.95
-1.94
-1.89
-1.55
-0.93
-0.26
0.18
0.23
-0.03
-0.43
-0.77
-0.99
-1.15
-1.35
-1.65
-2.00
-2.29
-2.42
-2.40
-2.29
-2.20
-2.20
-2.26
-2.32
-2.30
-2.18
-2.03
-1.94
-1.93
-1.99
-2.01
-1.85
-1.46
-0.89
-0.30
0.07
0.02
-0.51
-1.41
-2.48
-3.46
-4.16
-4.48
-4.39
-3.91
-3.06
-1.94
-0.72
0.32
0.96
1.06
0.70
0.06
-0.62
-1.20
-1.63
-1.90
-2.00
-1.82
-1.28
-0.37
0.73
1.72
2.27
2.26
1.73
0.94
0.21
-0.28
-0.52
-0.66
-0.93
-1.44
-2.16
-2.88
-3.33
-3.31
-2.83
-2.08
-1.33
-0.81
-0.65
-0.77
-1.04
-1.33
-1.57
-1.76
-1.94
-2.06
-2.09
-2.01
-1.90
-1.94
-2.25
-2.85
-3.58
-4.17
-4.33
-3.97
-3.14
-2.11
-1.17
-0.54
-0.32
-0.42
-0.63
-0.71
-0.49
0.03
0.67
1.19
1.39
1.27
1.02
0.87
0.95
1.18
1.33
1.18
0.74
0.19
-0.14
-0.05
0.45
1.12
1.67
1.91
1.85
1.62
1.39
1.23
1.15
1.09
0.99
0.81
0.55
0.19
-0.27
-0.78
-1.25
-1.56
-1.61
-1.35
-0.81
-0.15
0.42
0.70
0.49
-0.21
-1.28
-2.42
-3.28
-3.58
-3.27
-2.47
-1.43
-0.41
0.47
1.19
1.75
2.16
2.39
2.39
2.22
2.05
2.08
2.43
3.02
3.57
3.77
3.41
2.54
1.43
0.47
-0.04
0.02
0.51
1.17
1.73
2.04
2.07
1.90
1.64
1.38
1.16
0.96
0.71
0.38
-0.03
-0.46
-0.77
-0.88
-0.77
-0.50
-0.24
-0.17
-0.36
-0.72
-1.08
-1.18
-0.88
-0.18
0.77
1.73
2.47
2.84
2.84
2.61
2.37
2.23
2.23
2.27
2.18
1.88
1.37
0.79
0.26
-0.20
-0.69
-1.31
-2.11
-2.97
-3.67
-4.04
-4.09
-4.02
-4.10
-4.51
-5.21
-5.97
-6.47
-6.47
-5.93
-4.97
-3.83
-2.81
-2.14
-1.95
-2.24
-2.84
-3.52
-4.03
-4.22
-4.09
-3.75
-3.36
-3.04
-2.77
-2.45
-2.04
-1.56
-1.11
-0.83
-0.76
-0.81
-0.84
-0.71
-0.43
-0.17
-0.11
-0.31
-0.62
-0.79
-0.59
-0.03
0.66
1.14
1.21
0.92
0.48
0.17
0.05
-0.01
-0.23
-0.74
-1.45
-2.12
-2.49
-2.46
-2.17
-1.86
-1.74
-1.94
-2.35
-2.81
-3.14
-3.21
-3.02
-2.68
-2.34
-2.11
-1.99
-1.90
-1.72
-1.42
-1.06
-0.81
-0.79
-0.97
-1.19
-1.19
-0.84
-0.13
0.76
1.55
2.02
2.02
1.61
0.96
0.31
-0.10
-0.16
0.07
0.42
0.69
0.77
0.69
0.63
0.72
0.98
1.26
1.38
1.25
0.94
0.64
0.55
0.69
0.92
1.00
0.74
0.12
-0.67
-1.37
-1.83
-2.00
-2.07
-2.27
-2.77
-3.64
-4.75
-5.87
-6.74
-7.11
-6.88
-6.09
-4.96
-3.73
-2.64
-1.79
-1.12
-0.45
0.44
1.64
3.03
4.36
5.32
5.71
5.59
5.16
4.67
4.25
3.86
3.37
2.69
1.93
1.34
1.27
1.80
2.80
3.86
4.56
4.69
4.33
3.81
3.43
3.30
3.35
3.35
3.14
2.72
2.15
1.55
0.93
0.24
-0.55
-1.45
-2.32
-3.00
-3.37
-3.36
-2.98
-2.25
-1.26
-0.07
1.17
2.30
3.14
3.62
3.71
3.50
3.14
2.74
2.38
2.11
1.91
1.80
1.73
1.70
1.69
1.72
1.84
2.11
2.57
3.24
3.99
4.61
4.79
4.26
2.98
1.16
-0.74
-2.19
-2.86
-2.71
-2.06
-1.36
-0.99
-1.10
-1.56
-2.11
-2.50
-2.63
-2.49
-2.10
-1.49
-0.65
0.33
1.26
1.89
2.03
1.68
1.09
0.54
0.28
0.35
0.57
0.73
0.75
0.69
0.78
1.18
1.91
2.81
3.57
3.95
3.86
3.36
2.68
2.03
1.60
1.43
1.45
1.46
1.25
0.66
-0.26
-1.33
-2.27
-2.85
-2.97
-2.70
-2.22
-1.71
-1.27
-1.00
-1.02
-1.52
-2.69
-4.62
-7.13
-9.73
-11.82
-12.83
-12.55
-11.09
-8.87
-6.40
-4.07
-2.09
-0.49
0.72
1.54
1.94
1.90
1.48
0.88
0.36
0.17
0.45
1.14
2.07
2.94
3.44
3.44
2.95
2.16
1.31
0.53
-0.20
-1.07
-2.21
-3.66
-5.18
-6.41
-7.00
-6.83
-6.04
-4.96
-3.91
-3.11
-2.54
-2.03
-1.43
-0.62
0.38
1.37
2.11
2.39
2.17
1.62
1.12
1.06
1.63
2.73
3.97
4.87
5.17
4.99
4.70
4.68
5.11
5.80
6.41
6.65
6.49
6.10
5.77
5.60
5.54
5.33
4.77
3.83
2.64
1.47
0.52
-0.12
-0.49
-0.69
-0.77
-0.79
-0.78
-0.86
-1.17
-1.87
-2.96
-4.26
-5.49
-6.34
-6.64
-6.40
-5.80
-5.04
-4.24
-3.38
-2.36
-1.17
0.15
1.44
2.52
3.32
3.84
4.19
4.46
4.73
4.96
5.13
5.15
5.07
4.92
4.82
4.86
5.08
5.45
5.88
6.23
6.34
6.13
5.64
5.04
4.58
4.47
4.78
5.32
5.73
5.64
4.88
3.58
2.10
0.84
0.05
-0.31
-0.48
-0.71
-1.14
-1.76
-2.48
-3.27
-4.20
-5.29
-6.45
-7.41
-7.87
-7.63
-6.74
-5.46
-4.12
-2.93
-1.92
-0.95
0.15
1.43
2.77
3.94
4.73
5.02
4.88
4.49
4.06
3.77
3.67
3.67
3.63
3.53
3.41
3.40
3.53
3.68
3.61
3.12
2.16
0.95
-0.17
-0.90
-1.13
-0.99
-0.75
-0.66
-0.86
-1.37
-2.07
-2.85
-3.58
-4.24
-4.85
-5.42
-5.99
-6.53
-6.94
-7.06
-6.78
-6.04
-4.91
-3.58
-2.25
-1.06
-0.08
0.76
1.56
2.40
3.28
4.10
4.74
5.11
5.19
5.03
4.76
4.55
4.54
4.76
5.13
5.45
5.48
5.07
4.24
3.18
2.14
1.35
0.85
0.53
0.24
-0.12
-0.53
-0.91
-1.20
-1.43
-1.73
-2.21
-2.88
-3.67
-4.49
-5.29
-6.12
-7.03
-7.97
-8.76
-9.08
-8.67
-7.43
-5.57
-3.47
-1.55
-0.06
1.06
1.99
2.92
3.88
4.81
5.58
6.12
6.50
6.82
7.20
7.69
8.26
8.85
9.44
10.05
10.62
11.05
11.25
11.23
11.14
11.20
11.59
12.54
13.98
15.53
16.62
16.84
16.27
15.39
14.89
15.33
17.17
20.21
23.63
26.40
27.87
28.21
28.22
28.87
30.75
34.36
39.38
44.78
49.24
51.82
52.51
52.07
51.66
52.55
56.69
65.52
79.14
95.76
111.84
122.95
124.95
115.35
89.85
49.84
2.33
-42.60
-76.94
-98.14
-108.26
-111.08
-109.51
-105.02
-97.49
-87.17
-75.37
-64.17
-55.32
-49.28
-45.34
-42.06
-38.12
-32.34
-24.54
-15.58
-6.92
0.22
5.51
9.40
12.79
16.46
21.14
26.73
32.55
37.61
40.78
41.99
41.67
40.54
39.34
38.86
39.24
40.40
42.08
44.08
46.44
49.35
53.08
57.89
64.04
71.15
78.88
86.88
94.91
102.86
110.74
118.63
126.66
135.09
143.43
151.40
158.71
165.05
170.05
173.05
173.15
168.73
162.60
155.43
147.62
139.42
131.01
122.54
114.14
105.99
98.28
91.32
84.76
78.45
72.33
66.38
60.63
55.11
49.90
45.10
40.95
37.12
33.49
29.99
26.58
23.28
20.10
17.11
14.38
12.04
9.89
7.83
5.83
3.89
2.03
0.32
-1.19
-2.47
-3.46
-4.31
-5.13
-5.98
-6.91
-7.93
-9.01
-10.11
-11.19
-12.28
-13.45
-14.77
-16.29
-17.99
-19.78
-21.53
-23.11
-24.52
-25.81
-27.19
-28.88
-31.08
-33.80
-36.93
-40.20
-43.39
-46.41
-49.44
-52.83
-57.03
-62.35
-68.82
-76.15
-83.82
-91.36
-98.57
-105.66
-113.20
-121.92
-132.33
-144.52
-158.08
-172.33
-186.58
-200.42
-213.90
-227.40
-241.64
-257.51
-276.03
-297.98
-323.27
-350.34
-375.88
-395.45
-404.77
-401.35
-385.44
-359.97
-329.28
-297.51
-267.36
-239.90
-215.08
-192.63
-172.52
-154.89
-139.64
-126.14
-113.43
-100.64
-87.50
-74.43
-62.25
-51.83
-43.69
-37.86
-33.95
-31.24
-28.98
-26.51
-23.40
-19.50
-14.84
-9.44
-3.28
3.70
11.47
19.71
27.79
34.91
40.44
44.25
46.77
48.71
50.67
52.82
54.83
56.24
56.73
56.33
55.38
54.28
53.32
52.55
51.91
51.32
50.82
50.56
50.64
51.02
51.44
51.49
50.72
48.89
46.06
42.63
39.13
36.03
33.58
31.69
30.08
28.49
26.74
24.80
22.67
20.30
17.60
14.56
11.30
8.04
5.01
2.29
-0.23
-2.69
-5.20
-7.66
-9.76
-11.14
-11.46
-10.54
-8.35
-5.06
-0.95
3.64
8.33
12.81
16.82
20.24
23.03
25.25
27.01
28.42
29.65
30.80
31.95
33.07
34.06
34.83
35.31
35.52
35.57
35.57
35.56
35.54
35.43
35.19
34.71
33.89
32.63
30.83
28.51
25.78
22.94
20.32
18.22
16.74
15.75
14.96
14.06
12.82
11.24
9.46
7.67
5.98
4.29
2.38
-0.03
-2.99
-6.30
-9.42
-11.79
-12.93
-12.65
-10.97
-8.02
-3.94
1.10
6.75
12.42
17.39
21.02
22.98
23.40
22.69
21.39
19.90
18.46
17.23
16.32
15.86
15.89
16.27
16.78
17.19
17.46
17.70
18.07
18.64
19.23
19.52
19.18
18.03
16.10
13.57
10.63
7.47
4.29
1.34
-1.11
-2.98
-4.41
-5.84
-7.76
-10.48
-13.94
-17.62
-20.86
-23.01
-23.69
-22.83
-20.62
-17.27
-13.01
-8.10
-2.86
2.25
6.79
10.41
13.05
14.86
16.12
17.07
17.80
18.23
18.21
17.67
16.70
15.57
14.70
14.42
14.85
15.86
17.12
18.24
18.98
19.28
19.22
18.94
18.40
17.47
16.01
13.94
11.39
8.65
5.99
3.51
1.15
-1.23
-3.66
-6.07
-8.28
-10.24
-12.15
-14.39
-17.34
-21.05
-25.15
-28.86
-31.29
-31.81
-30.24
-26.91
-22.48
-17.64
-12.89
-8.46
-4.36
-0.49
3.12
6.42
9.20
11.31
12.70
13.49
13.93
14.29
14.73
15.25
15.76
16.16
16.48
16.85
17.44
18.32
19.40
20.47
21.30
21.71
21.60
20.97
19.82
18.18
16.24
14.20
12.37
10.87
9.66
8.43
6.84
4.72
2.16
-0.50
-2.85
-4.71
-6.14
-7.41
-8.78
-10.41
-12.32
-14.51
-17.02
-19.91
-23.07
-26.17
-28.70
-30.07
-29.94
-28.20
-25.05
-20.78
-15.74
-10.25
-4.70
0.49
4.86
8.13
10.33
11.67
12.48
13.01
13.31
13.38
13.24
13.10
13.23
13.89
15.06
16.48
17.69
18.38
18.49
18.31
18.25
18.57
19.21
19.83
20.01
19.55
18.51
17.15
15.74
14.45
13.25
12.07
10.88
9.70
8.62
7.60
6.56
5.35
3.85
2.06
0.08
-1.87
-3.57
-4.86
-5.79
-6.61
-7.75
-9.57
-12.20
-15.45
-18.74
-21.45
-22.94
-22.83
-20.94
-17.39
-12.51
-6.85
-1.09
4.09
8.21
11.09
12.80
13.58
13.70
13.34
12.69
11.97
11.43
11.24
11.48
11.98
12.56
13.04
13.39
13.70
14.06
14.50
14.95
15.28
15.34
15.05
14.38
13.33
11.89
10.08
7.91
5.48
2.98
0.61
-1.47
-3.16
-4.53
-5.75
-7.13
-8.92
-11.30
-14.14
-17.18
-19.97
-22.12
-23.31
-23.36
-22.24
-19.96
-16.65
-12.53
-8.01
-3.56
0.36
3.48
5.78
7.42
8.65
9.62
10.39
10.93
11.21
11.26
11.17
11.04
10.97
11.02
11.29
11.84
12.70
13.77
14.78
15.41
15.37
14.56
13.04
11.06
8.89
6.80
4.91
3.24
1.74
0.31
-1.18
-2.85
-4.77
-6.95
-9.30
-11.75
-14.26
-16.87
-19.68
-22.75
-26.02
-29.23
-31.95
-33.68
-33.97
-32.55
-29.44
-24.93
-19.45
-13.58
-7.86
-2.69
1.70
5.26
8.07
10.19
11.68
12.51
12.69
12.31
11.55
10.71
10.08
9.88
10.25
11.18
12.59
14.32
16.14
17.82
19.14
19.92
20.07
19.62
18.66
17.35
15.86
14.32
12.84
11.42
10.02
8.56
7.00
5.31
3.43
1.28
-1.19
-3.93
-6.77
-9.43
-11.67
-13.46
-14.97
-16.54
-18.37
-20.52
-22.70
-24.57
-25.83
-26.36
-26.18
-25.31
-23.69
-21.14
-17.54
-12.98
-7.84
-2.68
1.89
5.47
7.95
9.50
10.44
11.06
11.62
12.22
12.87
13.54
14.19
14.83
15.51
16.30
17.27
18.41
19.60
20.66
21.35
21.56
21.29
20.63
19.73
18.66
17.43
16.00
14.38
12.69
11.06
9.60
8.31
7.14
6.03
4.98
3.96
2.89
1.71
0.36
-1.06
-2.34
-3.29
-3.87
-4.36
-5.24
-6.98
-9.74
-13.23
-16.83
-19.81
-21.60
-21.97
-20.95
-18.70
-15.42
-11.24
-6.39
-1.19
3.96
8.59
12.29
14.79
15.96
15.92
15.01
13.68
12.45
11.71
11.59
11.95
12.51
12.99
13.27
13.47
13.77
14.28
14.97
15.63
16.09
16.26
16.23
16.09
15.85
15.37
14.46
12.99
10.94
8.52
5.97
3.54
1.41
-0.35
-1.73
-2.82
-3.85
-5.19
-7.25
-10.25
-14.16
-18.55
-22.75
-26.06
-27.94
-28.10
-26.54
-23.42
-19.10
-14.03
-8.78
-3.89
0.23
3.41
5.68
7.18
8.06
8.42
8.29
7.78
7.09
6.43
6.07
6.14
6.70
7.68
8.93
10.26
11.41
12.18
12.41
12.14
11.46
10.58
9.65
8.69
7.61
6.34
4.83
3.14
1.40
-0.32
-2.01
-3.69
-5.43
-7.23
-9.09
-11.04
-13.17
-15.58
-18.37
-21.51
-24.81
-27.93
-30.39
-31.78
-31.77
-30.26
-27.34
-23.34
-18.68
-13.78
-9.02
-4.67
-0.88
2.33
4.93
6.97
8.52
9.73
10.77
11.72
12.62
13.38
13.91
14.22
14.42
14.74
15.32
16.19
17.18
18.11
18.76
19.10
19.10
18.76
18.03
16.84
15.24
13.44
11.71
10.25
9.09
8.09
7.04
5.82
4.43
2.92
1.34
-0.27
-1.98
-3.79
-5.69
-7.58
-9.33
-10.83
-12.09
-13.25
-14.57
-16.40
-18.95
-22.19
-25.75
-29.02
-31.26
-31.93
-30.77
-27.88
-23.63
-18.55
-13.19
-8.03
-3.39
0.55
3.74
6.26
8.16
9.50
10.40
11.00
11.49
12.04
12.65
13.20
13.50
13.46
13.18
12.96
13.13
13.89
15.18
16.69
18.04
18.95
19.32
19.24
18.90
18.39
17.67
16.68
15.33
13.70
11.94
10.24
8.71
7.36
6.04
4.64
3.11
1.52
-0.06
-1.59
-3.13
-4.75
-6.47
-8.23
-9.90
-11.43
-12.87
-14.48
-16.47
-18.96
-21.70
-24.17
-25.77
-26.03
-24.83
-22.35
-18.96
-14.96
-10.60
-6.04
-1.48
2.77
6.36
9.01
10.63
11.34
11.42
11.19
10.91
10.73
10.70
10.81
11.01
11.29
11.70
12.33
13.26
14.49
15.92
17.32
18.40
19.01
19.10
18.78
18.22
17.53
16.74
15.78
14.49
12.76
10.61
8.13
5.53
3.01
0.73
-1.24
-2.88
-4.31
-5.64
-7.07
-8.82
-11.06
-13.82
-16.97
-20.15
-22.90
-24.83
-25.69
-25.42
-24.04
-21.59
-18.11
-13.73
-8.73
-3.63
0.94
4.47
6.66
7.60
7.66
7.36
7.19
7.43
8.15
9.23
10.42
11.41
11.91
11.79
11.11
10.15
9.28
8.78
8.76
9.07
9.44
9.61
9.41
8.81
7.86
6.66
5.23
3.58
1.68
-0.43
-2.65
-4.78
-6.54
-7.69
-8.21
-8.43
-9.05
-10.85
-14.43
-19.72
-25.99
-31.95
-36.18
-37.68
-36.15
-32.06
-26.37
-20.16
-14.26
-9.09
-4.72
-0.98
2.30
5.25
7.83
9.89
11.18
11.46
10.61
8.72
6.08
3.24
0.80
-0.70
-1.00
-0.13
1.61
3.79
6.00
7.91
9.32
10.12
10.33
10.04
9.47
8.86
8.37
7.99
7.58
6.89
5.78
4.28
2.57
0.90
-0.55
-1.68
-2.58
-3.46
-4.54
-6.00
-7.93
-10.28
-12.87
-15.39
-17.47
-18.75
-19.01
-18.23
-16.55
-14.15
-11.19
-7.75
-3.91
0.14
4.15
7.77
10.66
12.61
13.50
13.44
12.66
11.49
10.36
9.68
9.77
10.77
12.53
14.71
16.93
18.86
20.36
21.42
22.13
22.50
22.48
21.95
20.80
19.03
16.80
14.33
11.85
9.53
7.41
5.45
3.65
2.02
0.66
-0.41
-1.24
-2.03
-3.13
-4.91
-7.61
-11.22
-15.36
-19.42
-22.65
-24.41
-24.43
-22.80
-19.94
-16.31
-12.30
-8.12
-3.89
0.20
3.84
6.74
8.70
9.73
10.02
9.87
9.51
9.11
8.76
8.52
8.50
8.78
9.36
10.18
11.05
11.75
12.14
12.16
11.80
11.06
9.97
8.52
6.74
4.70
2.52
0.31
-1.84
-3.96
-6.07
-8.21
-10.35
-12.40
-14.32
-16.16
-18.11
-20.40
-23.18
-26.41
-29.73
-32.53
-34.14
-34.05
-32.05
-28.36
-23.44
-17.87
-12.20
-6.86
-2.16
1.63
4.41
6.14
6.96
7.19
7.26
7.53
8.23
9.33
10.63
11.88
12.90
13.67
14.30
14.97
15.77
16.72
17.70
18.60
19.30
19.72
19.75
19.27
18.17
16.48
14.43
12.37
10.70
9.60
9.01
8.62
8.12
7.32
6.27
5.16
4.20
3.45
2.78
1.95
0.80
-0.72
-2.45
-4.23
-5.94
-7.59
-9.32
-11.28
-13.53
-16.02
-18.60
-21.21
-23.89
-26.67
-29.52
-32.16
-34.16
-35.02
-34.38
-32.16
-28.56
-23.95
-18.75
-13.39
-8.24
-3.64
0.17
3.03
4.96
6.12
6.83
7.43
8.23
9.33
10.70
12.11
13.37
14.32
14.96
15.41
15.85
16.44
17.22
18.14
19.04
19.79
20.25
20.39
20.21
19.72
19.00
18.11
17.10
16.01
14.83
13.57
12.24
10.89
9.61
8.51
7.61
6.89
6.21
5.38
4.25
2.83
1.22
-0.41
-1.91
-3.29
-4.68
-6.19
-7.84
-9.47
-10.88
-12.02
-13.03
-14.20
-15.81
-17.82
-19.92
-21.62
-22.44
-22.18
-20.87
-18.68
-15.69
-11.87
-7.16
-1.59
4.51
10.53
15.78
19.61
21.73
22.11
21.05
18.95
16.19
13.11
9.98
7.17
5.10
4.19
4.66
6.37
8.83
11.24
12.87
13.30
12.56
11.09
9.51
8.40
8.04
8.32
8.81
8.91
8.04
5.86
2.36
-2.03
-6.47
-9.78
-10.70
-8.29
-2.38
6.21
15.84
24.46
30.36
32.66
31.55
28.07
23.51
18.84
14.53
10.53
6.59
2.61
-1.30
-4.82
-7.64
-9.56
-10.56
-10.71
-10.07
-8.67
-6.42
-3.33
0.44
4.51
8.29
11.23
12.89
13.09
11.96
9.94
7.57
5.41
3.84
3.02
2.84
3.05
3.40
3.72
4.02
4.40
4.91
5.48
5.92
5.96
5.49
4.55
3.32
2.05
0.88
-0.16
-1.14
-2.15
-3.15
-4.08
-4.83
-5.37
-5.79
-6.20
-6.74
-7.48
-8.42
-9.57
-10.99
-12.78
-14.96
-17.38
-19.69
-21.43
-22.26
-22.13
-21.19
-19.76
-18.05
-16.15
-14.01
-11.61
-9.01
-6.42
-4.07
-2.13
-0.62
0.52
1.32
1.69
1.58
0.97
0.06
-0.86
-1.45
-1.54
-1.12
-0.35
0.53
1.32
1.84
2.02
1.82
1.24
0.32
-0.86
-2.23
-3.67
-5.06
-6.31
-7.29
-7.95
-8.34
-8.57
-8.82
-9.26
-9.96
-10.86
-11.84
-12.72
-13.46
-14.11
-14.82
-15.72
-16.85
-18.07
-19.16
-19.80
-19.79
-19.01
-17.52
-15.46
-13.00
-10.31
-7.56
-4.85
-2.32
-0.11
1.63
2.82
3.45
3.62
3.50
3.27
3.07
2.93
2.86
2.85
2.89
3.06
3.37
3.76
4.15
4.38
4.40
4.22
4.00
3.90
4.00
4.26
4.47
4.40
3.95
3.11
2.11
1.20
0.60
0.38
0.43
0.56
0.55
0.25
-0.36
-1.21
-2.16
-3.10
-3.96
-4.71
-5.36
-5.89
-6.34
-6.80
-7.48
-8.61
-10.36
-12.61
-14.97
-16.86
-17.82
-17.66
-16.54
-14.84
-12.90
-10.87
-8.73
-6.41
-3.98
-1.69
0.18
1.48
2.27
2.76
3.18
3.63
4.11
4.57
4.95
5.24
5.40
5.38
5.18
4.85
4.51
4.36
4.54
5.06
5.73
6.31
6.54
6.34
5.82
5.16
4.58
4.19
4.01
3.95
3.89
3.69
3.28
2.70
2.04
1.43
0.93
0.51
0.10
-0.34
-0.77
-1.08
-1.27
-1.45
-1.77
-2.38
-3.26
-4.22
-5.07
-5.77
-6.47
-7.40
-8.61
-9.88
-10.82
-10.99
-10.17
-8.53
-6.40
-4.15
-1.99
0.07
2.08
4.08
5.95
7.54
8.67
9.22
9.20
8.71
8.00
7.35
6.99
7.04
7.45
8.04
8.61
9.05
9.35
9.57
9.81
10.11
10.51
10.97
11.51
12.07
12.60
12.98
13.05
12.67
11.78
10.49
9.01
7.60
6.48
5.73
5.31
5.04
4.75
4.28
3.56
2.62
1.59
0.65
-0.09
-0.61
-1.01
-1.50
-2.33
-3.73
-5.71
-8.05
-10.35
-12.10
-12.99
-12.93
-12.09
-10.82
-9.43
-8.12
-6.89
-5.64
-4.33
-2.96
-1.64
-0.47
0.56
1.40
2.01
2.28
2.11
1.54
0.78
0.14
-0.11
0.10
0.64
1.25
1.79
2.20
2.60
3.03
3.41
3.57
3.33
2.69
1.80
0.87
0.09
-0.54
-1.09
-1.69
-2.44
-3.29
-4.19
-5.04
-5.69
-6.03
-5.97
-5.51
-4.81
-4.20
-4.02
-4.49
-5.58
-7.08
-8.72
-10.32
-11.82
-13.24
-14.53
-15.53
-16.07
-15.95
-15.19
-13.92
-12.29
-10.40
-8.23
-5.77
-3.18
-0.80
0.95
1.80
1.77
1.18
0.48
0.05
0.03
0.36
0.84
1.26
1.49
1.46
1.25
0.98
0.83
0.99
1.52
2.40
3.49
4.62
5.62
6.35
6.66
6.42
5.56
4.17
2.50
0.92
-0.21
-0.73
-0.66
-0.27
0.14
0.33
0.17
-0.33
-1.07
-1.98
-3.03
-4.20
-5.47
-6.71
-7.76
-8.49
-8.90
-9.25
-9.87
-11.06
-12.79
-14.71
-16.24
-16.88
-16.41
-15.02
-13.11
-11.09
-9.18
-7.34
-5.45
-3.44
-1.37
0.50
1.89
2.61
2.60
2.01
1.12
0.27
-0.28
-0.43
-0.24
0.18
0.65
1.10
1.52
1.91
2.29
2.65
3.02
3.45
3.93
4.45
4.93
5.29
5.47
5.47
5.33
5.11
4.89
4.71
4.58
4.44
4.25
3.95
3.52
2.98
2.34
1.64
0.84
-0.02
-0.91
-1.79
-2.62
-3.41
-4.27
-5.33
-6.65
-8.19
-9.68
-10.82
-11.37
-11.27
-10.64
-9.66
-8.45
-7.01
-5.28
-3.23
-1.01
1.13
2.90
4.10
4.73
4.91
4.84
4.71
4.62
4.60
4.65
4.75
4.88
5.07
5.39
5.95
6.78
7.86
9.04
10.12
10.96
11.48
11.69
11.63
11.28
10.56
9.39
7.83
6.06
4.38
3.00
2.01
1.30
0.75
0.24
-0.21
-0.54
-0.78
-1.11
-1.79
-3.01
-4.77
-6.80
-8.71
-10.16
-11.00
-11.26
-11.08
-10.52
-9.50
-7.93
-5.77
-3.21
-0.58
1.72
3.40
4.33
4.56
4.26
3.69
3.09
2.69
2.60
2.80
3.15
3.49
3.81
4.19
4.78
5.63
6.58
7.29
7.44
6.92
5.87
4.60
3.33
2.06
0.68
-0.92
-2.74
-4.56
-6.14
-7.36
-8.25
-8.97
-9.71
-10.66
-11.94
-13.67
-15.87
-18.44
-21.06
-23.23
-24.45
-24.41
-23.13
-20.90
-18.11
-15.16
-12.31
-9.81
-7.80
-6.34
-5.39
-4.75
-4.20
-3.53
-2.64
-1.53
-0.22
1.21
2.64
3.88
4.71
4.96
4.71
4.30
4.22
4.94
6.56
8.82
11.15
12.99
13.95
13.96
13.17
11.76
9.90
7.70
5.30
2.87
0.63
-1.23
-2.59
-3.46
-3.96
-4.31
-4.67
-5.15
-5.80
-6.64
-7.75
-9.18
-10.95
-12.97
-15.00
-16.72
-17.83
-18.20
-17.79
-16.68
-14.97
-12.68
-9.81
-6.41
-2.71
0.92
4.03
6.33
7.76
8.48
8.79
9.00
9.36
9.96
10.77
11.69
12.63
13.50
14.26
14.94
15.59
16.25
16.96
17.73
18.50
19.22
19.81
20.16
20.25
19.97
19.33
18.28
16.91
15.33
13.80
12.58
11.91
11.89
12.39
13.09
13.52
13.34
12.47
11.11
9.64
8.42
7.60
7.06
6.52
5.67
4.35
2.65
0.83
-0.79
-2.02
-2.86
-3.49
-4.14
-4.97
-6.05
-7.36
-8.89
-10.69
-12.79
-15.15
-17.58
-19.69
-21.11
-21.52
-20.79
-18.93
-16.07
-12.41
-8.25
-3.98
-0.05
3.15
5.42
6.84
7.66
8.20
8.66
9.11
9.56
10.08
10.80
11.89
13.45
15.41
17.62
19.84
21.90
23.67
25.07
26.02
26.47
26.46
26.07
25.52
24.95
24.46
23.99
23.37
22.44
21.21
19.80
18.49
17.49
16.87
16.52
16.26
15.91
15.40
14.77
14.03
13.13
12.01
10.58
8.89
7.11
5.43
3.92
2.54
1.19
-0.21
-1.62
-3.00
-4.38
-5.95
-7.99
-10.66
-13.89
-17.30
-20.37
-22.62
-23.77
-23.72
-22.56
-20.43
-17.50
-13.92
-9.92
-5.77
-1.83
1.58
4.23
6.04
7.03
7.37
7.23
6.80
6.31
5.92
5.77
5.91
6.29
6.79
7.32
7.84
8.43
9.12
9.90
10.68
11.30
11.69
11.86
11.87
11.78
11.53
11.03
10.17
8.96
7.47
5.81
4.15
2.57
1.18
0.05
-0.83
-1.54
-2.27
-3.25
-4.65
-6.45
-8.47
-10.49
-12.33
-14.05
-15.86
-18.01
-20.65
-23.57
-26.37
-28.49
-29.54
-29.40
-28.14
-25.99
-23.17
-19.97
-16.69
-13.72
-11.45
-10.11
-9.65
-9.75
-9.92
-9.67
-8.75
-7.09
-4.83
-2.17
0.68
3.58
6.37
8.91
11.04
12.60
13.50
13.71
13.36
12.74
12.15
11.81
11.74
11.82
11.88
11.81
11.71
11.75
12.13
12.92
13.97
14.96
15.57
15.56
14.96
13.98
12.88
11.84
10.87
9.83
8.55
6.97
5.24
3.64
2.51
1.95
1.88
2.00
1.93
1.39
0.33
-1.04
-2.44
-3.67
-4.73
-5.82
-7.10
-8.64
-10.36
-12.07
-13.70
-15.35
-17.19
-19.36
-21.72
-23.92
-25.45
-25.92
-25.16
-23.26
-20.50
-17.20
-13.63
-10.04
-6.60
-3.48
-0.75
1.51
3.29
4.58
5.41
5.92
6.28
6.71
7.38
8.31
9.42
10.54
11.61
12.62
13.69
14.88
16.13
17.24
18.00
18.32
18.34
18.33
18.50
18.82
19.00
18.67
17.63
15.98
14.05
12.19
10.57
9.15
7.73
6.22
4.64
3.15
1.82
0.56
-0.85
-2.53
-4.33
-5.83
-6.57
-6.43
-5.78
-5.41
-6.07
-8.03
-10.86
-13.55
-15.00
-14.47
-11.93
-7.96
-3.45
0.76
4.19
6.79
8.75
10.41
11.98
13.47
14.72
15.41
15.32
14.40
12.86
11.05
9.33
7.93
6.86
6.00
5.21
4.48
3.81
3.27
2.79
2.29
1.64
0.79
-0.25
-1.44
-2.82
-4.53
-6.71
-9.37
-12.23
-14.80
-16.52
-17.04
-16.43
-15.15
-13.96
-13.54
-14.35
-16.43
-19.47
-22.92
-26.16
-28.67
-30.08
-30.24
-29.20
-27.15
-24.38
-21.22
-17.99
-14.90
-12.08
-9.45
-6.92
-4.39
-1.92
0.32
2.03
2.99
3.14
2.71
2.06
1.51
1.20
1.03
0.82
0.44
-0.03
-0.37
-0.35
0.15
0.96
1.81
2.35
2.29
1.57
0.23
-1.51
-3.40
-5.16
-6.59
-7.61
-8.29
-8.83
-9.42
-10.18
-11.17
-12.44
-14.03
-15.93
-17.96
-19.78
-20.88
-20.84
-19.50
-16.99
-13.68
-9.99
-6.32
-2.93
-0.10
1.97
3.19
3.68
3.79
3.95
4.48
5.43
6.59
7.64
8.29
8.50
8.44
8.38
8.57
9.14
10.08
11.25
12.45
13.40
13.91
13.84
13.18
12.07
10.71
9.31
8.01
6.85
5.81
4.77
3.59
2.22
0.66
-1.02
-2.73
-4.41
-6.01
-7.48
-8.77
-9.82
-10.66
-11.43
-12.36
-13.64
-15.32
-17.23
-19.02
-20.28
-20.72
-20.18
-18.71
-16.40
-13.43
-10.00
-6.40
-3.01
-0.20
1.76
2.93
3.57
4.10
4.81
5.73
6.69
7.47
7.96
8.28
8.72
9.50
10.69
12.11
13.56
14.87
16.00
16.92
17.55
17.68
17.11
15.81
14.01
12.10
10.42
9.11
8.09
7.18
6.41
5.97
6.14
7.06
8.50
9.93
10.76
10.65
9.68
8.27
6.92
5.94
5.35
4.91
4.44
3.84
3.12
2.24
1.05
-0.67
-3.03
-5.86
-8.68
-10.91
-12.12
-12.24
-11.55
-10.43
-9.14
-7.62
-5.65
-3.10
-0.05
3.13
6.03
8.29
9.85
10.76
11.15
11.11
10.73
10.13
9.45
8.89
8.55
8.42
8.44
8.48
8.56
8.72
9.04
9.47
9.88
10.06
9.86
9.20
8.13
6.79
5.30
3.84
2.45
1.12
-0.28
-1.89
-3.84
-6.03
-8.18
-9.97
-11.11
-11.61
-11.69
-11.71
-11.99
-12.73
-13.89
-15.30
-16.71
-17.79
-18.31
-18.10
-17.10
-15.33
-12.91
-10.03
-6.93
-3.89
-1.21
0.87
2.26
3.03
3.43
3.81
4.42
5.35
6.45
7.45
8.09
8.27
8.10
7.84
7.75
8.01
8.59
9.27
9.79
9.94
9.71
9.22
8.64
8.02
7.32
6.46
5.41
4.30
3.36
2.77
2.57
2.62
2.70
2.64
2.37
1.96
1.61
1.42
1.43
1.51
1.42
0.92
-0.12
-1.62
-3.31
-4.91
-6.20
-7.17
-7.98
-8.89
-10.11
-11.70
-13.60
-15.67
-17.74
-19.64
-21.19
-22.17
-22.46
-21.98
-20.80
-19.09
-17.00
-14.63
-12.01
-9.12
-6.00
-2.78
0.32
3.05
5.15
6.56
7.29
7.52
7.53
7.53
7.61
7.73
7.76
7.64
7.45
7.41
7.74
8.54
9.68
10.89
11.81
12.24
12.12
11.57
10.71
9.64
8.45
7.24
6.15
5.30
4.78
4.52
4.35
4.08
3.55
2.78
1.86
0.96
0.24
-0.27
-0.64
-0.99
-1.42
-1.94
-2.51
-3.06
-3.57
-4.08
-4.69
-5.55
-6.80
-8.48
-10.50
-12.63
-14.56
-16.02
-16.83
-16.96
-16.50
-15.56
-14.20
-12.43
-10.20
-7.57
-4.69
-1.85
0.61
2.45
3.59
4.18
4.54
4.99
5.70
6.70
7.83
8.88
9.68
10.21
10.51
10.68
10.83
10.97
11.11
11.29
11.53
11.86
12.20
12.43
12.42
12.16
11.74
11.28
10.80
10.20
9.36
8.19
6.77
5.28
4.05
3.23
2.84
2.73
2.68
2.50
2.07
1.41
0.61
-0.16
-0.69
-0.82
-0.56
-0.09
0.28
0.20
-0.45
-1.58
-2.82
-3.76
-4.09
-3.75
-2.92
-1.84
-0.61
0.78
2.46
4.45
6.56
8.41
9.57
9.77
9.07
7.78
6.28
4.90
3.84
3.11
2.68
2.48
2.46
2.47
2.42
2.21
1.84
1.34
0.80
0.31
-0.11
-0.45
-0.77
-1.16
-1.76
-2.65
-3.87
-5.33
-6.81
-8.14
-9.18
-10.00
-10.66
-11.21
-11.60
-11.76
-11.73
-11.71
-12.06
-13.07
-14.78
-16.94
-19.03
-20.45
-20.77
-19.92
-18.11
-15.71
-13.09
-10.49
-8.05
-5.84
-3.91
-2.33
-1.11
-0.26
0.26
0.45
0.32
-0.18
-0.99
-2.01
-3.00
-3.77
-4.18
-4.18
-3.78
-2.95
-1.71
-0.14
1.50
2.86
3.63
3.69
3.13
2.22
1.23
0.33
-0.45
-1.13
-1.72
-2.20
-2.56
-2.88
-3.22
-3.67
-4.18
-4.66
-5.08
-5.56
-6.43
-7.96
-10.21
-12.87
-15.39
-17.22
-17.98
-17.66
-16.52
-14.92
-13.15
-11.26
-9.18
-6.87
-4.45
-2.20
-0.44
0.65
1.05
0.98
0.72
0.58
0.77
1.37
2.30
3.37
4.37
5.14
5.67
6.07
6.52
7.15
7.95
8.76
9.33
9.52
9.36
8.98
8.53
8.04
7.45
6.69
5.75
4.74
3.78
2.98
2.41
2.08
2.01
2.12
2.27
2.17
1.62
0.53
-0.92
-2.38
-3.60
-4.53
-5.40
-6.48
-7.88
-9.36
-10.51
-10.92
-10.46
-9.30
-7.70
-5.86
-3.76
-1.26
1.62
4.62
7.26
9.08
9.90
9.85
9.35
8.76
8.29
7.90
7.51
7.08
6.77
6.76
7.23
8.14
9.26
10.27
10.90
11.06
10.85
10.48
10.16
10.00
9.94
9.85
9.55
8.92
7.98
6.86
5.65
4.46
3.33
2.30
1.44
0.73
0.13
-0.59
-1.66
-3.27
-5.35
-7.64
-9.76
-11.33
-12.21
-12.45
-12.24
-11.76
-11.09
-10.18
-8.95
-7.37
-5.46
-3.42
-1.45
0.21
1.35
1.85
1.73
1.13
0.39
-0.10
-0.06
0.63
1.82
3.25
4.58
5.61
6.23
6.42
6.26
5.88
5.42
5.07
4.83
4.62
4.20
3.37
2.03
0.31
-1.50
-3.12
-4.40
-5.34
-6.11
-6.82
-7.62
-8.54
-9.66
-11.06
-12.79
-14.79
-16.82
-18.52
-19.49
-19.48
-18.43
-16.54
-14.19
-11.81
-9.67
-7.86
-6.33
-4.91
-3.53
-2.19
-0.93
0.18
1.11
1.93
2.71
3.54
4.46
5.44
6.41
7.29
8.06
8.72
9.30
9.78
10.09
10.13
9.85
9.32
8.73
8.24
7.92
7.68
7.33
6.80
6.11
5.41
4.80
4.24
3.63
2.84
1.83
0.70
-0.47
-1.66
-2.92
-4.24
-5.53
-6.57
-7.24
-7.68
-8.26
-9.40
-11.33
-13.84
-16.42
-18.45
-19.49
-19.42
-18.34
-16.48
-14.03
-11.18
-8.13
-5.13
-2.45
-0.33
1.15
2.08
2.65
3.08
3.57
4.19
4.94
5.79
6.68
7.57
8.45
9.29
10.07
10.80
11.48
12.09
12.61
12.98
13.17
13.22
13.17
13.08
12.96
12.73
12.28
11.56
10.67
9.87
9.43
9.43
9.72
9.97
9.86
9.27
8.32
7.26
6.31
5.57
4.99
4.47
3.97
3.48
2.96
2.32
1.51
0.51
-0.58
-1.61
-2.53
-3.43
-4.50
-5.87
-7.46
-8.98
-10.06
-10.43
-10.03
-8.99
-7.51
-5.72
-3.66
-1.29
1.34
4.06
6.59
8.67
10.09
10.82
10.97
10.74
10.37
9.99
9.69
9.52
9.45
9.53
9.79
10.33
11.15
12.25
13.48
14.64
15.57
16.12
16.24
15.98
15.43
14.69
13.83
12.92
11.99
11.14
10.45
9.99
9.73
9.52
9.19
8.61
7.80
6.92
6.14
5.52
5.00
4.39
3.55
2.49
1.36
0.31
-0.59
-1.41
-2.39
-3.70
-5.40
-7.34
-9.22
-10.77
-11.80
-12.23
-12.07
-11.35
-10.09
-8.32
-6.14
-3.74
-1.44
0.44
1.65
2.20
2.25
2.10
1.98
2.01
2.11
2.17
2.06
1.79
1.49
1.30
1.37
1.70
2.26
2.90
3.46
3.79
3.79
3.50
3.03
2.52
2.06
1.65
1.20
0.62
-0.11
-0.93
-1.78
-2.61
-3.39
-4.10
-4.73
-5.30
-5.85
-6.48
-7.25
-8.19
-9.36
-10.75
-12.38
-14.23
-16.21
-18.08
-19.48
-20.06
-19.70
-18.52
-16.87
-15.08
-13.29
-11.40
-9.26
-6.86
-4.43
-2.34
-0.95
-0.38
-0.46
-0.76
-0.90
-0.63
0.03
0.89
1.72
2.36
2.79
3.11
3.49
4.04
4.77
5.57
6.26
6.73
6.90
6.85
6.66
6.40
6.04
5.59
5.05
4.51
4.07
3.77
3.59
3.41
3.14
2.69
2.03
1.12
-0.08
-1.53
-3.15
-4.67
-5.81
-6.45
-6.65
-6.76
-7.14
-8.07
-9.54
-11.27
-12.79
-13.67
-13.67
-12.79
-11.21
-9.23
-7.10
-5.00
-3.06
-1.34
0.05
1.01
1.48
1.53
1.35
1.19
1.29
1.73
2.47
3.34
4.15
4.76
5.13
5.26
5.20
5.03
4.84
4.73
4.71
4.81
4.95
5.05
4.99
4.76
4.35
3.77
3.09
2.40
1.84
1.54
1.59
1.92
2.32
2.53
2.36
1.76
0.86
-0.16
-1.16
-2.08
-2.93
-3.73
-4.43
-4.93
-5.13
-5.08
-4.97
-5.13
-5.86
-7.27
-9.12
-10.96
-12.16
-12.26
-11.15
-9.10
-6.68
-4.53
-3.05
-2.31
-2.02
-1.78
-1.26
-0.43
0.57
1.41
1.85
1.84
1.57
1.32
1.42
1.99
2.92
3.95
4.84
5.47
5.95
6.50
7.32
8.44
9.63
10.56
10.95
10.71
9.99
9.04
8.08
7.19
6.36
5.53
4.69
3.86
3.15
2.63
2.34
2.28
2.37
2.54
2.67
2.73
2.72
2.69
2.64
2.53
2.20
1.53
0.42
-0.98
-2.38
-3.45
-3.94
-3.80
-3.12
-2.12
-0.94
0.29
1.54
2.74
3.80
4.60
5.05
5.18
5.08
4.86
4.58
4.22
3.75
3.13
2.44
1.77
1.22
0.87
0.78
0.94
1.33
1.86
2.39
2.73
2.78
2.48
1.89
1.12
0.21
-0.84
-2.11
-3.55
-5.04
-6.38
-7.41
-8.10
-8.53
-8.82
-8.97
-8.97
-8.88
-8.87
-9.24
-10.16
-11.57
-13.08
-14.06
-14.03
-12.85
-10.85
-8.60
-6.67
-5.35
-4.52
-3.91
-3.19
-2.23
-1.06
0.10
1.00
1.41
1.32
0.86
0.36
0.13
0.41
1.21
2.34
3.48
4.21
4.21
3.22
1.10
-2.08
-5.96
-9.94
-13.30
-15.38
-15.94
-15.12
-13.44
-11.49
-9.68
-8.16
-6.82
-5.52
-4.20
-3.00
-2.16
-1.93
-2.56
-4.19
-6.86
-10.43
-14.58
-18.78
-22.42
-24.95
-26.07
-25.71
-24.03
-21.32
-17.94
-14.26
-10.70
-7.57
-5.10
-3.36
-2.19
-1.34
-0.54
0.31
1.17
1.86
2.21
2.20
1.95
1.68
1.55
1.68
2.03
2.55
3.17
3.81
4.40
4.87
5.13
5.20
5.12
4.98
4.83
4.61
4.19
3.42
2.31
1.01
-0.25
-1.30
-2.13
-2.89
-3.76
-4.85
-6.16
-7.58
-9.00
-10.31
-11.40
-12.13
-12.33
-11.94
-10.98
-9.64
-8.19
-6.79
-5.48
-4.18
-2.80
-1.33
0.07
1.24
2.03
2.44
2.58
2.63
2.72
2.95
3.29
3.71
4.13
4.54
4.97
5.44
6.00
6.64
7.23
7.58
7.50
6.90
5.85
4.61
3.45
2.53
1.82
1.16
0.33
-0.74
-2.03
-3.44
-4.89
-6.38
-7.92
-9.49
-10.96
-12.16
-12.86
-12.93
-12.36
-11.21
-9.63
-7.77
-5.80
-3.88
-2.17
-0.74
0.38
1.26
1.96
2.55
3.08
3.57
4.00
4.34
4.52
4.51
4.38
4.27
4.42
5.04
6.20
7.73
9.23
10.23
10.37
9.57
8.04
6.22
4.55
3.34
2.65
2.25
1.77
0.76
-1.05
-3.70
-6.91
-10.25
-13.22
-15.48
-16.91
-17.49
-17.26
-16.24
-14.36
-11.63
-8.24
-4.58
-1.18
1.48
3.16
3.91
3.99
3.71
3.37
3.17
3.26
3.78
4.85
6.50
8.62
10.90
12.99
14.52
15.32
15.45
15.15
14.76
14.52
14.48
14.56
14.59
14.41
13.98
13.32
12.44
11.26
9.65
7.47
4.79
1.94
-0.50
-1.96
-2.07
-0.81
1.44
4.09
6.58
8.62
10.22
11.57
12.83
14.02
14.92
15.20
14.65
13.30
11.43
9.45
7.70
6.47
5.86
5.89
6.47
7.42
8.47
9.30
9.69
9.61
9.21
8.64
8.00
7.23
6.23
4.98
3.55
2.05
0.46
-1.34
-3.48
-5.99
-8.64
-11.06
-12.88
-13.86
-13.92
-13.10
-11.44
-9.02
-6.06
-2.93
-0.09
2.09
3.46
4.11
4.25
4.06
3.59
2.86
1.93
1.00
0.36
0.23
0.68
1.60
2.67
3.54
3.89
3.51
2.38
0.67
-1.36
-3.45
-5.40
-7.13
-8.61
-9.85
-10.79
-11.50
-12.15
-13.06
-14.57
-16.73
-19.24
-21.42
-22.55
-22.24
-20.55
-17.97
-15.06
-12.17
-9.36
-6.48
-3.49
-0.49
2.24
4.41
5.90
6.80
7.31
7.66
7.98
8.33
8.69
9.03
9.37
9.74
10.18
10.73
11.42
12.24
13.13
13.90
14.30
14.08
13.10
11.46
9.39
7.21
5.14
3.27
1.56
-0.09
-1.74
-3.37
-4.94
-6.44
-7.97
-9.65
-11.59
-13.70
-15.74
-17.42
-18.47
-18.70
-18.01
-16.40
-13.98
-10.91
-7.54
-4.18
-1.11
1.61
4.05
6.30
8.36
10.07
11.17
11.53
11.27
10.77
10.51
10.82
11.75
13.08
14.51
15.81
16.90
17.85
18.73
19.56
20.26
20.65
20.61
20.13
19.33
18.41
17.56
16.83
16.13
15.27
14.09
12.60
10.96
9.44
8.28
7.45
6.77
5.93
4.75
3.26
1.74
0.44
-0.47
-1.06
-1.55
-2.21
-3.24
-4.71
-6.61
-8.84
-11.26
-13.72
-16.01
-17.86
-18.97
-19.05
-17.89
-15.52
-12.19
-8.38
-4.58
-1.18
1.65
3.98
5.94
7.55
8.70
9.25
9.20
8.81
8.50
8.63
9.29
10.33
11.46
12.50
13.52
14.70
16.14
17.73
19.18
20.12
20.40
20.11
19.47
18.76
18.09
17.42
16.66
15.69
14.49
13.13
11.73
10.36
9.06
7.83
6.61
5.40
4.23
3.21
2.45
1.94
1.52
0.93
-0.13
-1.78
-3.89
-6.16
-8.22
-9.77
-10.57
-10.53
-9.59
-7.81
-5.29
-2.26
0.97
4.08
6.75
8.80
10.09
10.57
10.28
9.41
8.37
7.59
7.36
7.74
8.51
9.31
9.91
10.24
10.41
10.61
10.86
11.06
10.99
10.51
9.63
8.54
7.49
6.64
6.00
5.39
4.63
3.64
2.48
1.30
0.24
-0.74
-1.87
-3.39
-5.44
-7.88
-10.31
-12.25
-13.40
-13.76
-13.57
-13.04
-12.17
-10.77
-8.64
-5.86
-2.86
-0.30
1.30
1.76
1.37
0.62
-0.04
-0.40
-0.58
-0.81
-1.23
-1.83
-2.44
-2.85
-2.99
-2.90
-2.74
-2.70
-2.88
-3.28
-3.81
-4.37
-4.91
-5.50
-6.26
-7.21
-8.25
-9.18
-9.88
-10.43
-11.09
-12.20
-13.88
-15.96
-18.02
-19.58
-20.30
-20.13
-19.22
-17.74
-15.83
-13.50
-10.81
-7.90
-5.09
-2.73
-1.05
-0.10
0.26
0.25
0.04
-0.29
-0.76
-1.35
-1.98
-2.51
-2.80
-2.79
-2.48
-1.96
-1.35
-0.70
-0.11
0.33
0.54
0.53
0.46
0.50
0.80
1.26
1.54
1.26
0.22
-1.45
-3.37
-5.15
-6.69
-8.17
-9.90
-12.07
-14.50
-16.75
-18.27
-18.73
-18.07
-16.54
-14.46
-12.05
-9.39
-6.52
-3.52
-0.59
2.00
3.97
5.14
5.51
5.28
4.74
4.23
4.00
4.06
4.29
4.46
4.39
4.06
3.60
3.24
3.15
3.41
3.93
4.52
5.00
5.21
5.07
4.52
3.61
2.45
1.22
0.06
-0.95
-1.84
-2.66
-3.40
-4.00
-4.39
-4.70
-5.30
-6.60
-8.89
-12.01
-15.38
-18.13
-19.54
-19.35
-17.79
-15.42
-12.81
-10.32
-7.98
-5.70
-3.33
-0.89
1.47
3.53
5.02
5.82
6.00
5.80
5.60
5.68
6.15
6.90
7.74
8.47
9.09
9.76
10.68
11.93
13.40
14.78
15.78
16.20
16.06
15.50
14.72
13.81
12.73
11.37
9.69
7.75
5.79
4.10
2.87
2.11
1.57
0.94
-0.07
-1.56
-3.43
-5.42
-7.21
-8.54
-9.25
-9.26
-8.51
-6.98
-4.71
-1.84
1.34
4.43
7.01
8.80
9.68
9.74
9.13
8.04
6.65
5.13
3.72
2.67
2.19
2.37
3.11
4.19
5.34
6.33
7.03
7.36
7.36
7.09
6.63
6.09
5.54
4.93
4.21
3.27
2.04
0.53
-1.19
-3.03
-4.94
-6.86
-8.72
-10.41
-11.79
-12.73
-13.15
-13.03
-12.37
-11.18
-9.44
-7.26
-4.80
-2.33
-0.14
1.56
2.64
3.10
2.96
2.32
1.32
0.23
-0.70
-1.23
-1.34
-1.16
-0.93
-0.81
-0.84
-0.98
-1.16
-1.34
-1.55
-1.77
-1.96
-2.03
-1.99
-1.97
-2.19
-2.83
-3.89
-5.16
-6.32
-7.20
-7.86
-8.61
-9.83
-11.68
-14.01
-16.35
-18.17
-19.06
-18.93
-17.94
-16.34
-14.32
-11.89
-9.07
-5.99
-2.96
-0.36
1.53
2.64
3.11
3.16
2.98
2.65
2.22
1.78
1.47
1.46
1.81
2.44
3.13
3.62
3.68
3.17
2.04
0.38
-1.60
-3.56
-5.11
-5.98
-6.08
-5.65
-5.00
-4.46
-4.14
-4.00
-3.94
-3.90
-4.05
-4.58
-5.68
-7.37
-9.45
-11.64
-13.64
-15.23
-16.26
-16.57
-16.05
-14.58
-12.26
-9.34
-6.25
-3.40
-1.08
0.67
1.96
2.98
3.90
4.72
5.32
5.60
5.55
5.29
5.04
4.92
4.97
5.10
5.22
5.38
5.69
6.26
7.11
8.09
8.95
9.43
9.47
9.16
8.72
8.41
8.38
8.56
8.75
8.69
8.22
7.38
6.39
5.56
5.08
4.93
4.89
4.62
3.88
2.58
0.79
-1.36
-3.67
-5.89
-7.71
-8.75
-8.77
-7.76
-6.01
-3.95
-1.93
-0.08
1.78
3.94
6.55
9.45
12.17
14.07
14.72
14.03
12.41
10.46
8.75
7.54
6.76
6.21
5.76
5.52
5.72
6.54
7.89
9.36
10.46
10.80
10.33
9.27
7.95
6.68
5.58
4.69
4.01
3.60
3.48
3.58
3.67
3.41
2.49
0.74
-1.72
-4.56
-7.31
-9.55
-10.95
-11.39
-10.88
-9.48
-7.34
-4.70
-1.89
0.67
2.62
3.75
4.10
3.85
3.29
2.55
1.75
0.89
-0.07
-1.07
-1.98
-2.72
-3.24
-3.61
-3.95
-4.37
-4.82
-5.18
-5.31
-5.13
-4.74
-4.35
-4.19
-4.45
-5.11
-6.00
-6.90
-7.64
-8.22
-8.79
-9.58
-10.68
-12.01
-13.34
-14.37
-14.95
-15.06
-14.88
-14.52
-13.98
-13.09
-11.59
-9.41
-6.74
-4.04
-1.79
-0.28
0.53
0.91
1.15
1.44
1.79
2.11
2.37
2.58
2.82
3.12
3.51
3.93
4.35
4.75
5.15
5.50
5.69
5.61
5.15
4.32
3.20
1.93
0.57
-0.85
-2.35
-3.92
-5.46
-6.83
-7.92
-8.74
-9.43
-10.24
-11.38
-12.86
-14.47
-15.85
-16.60
-16.44
-15.33
-13.40
-10.96
-8.30
-5.70
-3.33
-1.27
0.46
1.82
2.81
3.31
3.33
2.93
2.31
1.71
1.34
1.27
1.50
2.01
2.80
3.86
5.10
6.40
7.49
8.18
8.37
8.12
7.61
6.97
6.25
5.39
4.32
3.07
1.81
0.78
0.15
-0.05
0.08
0.37
0.59
0.54
-0.00
-1.22
-3.18
-5.80
-8.66
-11.18
-12.75
-12.99
-11.95
-9.93
-7.35
-4.49
-1.42
1.80
5.05
8.00
10.26
11.55
11.84
11.43
10.72
10.11
9.80
9.79
9.98
10.29
10.66
11.12
11.72
12.45
13.23
13.92
14.32
14.32
13.92
13.26
12.48
11.62
10.58
9.13
7.17
4.88
2.68
1.01
0.10
-0.28
-0.70
-1.69
-3.49
-5.81
-8.04
-9.60
-10.23
-10.03
-9.34
-8.41
-7.26
-5.76
-3.80
-1.42
1.15
3.58
5.58
6.95
7.61
7.58
6.97
6.00
4.93
3.99
3.31
2.90
2.70
2.68
2.84
3.20
3.73
4.28
4.65
4.70
4.40
3.87
3.27
2.65
1.88
0.84
-0.55
-2.17
-3.78
-5.25
-6.63
-8.16
-10.12
-12.60
-15.30
-17.73
-19.37
-19.91
-19.36
-17.98
-16.04
-13.71
-11.05
-8.13
-5.16
-2.45
-0.36
0.93
1.46
1.50
1.33
1.21
1.23
1.39
1.61
1.87
2.11
2.37
2.65
2.99
3.41
3.90
4.38
4.72
4.81
4.58
4.05
3.32
2.43
1.34
-0.11
-1.98
-4.16
-6.31
-8.01
-9.05
-9.57
-10.06
-11.01
-12.68
-14.90
-17.09
-18.62
-19.07
-18.37
-16.70
-14.36
-11.58
-8.54
-5.39
-2.34
0.36
2.44
3.82
4.58
4.93
5.13
5.32
5.54
5.74
5.85
5.89
5.93
6.09
6.49
7.17
8.09
9.13
10.15
11.00
11.54
11.71
11.50
10.96
10.21
9.31
8.32
7.17
5.81
4.25
2.55
0.84
-0.69
-1.88
-2.72
-3.26
-3.71
-4.28
-5.18
-6.53
-8.32
-10.30
-12.09
-13.26
-13.48
-12.63
-10.81
-8.27
-5.31
-2.17
0.96
3.97
6.70
9.05
10.86
12.04
12.58
12.53
12.05
11.33
10.61
10.15
10.12
10.57
11.38
12.33
13.13
13.63
13.81
13.75
13.62
13.53
13.51
13.51
13.43
13.19
12.70
11.94
10.90
9.63
8.21
6.75
5.40
4.33
3.61
3.21
2.90
2.32
1.15
-0.75
-3.25
-5.95
-8.35
-10.03
-10.80
-10.65
-9.73
-8.20
-6.18
-3.80
-1.25
1.25
3.45
5.15
6.23
6.66
6.52
5.89
4.95
3.92
3.03
2.46
2.25
2.32
2.48
2.59
2.62
2.72
3.07
3.79
4.79
5.79
6.39
6.30
5.41
3.90
2.08
0.32
-1.13
-2.21
-3.07
-3.95
-5.06
-6.54
-8.40
-10.58
-13.00
-15.58
-18.16
-20.56
-22.43
-23.37
-23.06
-21.35
-18.41
-14.68
-10.74
-7.12
-4.14
-1.83
-0.04
1.38
2.53
3.37
3.82
3.91
3.77
3.70
3.94
4.63
5.66
6.79
7.83
8.64
9.30
9.92
10.52
11.00
11.16
10.86
10.09
8.99
7.77
6.63
5.61
4.66
3.69
2.61
1.35
-0.11
-1.72
-3.38
-4.87
-6.00
-6.67
-6.97
-7.27
-8.05
-9.65
-12.09
-15.01
-17.68
-19.36
-19.54
-18.17
-15.66
-12.69
-9.90
-7.66
-5.91
-4.35
-2.61
-0.56
1.67
3.73
5.31
6.31
6.89
7.31
7.74
8.17
8.47
8.52
8.36
8.16
8.18
8.58
9.31
10.23
11.05
11.56
11.64
11.31
10.70
10.04
9.48
9.08
8.72
8.23
7.45
6.41
5.29
4.31
3.58
2.96
2.19
1.08
-0.35
-1.85
-3.16
-4.21
-5.22
-6.47
-8.09
-9.87
-11.34
-11.98
-11.54
-10.13
-8.04
-5.56
-2.85
0.06
3.07
5.93
8.23
9.67
10.14
9.84
9.11
8.32
7.69
7.34
7.26
7.44
7.85
8.43
9.11
9.79
10.38
10.86
11.25
11.66
12.09
12.56
12.94
13.05
12.69
11.76
10.27
8.40
6.42
4.57
2.96
1.60
0.33
-1.02
-2.58
-4.42
-6.50
-8.71
-10.86
-12.71
-14.05
-14.67
-14.49
-13.51
-11.76
-9.41
-6.62
-3.67
-0.85
1.51
3.14
3.91
3.77
2.87
1.49
-0.02
-1.31
-2.21
-2.64
-2.71
-2.59
-2.43
-2.28
-2.12
-1.88
-1.54
-1.16
-0.86
-0.73
-0.85
-1.27
-1.99
-3.01
-4.31
-5.83
-7.44
-9.04
-10.62
-12.31
-14.28
-16.58
-19.06
-21.32
-22.86
-23.28
-22.44
-20.50
-17.84
-14.85
-11.89
-9.09
-6.51
-4.17
-2.09
-0.34
1.04
1.98
2.43
2.41
1.97
1.28
0.57
0.10
-0.00
0.28
0.78
1.27
1.59
1.77
1.96
2.39
3.20
4.28
5.36
6.05
6.06
5.24
3.67
1.61
-0.55
-2.47
-3.95
-5.05
-6.02
-7.24
-9.00
-11.33
-13.96
-16.41
-18.18
-18.96
-18.67
-17.45
-15.55
-13.16
-10.41
-7.39
-4.22
-1.13
1.59
3.67
4.97
5.51
5.46
5.12
4.75
4.59
4.75
5.22
5.90
6.62
7.24
7.67
7.92
8.08
8.26
8.51
8.78
8.96
8.91
8.59
8.05
7.40
6.75
6.17
5.60
4.89
3.98
2.86
1.67
0.56
-0.43
-1.43
-2.67
-4.34
-6.46
-8.74
-10.74
-11.97
-12.10
-11.06
-9.02
-6.30
-3.24
-0.10
2.94
5.75
8.24
10.29
11.81
12.70
12.97
12.76
12.38
12.16
12.31
12.80
13.42
13.91
14.11
14.06
13.97
14.01
14.21
14.40
14.35
13.85
12.82
11.32
9.50
7.53
5.54
3.64
2.01
0.74
-0.11
-0.68
-1.31
-2.35
-4.07
-6.48
-9.28
-11.93
-13.93
-14.88
-14.67
-13.38
-11.17
-8.20
-4.63
-0.70
3.19
6.53
8.91
10.11
10.18
9.37
8.11
6.76
5.66
4.97
4.75
4.92
5.30
5.67
5.84
5.72
5.40
5.01
4.66
4.36
4.02
3.45
2.53
1.24
-0.29
-1.84
-3.15
-4.06
-4.54
-4.73
-4.97
-5.65
-7.20
-9.80
-13.39
-17.53
-21.52
-24.54
-25.92
-25.34
-22.92
-19.18
-14.85
-10.55
-6.72
-3.50
-0.82
1.45
3.45
5.22
6.73
7.87
8.56
8.74
8.43
7.69
6.67
5.54
4.52
3.83
3.70
4.23
5.43
7.09
8.92
10.58
11.75
12.20
11.89
10.95
9.61
8.15
6.81
5.66
4.61
3.43
1.92
0.01
-2.19
-4.36
-6.17
-7.39
-7.98
-8.13
-8.14
-8.32
-8.95
-10.13
-11.83
-13.88
-16.00
-17.88
-19.19
-19.68
-19.19
-17.69
-15.31
-12.29
-8.92
-5.57
-2.54
-0.03
1.86
3.21
4.16
4.90
5.53
6.13
6.67
7.16
7.62
8.12
8.71
9.37
9.96
10.40
10.60
10.61
10.56
10.56
10.69
10.94
11.25
11.56
11.81
11.90
11.69
11.08
10.04
8.73
7.44
6.45
5.93
5.80
5.77
5.48
4.72
3.44
1.81
0.10
-1.42
-2.58
-3.33
-3.69
-3.78
-3.75
-3.84
-4.27
-5.23
-6.77
-8.74
-10.83
-12.60
-13.66
-13.77
-12.92
-11.23
-8.88
-6.03
-2.85
0.45
3.55
6.11
7.86
8.76
9.00
8.90
8.78
8.85
9.15
9.63
10.27
11.08
12.08
13.25
14.43
15.41
16.03
16.25
16.17
15.98
15.80
15.60
15.29
14.73
13.85
12.70
11.42
10.19
9.10
8.14
7.22
6.25
5.15
3.88
2.49
1.11
-0.08
-0.94
-1.48
-1.90
-2.59
-3.92
-6.08
-8.91
-11.91
-14.42
-15.93
-16.19
-15.33
-13.64
-11.44
-8.94
-6.22
-3.37
-0.53
2.02
4.02
5.28
5.79
5.68
5.16
4.38
3.43
2.41
1.45
0.77
0.56
0.85
1.55
2.37
3.03
3.33
3.28
3.03
2.80
2.70
2.66
2.45
1.82
0.62
-1.14
-3.24
-5.40
-7.34
-8.85
-9.89
-10.52
-10.95
-11.46
-12.30
-13.64
-15.47
-17.57
-19.54
-20.95
-21.47
-21.01
-19.65
-17.62
-15.15
-12.41
-9.55
-6.67
-3.93
-1.48
0.48
1.88
2.74
3.24
3.58
3.95
4.46
5.04
5.63
6.15
6.57
6.90
7.13
7.19
6.93
6.28
5.27
4.09
3.01
2.19
1.54
0.81
-0.31
-2.01
-4.16
-6.42
-8.37
-9.76
-10.55
-10.89
-11.00
-11.08
-11.22
-11.50
-12.01
-12.88
-14.11
-15.54
-16.84
-17.55
-17.32
-16.10
-14.15
-11.90
-9.82
-8.11
-6.77
-5.60
-4.41
-3.11
-1.81
-0.71
0.01
0.32
0.36
0.41
0.68
1.29
2.15
3.04
3.71
4.04
4.14
4.22
4.58
5.35
6.46
7.64
8.55
8.91
8.64
7.83
6.75
5.72
4.98
4.63
4.48
4.25
3.62
2.47
0.92
-0.75
-2.28
-3.63
-4.98
-6.56
-8.47
-10.57
-12.46
-13.68
-13.94
-13.18
-11.57
-9.36
-6.72
-3.79
-0.64
2.56
5.51
7.84
9.30
9.79
9.52
8.81
8.06
7.57
7.46
7.80
8.51
9.49
10.62
11.74
12.72
13.49
14.02
14.35
14.47
14.33
13.80
12.78
11.30
9.58
7.87
6.38
5.15
4.06
2.93
1.64
0.10
-1.67
-3.62
-5.68
-7.69
-9.43
-10.68
-11.26
-11.07
-10.18
-8.73
-6.82
-4.54
-1.93
0.89
3.69
6.19
8.15
9.47
10.22
10.52
10.45
9.98
9.02
7.61
5.95
4.43
3.44
3.23
3.82
4.99
6.40
7.74
8.78
9.33
9.30
8.62
7.35
5.68
3.91
2.38
1.30
0.69
0.31
-0.19
-1.23
-3.03
-5.57
-8.57
-11.57
-14.02
-15.57
-16.04
-15.46
-14.05
-12.06
-9.72
-7.19
-4.61
-2.11
0.19
2.11
3.50
4.24
4.29
3.77
2.93
2.03
1.28
0.70
0.19
-0.41
-1.08
-1.63
-1.80
-1.41
-0.58
0.35
0.92
0.82
-0.04
-1.46
-3.14
-4.82
-6.31
-7.55
-8.45
-9.05
-9.44
-9.86
-10.58
-11.82
-13.58
-15.60
-17.50
-18.82
-19.23
-18.60
-17.01
-14.70
-11.99
-9.20
-6.53
-4.13
-2.06
-0.39
0.75
1.27
1.22
0.78
0.29
0.13
0.47
1.27
2.25
3.09
3.59
3.76
3.79
3.91
4.27
4.86
5.57
6.20
6.60
6.65
6.33
5.66
4.75
3.73
2.63
1.51
0.28
-1.12
-2.70
-4.39
-6.11
-7.82
-9.55
-11.42
-13.46
-15.55
-17.34
-18.39
-18.34
-17.10
-14.88
-12.03
-8.96
-5.98
-3.27
-0.90
1.15
2.93
4.47
5.76
6.75
7.35
7.55
7.41
7.07
6.67
6.27
5.88
5.49
5.15
5.05
5.37
6.21
7.47
8.81
9.78
10.01
9.39
8.10
6.60
5.34
4.59
4.32
4.19
3.80
2.88
1.44
-0.27
-1.91
-3.31
-4.47
-5.45
-6.31
-7.02
-7.57
-8.08
-8.85
-10.11
-11.85
-13.75
-15.25
-15.82
-15.27
-13.78
-11.75
-9.58
-7.45
-5.35
-3.19
-0.96
1.16
2.96
4.21
4.90
5.10
5.07
5.01
5.15
5.59
6.36
7.39
8.57
9.72
10.68
11.29
11.55
11.54
11.46
11.57
12.07
13.00
14.19
15.26
15.82
15.58
14.55
13.01
11.36
9.93
8.85
8.02
7.22
6.27
5.10
3.73
2.26
0.74
-0.80
-2.36
-3.84
-5.07
-5.79
-5.73
-4.78
-2.96
-0.51
2.20
4.77
6.94
8.55
9.56
9.99
9.81
8.98
7.55
5.72
3.82
2.25
1.30
1.01
1.22
1.67
2.15
2.57
2.91
3.22
3.50
3.67
3.62
3.23
2.41
1.17
-0.37
-2.02
-3.57
-4.87
-5.92
-6.84
-7.84
-9.14
-10.83
-12.86
-15.03
-17.06
-18.72
-19.77
-20.08
-19.58
-18.28
-16.25
-13.61
-10.56
-7.32
-4.21
-1.52
0.53
1.84
2.45
2.52
2.24
1.83
1.49
1.34
1.45
1.77
2.13
2.41
2.50
2.46
2.40
2.49
2.81
3.31
3.84
4.21
4.26
3.84
2.93
1.62
0.07
-1.47
-2.78
-3.74
-4.43
-5.04
-5.88
-7.16
-8.92
-11.00
-13.09
-14.85
-15.97
-16.24
-15.61
-14.17
-12.12
-9.64
-6.92
-4.12
-1.33
1.25
3.41
4.97
5.85
6.12
6.02
5.86
5.90
6.24
6.80
7.36
7.76
7.95
8.01
8.09
8.29
8.55
8.74
8.70
8.38
7.81
7.14
6.47
5.80
5.07
4.16
3.06
1.77
0.38
-1.02
-2.35
-3.56
-4.70
-5.85
-7.23
-8.96
-11.04
-13.25
-15.20
-16.48
-16.81
-16.17
-14.70
-12.61
-10.06
-7.20
-4.13
-1.04
1.82
4.19
5.92
7.03
7.63
7.90
7.97
7.92
7.76
7.51
7.26
7.11
7.14
7.39
7.80
8.28
8.74
9.09
9.34
9.48
9.48
9.21
8.54
7.39
5.82
4.07
2.45
1.20
0.39
-0.08
-0.45
-0.87
-1.46
-2.25
-3.25
-4.57
-6.31
-8.59
-11.28
-14.01
-16.21
-17.30
-16.95
-15.19
-12.41
-9.13
-5.76
-2.51
0.62
3.70
6.68
9.39
11.58
13.03
13.61
13.36
12.46
11.20
9.90
8.87
8.35
8.44
9.09
10.09
11.21
12.21
12.95
13.40
13.52
13.32
12.82
12.10
11.26
10.37
9.44
8.41
7.24
5.98
4.69
3.38
1.99
0.40
-1.52
-3.71
-5.97
-7.95
-9.31
-9.85
-9.53
-8.42
-6.58
-4.07
-1.00
2.39
5.74
8.61
10.62
11.63
11.66
10.95
9.78
8.40
7.01
5.69
4.46
3.34
2.36
1.63
1.24
1.25
1.65
2.28
2.91
3.32
3.36
3.02
2.35
1.42
0.30
-1.02
-2.52
-4.20
-6.08
-8.21
-10.63
-13.29
-15.97
-18.31
-19.95
-20.66
-20.44
-19.52
-18.14
-16.48
-14.54
-12.27
-9.66
-6.86
-4.12
-1.69
0.28
1.72
2.61
2.94
2.75
2.12
1.25
0.43
-0.11
-0.22
0.10
0.73
1.50
2.30
3.02
3.59
3.97
4.10
3.96
3.55
2.83
1.80
0.43
-1.18
-2.82
-4.24
-5.34
-6.23
-7.25
-8.83
-11.19
-14.22
-17.40
-20.00
-21.38
-21.19
-19.49
-16.64
-13.15
-9.47
-5.88
-2.55
0.42
2.93
4.84
6.02
6.44
6.19
5.53
4.81
4.33
4.23
4.45
4.79
5.08
5.27
5.45
5.77
6.29
6.94
7.57
7.96
8.05
7.82
7.38
6.79
6.06
5.18
4.10
2.83
1.41
-0.10
-1.58
-2.99
-4.36
-5.81
-7.52
-9.63
-12.10
-14.66
-16.81
-18.09
-18.22
-17.21
-15.31
-12.84
-10.04
-7.02
-3.77
-0.40
2.82
5.52
7.39
8.32
8.48
8.19
7.77
7.41
7.16
7.02
7.05
7.41
8.26
9.63
11.36
13.05
14.32
14.90
14.83
14.36
13.82
13.39
13.07
12.70
12.10
11.18
10.01
8.75
7.55
6.44
5.40
4.34
3.21
2.00
0.82
-0.32
-1.41
-2.57
-3.92
-5.53
-7.30
-8.97
-10.19
-10.64
-10.17
-8.77
-6.58
-3.79
-0.61
2.72
5.98
8.91
11.30
12.94
13.75
13.75
13.11
12.08
10.96
10.01
9.38
9.12
9.22
9.56
10.10
10.71
11.32
11.85
12.21
12.32
12.18
11.81
11.24
10.47
9.49
8.29
6.93
5.55
4.22
3.05
1.98
0.93
-0.21
-1.51
-3.02
-4.74
-6.65
-8.75
-10.96
-13.12
-15.00
-16.26
-16.62
-15.91
-14.21
-11.76
-8.89
-5.93
-3.10
-0.55
1.63
3.38
4.60
5.25
5.33
4.99
4.45
3.89
3.44
3.14
2.98
2.96
3.12
3.50
4.09
4.81
5.50
6.04
6.36
6.47
6.37
6.02
5.32
4.17
2.64
0.92
-0.78
-2.25
-3.52
-4.73
-6.05
-7.54
-9.07
-10.40
-11.37
-11.98
-12.49
-13.22
-14.42
-16.09
-17.94
-19.55
-20.52
-20.56
-19.61
-17.77
-15.22
-12.19
-8.89
-5.62
-2.64
-0.14
1.78
3.18
4.17
4.85
5.23
5.32
5.17
4.90
4.72
4.75
5.01
5.40
5.83
6.20
6.57
7.01
7.59
8.25
8.83
9.19
9.21
8.90
8.33
7.59
6.71
5.71
4.57
3.33
2.04
0.76
-0.46
-1.60
-2.69
-3.70
-4.60
-5.37
-6.01
-6.64
-7.45
-8.58
-10.08
-11.80
-13.54
-15.06
-16.25
-17.04
-17.38
-17.05
-15.81
-13.49
-10.18
-6.34
-2.59
0.44
2.48
3.57
4.06
4.31
4.51
4.64
4.61
4.36
4.00
3.76
3.83
4.30
5.07
5.96
6.75
7.37
7.87
8.37
8.99
9.66
10.21
10.39
10.04
9.15
7.91
6.57
5.36
4.35
3.46
2.53
1.41
0.13
-1.09
-2.01
-2.44
-2.42
-2.26
-2.40
-3.18
-4.68
-6.64
-8.57
-10.02
-10.75
-10.75
-10.13
-8.96
-7.18
-4.75
-1.68
1.80
5.27
8.29
10.58
12.04
12.79
12.98
12.78
12.26
11.40
10.15
8.53
6.71
5.00
3.86
3.60
4.29
5.59
7.00
8.11
8.81
9.25
9.55
9.56
8.88
7.15
4.54
1.88
0.36
0.91
3.52
7.22
10.45
11.92
11.14
8.53
5.03
1.46
-1.77
-4.69
-7.40
-9.78
-11.42
-11.84
-10.75
-8.28
-4.94
-1.40
1.79
4.30
6.14
7.50
8.59
9.51
10.21
10.54
10.34
9.53
8.29
6.99
6.10
5.98
6.67
7.80
8.70
8.67
7.39
4.99
2.04
-0.82
-3.19
-5.06
-6.74
-8.56
-10.61
-12.76
-14.71
-16.23
-17.30
-18.04
-18.56
-18.79
-18.60
-17.79
-16.37
-14.51
-12.52
-10.64
-8.96
-7.38
-5.73
-3.91
-1.95
-0.03
1.54
2.46
2.53
1.78
0.47
-0.99
-2.17
-2.80
-2.86
-2.53
-2.06
-1.71
-1.58
-1.74
-2.25
-3.17
-4.56
-6.37
-8.35
-10.11
-11.27
-11.66
-11.46
-11.21
-11.46
-12.48
-13.94
-15.09
-15.10
-13.65
-11.15
-8.51
-6.55
-5.59
-5.31
-5.11
-4.59
-3.80
-3.05
-2.60
-2.29
-1.64
-0.17
2.32
5.63
9.23
12.59
15.22
16.77
16.92
15.50
12.51
8.29
3.49
-1.07
-4.59
-6.45
-6.30
-4.18
-0.59
3.48
6.81
8.32
7.52
4.66
0.57
-3.87
-8.08
-12.01
-15.86
-19.65
-22.89
-24.73
-24.37
-21.64
-17.22
-12.36
-8.34
-5.77
-4.41
-3.45
-2.05
0.11
2.70
4.94
6.11
5.93
4.69
3.13
2.00
1.89
2.94
4.94
7.43
9.86
11.73
12.76
12.85
12.18
11.13
10.10
9.40
9.06
8.91
8.65
8.09
7.11
5.72
3.93
1.80
-0.48
-2.50
-3.68
-3.56
-2.04
0.37
2.77
4.25
4.27
2.88
0.55
-2.05
-4.36
-6.02
-6.89
-7.06
-6.80
-6.59
-6.93
-8.15
-10.10
-12.29
-14.06
-14.91
-14.71
-13.60
-11.77
-9.31
-6.18
-2.46
1.55
5.33
8.30
10.15
10.88
10.81
10.32
9.74
9.23
8.84
8.64
8.69
9.03
9.64
10.39
11.13
11.73
12.14
12.41
12.69
13.09
13.65
14.25
14.70
14.75
14.22
13.04
11.30
9.23
7.12
5.20
3.67
2.54
1.72
0.95
-0.02
-1.45
-3.43
-5.85
-8.34
-10.36
-11.36
-11.03
-9.57
-7.66
-6.24
-6.00
-6.89
-8.06
-8.28
-6.64
-3.05
1.56
5.76
8.38
9.02
8.14
6.67
5.46
4.86
4.80
5.11
5.75
6.88
8.55
10.41
11.67
11.52
9.63
6.46
3.10
0.79
0.25
1.31
3.05
4.27
4.28
3.11
1.47
0.26
-0.07
0.34
0.84
0.76
-0.19
-1.77
-3.28
-4.15
-4.20
-3.84
-3.79
-4.63
-6.41
-8.51
-9.89
-9.52
-6.91
-2.43
2.76
7.14
9.40
9.00
6.33
2.48
-1.29
-4.15
-5.93
-6.95
-7.65
-8.21
-8.41
-7.83
-6.28
-4.06
-2.00
-1.06
-1.99
-4.85
-8.82
-12.41
-13.95
-12.27
-7.18
0.26
8.11
14.22
17.02
16.02
11.89
6.03
-0.10
-5.53
-9.89
-13.36
-16.28
-18.76
-20.63
-21.48
-20.94
-18.90
-15.65
-11.74
-7.80
-4.32
-1.59
0.35
1.56
2.19
2.43
2.48
2.52
2.67
2.88
3.01
2.89
2.43
1.77
1.20
1.00
1.28
1.90
2.56
3.05
3.27
3.30
3.21
3.02
2.65
2.05
1.29
0.61
0.29
0.49
1.01
1.52
1.67
1.28
0.48
-0.49
-1.44
-2.36
-3.36
-4.52
-5.81
-7.06
-8.20
-9.19
-10.12
-10.97
-11.55
-11.56
-10.71
-8.98
-6.68
-4.35
-2.41
-0.93
0.32
1.72
3.44
5.29
6.79
7.50
7.21
6.11
4.70
3.53
3.01
3.19
3.92
4.92
5.98
7.01
8.04
9.07
10.05
10.89
11.39
11.41
10.91
9.91
8.59
7.17
5.84
4.82
4.22
4.05
4.23
4.53
4.67
4.38
3.47
2.00
0.22
-1.48
-2.74
-3.37
-3.44
-3.19
-2.87
-2.56
-2.15
-1.49
-0.56
0.43
1.19
1.49
1.37
1.09
0.87
0.81
0.81
0.73
0.53
0.32
0.29
0.53
0.97
1.40
1.62
1.56
1.27
0.95
0.73
0.65
0.62
0.48
0.09
-0.61
-1.59
-2.70
-3.79
-4.77
-5.64
-6.50
-7.47
-8.66
-10.09
-11.63
-13.16
-14.46
-15.35
-15.64
-15.22
-14.06
-12.27
-10.03
-7.62
-5.32
-3.33
-1.77
-0.67
0.11
0.76
1.44
2.20
2.87
3.18
2.94
2.17
1.20
0.40
0.09
0.33
0.97
1.81
2.73
3.68
4.59
5.24
5.33
4.64
3.24
1.51
0.02
-0.84
-1.03
-0.90
-0.92
-1.42
-2.41
-3.59
-4.58
-5.10
-5.18
-5.01
-4.87
-4.98
-5.44
-6.29
-7.53
-9.11
-10.90
-12.64
-13.92
-14.35
-13.69
-12.05
-9.82
-7.51
-5.53
-4.00
-2.84
-1.81
-0.79
0.21
1.07
1.71
2.10
2.25
2.20
1.91
1.41
0.75
0.10
-0.34
-0.41
-0.05
0.71
1.78
3.04
4.31
5.30
5.74
5.44
4.40
2.93
1.47
0.49
0.21
0.49
0.94
1.08
0.61
-0.48
-1.92
-3.36
-4.48
-5.23
-5.73
-6.17
-6.68
-7.26
-7.84
-8.37
-8.94
-9.66
-10.61
-11.64
-12.42
-12.59
-11.94
-10.55
-8.75
-6.95
-5.39
-4.09
-2.93
-1.74
-0.52
0.64
1.61
2.34
2.85
3.16
3.25
3.12
2.79
2.38
2.06
1.98
2.18
2.57
3.02
3.46
3.87
4.31
4.77
5.15
5.32
5.18
4.76
4.20
3.65
3.25
3.00
2.82
2.56
2.08
1.27
0.18
-1.01
-2.06
-2.70
-2.83
-2.57
-2.20
-2.06
-2.42
-3.37
-4.87
-6.78
-8.83
-10.71
-12.09
-12.68
-12.32
-11.07
-9.21
-7.07
-4.99
-3.10
-1.47
-0.06
1.13
2.07
2.75
3.22
3.58
3.94
4.40
4.98
5.65
6.38
7.12
7.85
8.56
9.25
9.94
10.66
11.40
12.15
12.80
13.26
13.42
13.30
12.95
12.45
11.80
11.02
10.15
9.26
8.45
7.77
7.16
6.57
5.98
5.44
4.99
4.57
3.95
2.83
1.08
-1.11
-3.20
-4.57
-4.83
-3.98
-2.41
-0.62
1.02
2.42
3.70
5.03
6.46
7.88
9.04
9.70
9.69
9.04
7.91
6.58
5.31
4.22
3.37
2.72
2.31
2.21
2.52
3.18
4.00
4.66
4.89
4.63
4.04
3.44
3.07
2.93
2.82
2.44
1.56
0.14
-1.68
-3.72
-5.80
-7.81
-9.65
-11.20
-12.33
-12.88
-12.78
-12.06
-10.91
-9.50
-8.00
-6.44
-4.78
-2.99
-1.09
0.68
2.05
2.71
2.49
1.46
-0.06
-1.64
-2.88
-3.55
-3.65
-3.32
-2.76
-2.10
-1.40
-0.69
-0.03
0.45
0.63
0.43
-0.12
-0.88
-1.77
-2.73
-3.80
-5.03
-6.34
-7.62
-8.74
-9.73
-10.75
-12.05
-13.73
-15.64
-17.32
-18.26
-18.11
-16.89
-14.93
-12.66
-10.37
-8.13
-5.84
-3.41
-0.92
1.42
3.35
4.61
5.14
5.04
4.56
4.05
3.82
4.03
4.58
5.17
5.46
5.23
4.58
3.85
3.48
3.65
4.19
4.66
4.62
3.88
2.65
1.36
0.42
-0.06
-0.20
-0.31
-0.65
-1.36
-2.45
-3.90
-5.72
-7.88
-10.20
-12.31
-13.83
-14.43
-14.09
-13.02
-11.59
-10.06
-8.50
-6.75
-4.61
-2.07
0.63
3.08
4.93
5.99
6.33
6.24
6.00
5.81
5.76
5.82
6.05
6.49
7.23
8.23
9.35
10.35
11.02
11.33
11.33
11.15
10.81
10.30
9.55
8.59
7.56
6.65
5.96
5.41
4.79
3.87
2.62
1.21
-0.05
-0.98
-1.63
-2.30
-3.36
-5.01
-7.15
-9.38
-11.20
-12.17
-12.14
-11.20
-9.58
-7.50
-5.08
-2.36
0.62
3.72
6.63
9.03
10.64
11.36
11.28
10.67
9.89
9.29
9.09
9.34
9.92
10.71
11.53
12.31
13.07
13.87
14.75
15.65
16.43
16.90
16.95
16.54
15.82
15.02
14.33
13.85
13.44
12.83
11.77
10.22
8.36
6.57
5.10
4.00
3.01
1.79
0.14
-1.90
-4.02
-5.82
-7.02
-7.44
-7.10
-5.99
-4.19
-1.78
1.06
4.07
6.96
9.52
11.54
12.84
13.31
12.94
11.90
10.52
9.21
8.27
7.82
7.78
7.96
8.21
8.48
8.87
9.44
10.16
10.87
11.33
11.27
10.54
9.15
7.30
5.31
3.50
1.99
0.70
-0.62
-2.21
-4.16
-6.38
-8.64
-10.72
-12.52
-14.08
-15.47
-16.68
-17.62
-18.03
-17.71
-16.53
-14.54
-11.93
-9.00
-6.01
-3.17
-0.58
1.74
3.75
5.32
6.29
6.51
5.97
4.80
3.30
1.72
0.27
-0.95
-1.82
-2.25
-2.16
-1.53
-0.51
0.66
1.78
2.66
3.25
3.53
3.43
2.86
1.75
0.16
-1.69
-3.53
-5.17
-6.53
-7.67
-8.68
-9.64
-10.66
-11.90
-13.52
-15.64
-18.14
-20.57
-22.34
-22.91
-22.09
-20.13
-17.54
-14.83
-12.18
-9.48
-6.49
-3.18
0.16
3.05
5.02
5.96
6.11
5.89
5.60
5.27
4.74
3.86
2.85
2.20
2.47
3.93
6.27
8.77
10.58
11.24
10.85
9.93
9.05
8.43
7.87
7.00
5.60
3.79
1.99
0.63
-0.13
-0.61
-1.29
-2.65
-4.77
-7.42
-10.23
-12.88
-15.28
-17.46
-19.44
-21.03
-21.91
-21.77
-20.53
-18.44
-16.09
-14.19
-13.27
-13.41
-14.23
-14.95
-14.80
-13.18
-9.97
-5.53
-0.62
3.83
7.08
8.72
8.85
7.93
6.62
5.58
5.22
5.69
6.89
8.49
10.04
11.14
11.44
10.83
9.38
7.37
5.10
2.94
1.19
0.12
-0.07
0.62
1.84
3.06
3.65
3.31
2.12
0.49
-1.15
-2.69
-4.34
-6.41
-8.94
-11.55
-13.55
-14.32
-13.60
-11.58
-8.74
-5.45
-1.83
2.16
6.42
10.43
13.28
14.03
12.21
8.21
3.32
-0.75
-2.42
-1.02
3.00
8.12
12.30
13.71
11.21
4.68
-5.01
-16.25
-27.00
-35.31
-39.68
-39.53
-35.28
-28.21
-20.05
-12.35
-5.97
-0.75
4.28
10.46
18.75
29.13
40.47
50.95
58.75
62.76
62.89
59.90
54.96
49.11
43.07
37.24
31.85
27.15
23.28
20.36
18.21
16.46
14.52
11.72
7.61
2.37
-3.08
-7.12
-7.96
-4.16
5.13
20.49
42.61
72.26
109.66
153.69
201.62
249.56
293.64
330.87
359.54
378.86
388.51
388.62
380.16
365.45
347.92
331.14
317.29
306.46
296.85
285.82
271.11
251.22
225.27
192.28
151.18
101.24
42.84
-22.10
-90.37
-158.22
-222.48
-281.41
-334.96
-384.53
-432.53
-481.92
-535.30
-593.84
-655.93
-716.50
-767.63
-800.86
-810.07
-794.05
-756.98
-706.72
-651.66
-597.94
-548.30
-502.72
-460.21
-420.22
-383.05
-349.12
-318.08
-288.56
-258.69
-227.18
-193.98
-160.26
-127.87
-98.36
-72.17
-48.57
-26.02
-2.92
21.69
47.79
74.62
101.08
126.33
150.09
172.66
194.78
217.50
241.98
269.22
299.34
330.91
360.88
385.28
400.81
406.27
403.01
393.93
381.81
368.01
352.47
334.84
315.90
297.81
283.10
273.07
266.72
261.32
254.07
243.79
231.25
218.23
205.99
194.41
182.34
168.70
153.69
138.99
127.04
119.64
116.96
117.37
118.24
117.21
113.14
106.32
97.93
89.11
80.41
71.72
62.47
52.04
39.79
24.82
5.69
-19.13
-50.30
-86.53
-124.63
-160.81
-192.56
-220.01
-245.25
-270.36
-294.98
-315.55
-326.66
-323.75
-305.41
-273.73
-232.91
-187.15
-139.59
-92.49
-48.08
-8.88
23.16
47.97
67.93
86.81
107.81
131.87
157.45
181.69
202.05
217.33
227.38
232.41
232.44
227.49
218.02
205.22
190.53
174.83
158.08
139.57
118.74
96.00
73.05
52.48
36.81
27.72
25.32
28.23
34.04
39.94
43.74
44.46
42.65
39.92
38.12
38.32
40.25
42.23
41.67
35.76
22.08
-0.80
-32.71
-71.34
-112.15
-148.82
-174.76
-184.78
-176.39
-150.26
-109.85
-60.16
-6.53
46.23
94.22
134.31
163.97
181.28
185.14
175.58
153.97
122.83
85.16
43.76
0.63
-43.18
-86.92
-129.38
-168.34
-200.84
-224.08
-236.56
-238.63
-232.25
-220.12
-204.66
-187.68
-170.26
-153.20
-137.21
-122.94
-110.83
-100.97
-93.13
-86.89
-81.82
-77.51
-73.61
-69.85
-66.00
-61.90
-57.44
-52.50
-46.96
-40.73
-33.91
-26.92
-20.53
-15.59
-12.79
-12.22
-13.34
-15.10
-16.36
-16.27
-14.47
-11.16
-6.80
-1.96
2.97
7.61
11.53
14.11
14.58
12.29
7.10
-0.37
-8.78
-16.35
-21.60
-23.86
-23.68
-22.59
-22.42
-24.57
-29.48
-36.50
-44.17
-50.87
-55.33
-56.97
-56.08
-53.65
-51.19
-50.24
-51.76
-55.51
-59.73
-61.50
-57.75
-46.61
-28.32
-5.43
18.06
38.03
51.85
59.10
61.55
62.26
64.40
70.07
79.61
91.62
103.51
112.57
116.99
116.48
112.13
105.70
98.67
91.68
84.50
76.58
67.56
57.45
46.31
33.87
19.20
1.07
-21.39
-48.17
-78.03
-108.83
-138.04
-163.30
-182.91
-196.10
-203.19
-205.49
-204.89
-202.98
-200.43
-196.67
-190.29
-179.83
-164.54
-144.27
-118.97
-88.29
-51.92
-10.85
31.49
69.35
96.21
107.53
102.79
85.89
63.43
41.84
24.99
13.42
5.43
-1.15
-7.36
-12.66
-15.55
-14.97
-11.12
-5.63
-0.67
2.45
4.21
7.03
14.08
27.47
46.94
69.68
91.55
108.88
119.89
124.90
125.56
123.91
121.86
121.40
125.18
136.72
159.46
195.01
241.25
291.41
335.05
361.06
361.25
333.04
280.30
211.38
135.95
61.76
-7.21
-70.77
-131.40
-192.35
-255.76
-321.17
-384.71
-439.56
-477.61
-492.26
-480.98
-446.62
-396.38
-339.09
-282.23
-230.03
-183.34
-140.63
-99.44
-57.13
-11.63
37.92
90.06
140.23
180.90
203.11
199.34
166.35
107.36
32.08
-45.27
-109.98
-150.65
-162.16
-146.23
-109.59
-60.86
-7.47
45.70
95.93
141.51
180.88
212.80
237.16
255.24
269.08
280.18
288.37
291.92
288.70
277.69
260.11
239.57
220.82
208.01
202.93
204.11
207.01
205.45
193.68
168.37
129.89
82.61
33.55
-9.43
-39.48
-52.41
-47.68
-28.71
-2.30
23.46
42.05
51.58
56.07
63.87
83.34
118.25
165.07
213.88
252.58
272.08
269.74
249.50
218.88
185.13
152.40
121.47
91.37
61.66
33.30
8.12
-12.81
-30.30
-47.08
-66.41
-90.10
-117.33
-144.80
-168.26
-184.61
-193.33
-196.58
-198.18
-201.79
-209.57
-221.67
-236.58
-251.98
-265.44
-274.97
-279.18
-277.49
-270.33
-259.12
-246.00
-233.13
-221.91
-212.32
-203.40
-194.10
-184.31
-175.35
-169.47
-168.92
-174.66
-185.82
-199.81
-212.99
-221.50
-222.06
-212.61
-192.74
-163.89
-128.78
-90.97
-53.52
-18.20
14.98
47.50
81.42
118.56
159.66
203.39
245.83
280.80
302.01
305.97
294.10
272.47
249.10
230.12
217.57
209.36
201.86
192.28
179.76
164.59
146.81
126.07
102.74
79.51
61.30
53.28
57.81
72.36
90.67
105.40
111.18
105.67
89.26
64.16
33.65
1.80
-27.00
-49.24
-63.27
-70.08
-72.72
-74.76
-78.97
-86.07
-94.30
-99.49
-96.05
-78.96
-46.55
-3.03
41.61
75.10
88.81
82.71
65.88
51.86
50.95
64.59
85.18
101.08
103.52
90.86
68.04
42.13
17.86
-4.36
-27.17
-53.28
-83.22
-114.91
-144.56
-168.44
-183.96
-189.97
-187.20
-177.98
-165.54
-152.87
-141.66
-131.54
-120.47
-106.18
-87.46
-65.00
-40.94
-17.87
2.20
18.23
30.05
37.98
42.79
46.03
49.78
56.47
68.06
85.13
106.60
130.08
152.62
171.56
185.02
192.09
192.79
187.99
179.20
168.43
157.58
147.86
139.27
130.81
120.82
107.86
91.15
70.71
47.09
20.98
-6.96
-36.01
-65.31
-93.95
-121.17
-146.75
-171.28
-196.02
-222.74
-253.52
-290.33
-334.47
-385.54
-440.23
-492.07
-532.56
-553.71
-550.96
-525.18
-482.28
-431.03
-379.70
-333.65
-294.59
-261.64
-233.04
-207.49
-184.36
-163.16
-142.91
-122.17
-99.53
-74.30
-46.79
-18.17
10.40
38.49
66.81
96.99
130.41
166.74
202.99
233.73
253.11
257.87
249.80
235.83
225.17
224.92
236.82
256.96
278.28
294.09
300.44
296.06
281.06
256.11
222.83
185.09
149.19
122.17
108.68
108.59
117.15
128.11
137.61
146.15
157.97
177.80
207.53
244.80
283.88
318.00
341.75
352.47
350.22
336.90
315.21
287.69
256.39
222.75
187.83
152.72
118.83
87.89
61.78
41.88
28.34
19.92
14.12
8.01
-0.82
-13.51
-29.97
-49.40
-71.02
-94.10
-117.37
-138.59
-154.58
-162.33
-160.60
-150.93
-137.55
-125.67
-119.17
-119.04
-123.22
-127.87
-129.47
-126.44
-119.55
-111.20
-104.02
-99.56
-97.83
-97.57
-97.12
-95.32
-92.07
-88.23
-85.13
-83.96
-85.29
-88.86
-93.76
-98.87
-103.30
-106.88
-110.11
-113.86
-118.65
-124.18
-129.19
-131.75
-130.16
-123.61
-112.64
-99.06
-85.79
-76.34
-74.09
-81.15
-97.24
-118.91
-140.04
-153.47
-153.49
-138.07
-109.53
-73.62
-37.12
-5.55
18.22
33.86
42.41
45.09
42.79
36.15
26.24
14.73
3.74
-4.88
-10.29
-12.92
-14.25
-15.76
-18.06
-20.44
-21.15
-18.36
-11.13
-0.00
13.13
25.81
36.01
42.75
46.18
47.18
46.75
45.58
43.88
41.57
38.50
34.69
30.43
26.22
22.63
20.13
18.92
18.79
19.14
19.21
18.32
16.12
12.73
8.68
4.62
1.09
-1.65
-3.62
-5.06
-6.27
-7.50
-8.83
-10.17
-11.27
-11.77
-11.28
-9.58
-6.69
-2.98
1.02
4.67
7.47
9.16
9.72
9.26
8.04
6.32
4.38
2.52
1.02
0.15
0.14
1.07
2.93
5.58
8.75
12.12
15.35
18.08
19.99
20.79
20.33
18.69
16.17
13.28
10.53
8.23
6.47
5.08
3.91
2.91
2.23
2.06
2.53
3.61
5.15
6.96
8.90
10.89
12.76
14.24
14.98
14.68
13.26
10.91
8.08
5.30
2.98
1.35
0.44
0.16
0.37
0.92
1.63
2.28
2.70
2.83
2.71
2.56
2.64
3.15
4.20
5.62
7.11
8.26
8.72
8.32
7.14
5.56
4.09
3.27
3.44
4.64
6.59
8.81
10.76
12.08
12.56
12.21
11.13
9.48
7.45
5.19
2.87
0.62
-1.40
-3.18
-4.71
-6.01
-7.07
-7.83
-8.15
-8.01
-7.52
-6.92
-6.52
-6.56
-7.00
-7.65
-8.16
-8.26
-7.87
-7.16
-6.42
-5.90
-5.66
-5.55
-5.29
-4.57
-3.20
-1.17
1.33
4.02
6.55
8.65
10.17
11.04
11.33
11.10
10.41
9.31
7.92
6.39
4.96
3.90
3.38
3.48
4.07
4.85
5.51
5.70
5.23
4.06
2.36
0.40
-1.44
-2.93
-3.95
-4.55
-4.87
-5.05
-5.12
-5.08
-4.85
-4.35
-3.55
-2.42
-0.95
0.77
2.58
4.19
5.31
5.71
5.32
4.25
2.75
1.12
-0.45
-1.86
-3.12
-4.32
-5.46
-6.47
-7.25
-7.65
-7.67
-7.39
-6.94
-6.43
-5.86
-5.13
-4.09
-2.67
-0.90
1.04
2.87
4.35
5.34
5.88
6.13
6.31
6.58
7.06
7.78
8.85
10.38
12.48
15.23
18.56
22.24
25.90
29.23
32.04
34.38
36.46
38.59
41.09
44.14
47.76
51.88
56.38
61.12
66.07
71.26
76.74
82.67
89.27
96.82
105.67
116.03
127.99
141.45
156.06
171.40
187.06
202.68
218.13
233.34
248.26
262.62
275.79
286.63
293.67
295.41
290.76
279.51
262.55
241.59
218.76
196.04
174.81
155.76
139.05
124.54
111.99
101.08
91.36
82.17
72.79
62.67
51.72
40.47
29.95
21.39
15.70
13.19
13.44
15.56
18.47
21.27
23.34
24.33
23.80
20.99
14.63
3.17
-14.83
-40.42
-74.27
-116.71
-167.72
-226.61
-291.52
-359.18
-425.30
-485.72
-537.52
-579.66
-612.60
-637.08
-653.09
-659.65
-655.70
-641.37
-618.77
-591.56
-563.72
-538.08
-515.65
-495.92
-477.83
-460.68
-444.40
-429.30
-415.43
-402.17
-388.30
-372.50
-353.84
-332.06
-307.77
-282.05
-256.23
-231.45
-208.41
-187.44
-168.53
-151.68
-136.90
-124.30
-113.90
-105.58
-98.93
-93.30
-87.94
-82.13
-75.38
-67.43
-58.34
-48.30
-37.62
-26.59
-15.44
-4.39
6.37
16.59
26.04
34.51
41.89
48.15
53.40
57.79
61.52
64.74
67.54
69.97
71.97
73.49
74.43
74.71
74.23
72.94
70.84
67.92
64.26
59.98
55.19
50.07
44.79
39.52
34.42
29.61
25.14
20.99
17.04
13.17
9.26
5.26
1.25
-2.56
-5.90
-8.43
-9.85
-9.98
-8.70
-6.03
-2.03
3.19
9.53
16.81
24.80
33.13
41.33
48.89
55.37
60.57
64.61
67.94
71.16
74.79
79.13
84.05
89.16
93.98
98.30
102.35
106.80
112.52
120.16
129.81
140.80
151.97
162.14
170.66
177.78
184.64
192.79
203.45
216.99
232.68
249.13
264.91
279.26
292.55
306.06
321.80
342.19
369.79
406.83
454.04
509.48
567.81
621.10
661.03
681.90
682.74
667.55
643.27
616.77
592.29
570.84
551.16
531.56
511.30
490.57
469.73
448.44
425.52
399.65
370.41
338.74
306.71
276.65
250.01
226.66
204.99
182.72
157.93
130.06
100.04
69.88
41.59
16.12
-7.13
-30.05
-54.92
-83.31
-115.31
-149.64
-184.16
-216.96
-247.19
-275.30
-302.80
-331.81
-364.60
-403.02
-447.54
-496.19
-543.90
-582.97
-605.13
-604.36
-579.42
-534.54
-477.86
-418.26
-362.36
-312.97
-269.71
-230.84
-195.10
-162.44
-133.48
-108.49
-86.79
-67.06
-48.26
-30.42
-14.70
-2.86
3.89
5.71
4.30
2.32
2.42
6.26
14.04
24.53
35.67
45.21
51.38
53.30
51.12
46.02
39.80
34.33
30.93
29.98
30.89
32.55
33.79
33.83
32.39
29.42
24.91
18.63
10.32
-0.04
-11.89
-23.99
-34.55
-41.79
-44.51
-42.52
-36.68
-28.60
-20.07
-12.38
-6.10
-1.07
3.16
7.06
10.82
14.38
17.67
20.73
23.80
27.23
31.35
36.34
42.14
48.43
54.65
60.05
63.91
65.73
65.40
63.39
60.57
58.03
56.70
57.11
59.32
62.95
67.39
71.96
76.04
79.02
80.12
78.50
73.30
63.88
50.01
31.92
10.27
-13.93
-39.40
-64.74
-88.47
-108.97
-124.49
-133.35
-134.39
-127.39
-113.38
-94.61
-73.83
-53.54
-35.24
-19.27
-5.09
7.97
20.20
31.37
41.02
48.93
55.23
60.14
63.43
64.28
61.34
53.43
40.29
22.98
4.08
-12.82
-24.01
-26.73
-19.83
-4.36
16.71
38.99
57.63
68.21
67.64
54.62
29.78
-4.58
-45.11
-87.99
-129.64
-167.27
-199.11
-224.36
-242.81
-254.42
-258.98
-256.25
-246.23
-229.60
-207.91
-183.32
-158.23
-134.80
-114.82
-99.70
-90.60
-88.34
-92.95
-103.26
-116.70
-129.95
-139.89
-144.73
-144.47
-140.59
-135.05
-129.18
-123.17
-116.30
-107.68
-96.97
-84.68
-71.80
-59.26
-47.33
-35.42
-22.48
-7.49
10.14
30.33
52.51
75.82
99.27
121.84
142.47
160.00
173.35
181.80
185.26
184.40
180.50
175.13
169.62
164.63
160.03
155.07
148.76
140.35
129.61
116.91
103.12
89.28
76.32
64.81
54.86
46.18
38.30
30.84
23.71
17.10
11.31
6.55
2.72
-0.53
-3.65
-7.09
-11.03
-15.43
-19.98
-24.20
-27.52
-29.39
-29.35
-27.17
-22.96
-17.25
-10.93
-5.07
-0.61
2.00
3.02
3.33
4.17
6.56
10.96
17.02
23.85
30.36
35.73
39.52
41.66
42.33
41.79
40.41
38.74
37.44
37.17
38.22
40.31
42.58
43.87
43.12
39.87
34.36
27.47
20.31
13.87
8.76
5.07
2.52
0.64
-1.07
-3.11
-5.90
-9.73
-14.69
-20.53
-26.68
-32.42
-37.08
-40.36
-42.41
-43.76
-45.00
-46.48
-48.19
-49.77
-50.76
-50.68
-49.18
-46.03
-41.04
-34.23
-25.86
-16.55
-7.23
1.15
7.81
12.43
15.19
16.69
17.65
18.79
20.61
23.36
26.99
31.13
35.15
38.25
39.70
39.02
36.16
31.55
26.00
20.47
15.83
12.66
11.11
10.96
11.71
12.79
13.68
13.97
13.44
11.97
9.61
6.57
3.26
0.24
-1.82
-2.40
-1.39
0.77
3.12
4.56
4.27
2.11
-1.24
-4.46
-5.99
-4.53
0.52
8.76
18.73
28.06
34.03
34.35
28.01
15.82
0.30
-15.10
-27.17
-33.98
-35.38
-32.72
-27.99
-23.03
-18.88
-15.71
-13.15
-10.67
-7.87
-4.59
-0.76
3.66
8.70
14.28
20.10
25.69
30.47
33.98
36.08
36.90
36.82
36.20
35.32
34.21
32.69
30.37
26.86
21.93
15.68
8.71
1.98
-3.51
-7.05
-8.65
-8.94
-8.88
-9.25
-10.20
-11.20
-11.31
-9.74
-6.28
-1.42
3.85
8.53
11.96
14.04
15.09
15.58
15.86
16.17
16.56
17.13
18.02
19.31
21.00
22.83
24.30
24.86
24.12
21.99
18.80
15.19
11.85
9.31
7.75
6.94
6.46
5.77
4.45
2.30
-0.69
-4.36
-8.52
-12.94
-17.33
-21.39
-24.72
-26.90
-27.55
-26.48
-23.92
-20.46
-17.00
-14.34
-12.91
-12.46
-12.25
-11.29
-8.87
-4.79
0.62
6.68
12.66
18.00
22.36
25.58
27.68
28.86
29.58
30.42
31.94
34.27
36.97
39.08
39.42
37.09
31.89
24.43
16.03
8.29
2.63
-0.06
0.31
3.02
6.82
10.27
12.16
11.82
9.36
5.47
1.33
-1.78
-2.87
-1.55
1.61
5.08
6.53
3.44
-6.01
-22.18
-43.50
-66.78
-87.95
-103.23
-110.14
-108.05
-98.26
-83.37
-66.55
-50.70
-37.84
-28.90
-23.75
-21.46
-20.66
-19.92
-18.07
-14.36
-8.71
-1.64
5.84
12.47
17.11
19.09
18.42
15.76
12.24
9.04
7.00
6.39
6.83
7.49
7.46
6.06
3.15
-0.78
-4.71
-7.43
-7.98
-6.05
-2.13
2.56
6.56
8.79
8.96
7.72
6.26
5.69
6.48
8.26
9.98
10.51
9.08
5.57
0.51
-5.03
-9.63
-11.55
-8.90
-0.13
15.43
36.89
61.72
86.20
106.60
120.29
126.42
125.88
120.45
112.02
101.94
91.09
80.17
69.99
61.35
54.55
48.92
42.68
33.44
19.20
-0.66
-24.93
-50.86
-75.14
-95.06
-109.30
-118.06
-122.61
-124.42
-124.63
-123.82
-122.14
-119.67
-116.49
-112.74
-108.41
-103.26
-96.89
-88.90
-79.07
-67.55
-54.73
-41.24
-27.71
-14.66
-2.47
8.63
18.47
26.84
33.52
38.34
41.31
42.67
42.89
42.48
41.85
41.15
40.28
38.97
36.88
33.76
29.53
24.31
18.50
12.62
7.15
2.36
-1.84
-5.90
-10.46
-16.03
-22.73
-30.15
-37.54
-44.00
-48.92
-52.21
-54.17
-55.33
-56.10
-56.58
-56.52
-55.50
-53.23
-49.62
-44.88
-39.31
-33.09
-26.18
-18.43
-9.79
-0.53
8.81
17.53
25.05
31.24
36.39
41.14
46.16
51.84
58.11
64.38
69.83
73.61
75.16
74.37
71.52
67.30
62.52
58.04
54.58
52.54
51.91
52.20
52.51
51.69
48.77
43.21
35.15
25.36
15.01
5.28
-2.97
-9.42
-14.23
-17.95
-21.20
-24.51
-28.09
-31.88
-35.66
-39.19
-42.36
-45.21
-47.87
-50.40
-52.67
-54.32
-55.00
-54.47
-52.81
-50.39
-47.63
-44.73
-41.63
-38.01
-33.58
-28.47
-23.26
-18.86
-16.11
-15.33
-16.16
-17.68
-18.85
-18.87
-17.56
-15.26
-12.57
-10.01
-7.75
-5.63
-3.29
-0.43
2.97
6.69
10.42
13.90
17.11
20.20
23.35
26.67
30.10
33.51
36.84
40.16
43.56
46.98
50.09
52.20
52.54
50.56
46.28
40.46
34.45
29.81
27.74
28.65
32.04
36.72
41.31
44.72
46.48
46.70
45.78
44.09
41.78
38.85
35.31
31.38
27.40
23.68
20.22
16.65
12.39
6.97
0.29
-7.31
-15.10
-22.38
-28.69
-33.97
-38.53
-42.82
-47.16
-51.53
-55.53
-58.50
-59.85
-59.25
-56.94
-53.66
-50.40
-47.98
-46.75
-46.44
-46.39
-45.87
-44.42
-42.07
-39.29
-36.76
-35.18
-35.06
-36.67
-39.99
-44.75
-50.50
-56.73
-62.94
-68.70
-73.61
-77.26
-79.15
-78.87
-76.19
-71.36
-65.02
-58.12
-51.58
-46.11
-42.10
-39.84
-39.63
-41.95
-47.38
-56.50
-69.67
-86.96
-108.10
-132.51
-159.33
-187.44
-215.55
-242.24
-265.96
-285.08
-297.79
-302.30
-297.11
-281.46
-255.71
-221.43
-181.03
-137.30
-92.76
-49.32
-8.17
30.12
65.37
97.69
127.28
154.40
179.21
201.63
221.32
237.74
250.28
258.52
262.34
262.06
258.41
252.41
245.14
237.47
229.77
221.89
213.28
203.34
191.77
178.71
164.79
150.82
137.46
125.02
113.41
102.32
91.46
80.68
70.03
59.67
49.75
40.38
31.67
23.80
17.09
11.81
8.11
5.88
4.69
4.02
3.33
2.27
0.69
-1.35
-3.75
-6.33
-8.92
-11.29
-13.24
-14.59
-15.25
-15.29
-14.93
-14.50
-14.29
-14.54
-15.36
-16.73
-18.56
-20.56
-22.34
-23.39
-23.24
-21.55
-18.31
-13.87
-8.79
-3.66
1.14
5.53
9.64
13.64
17.49
20.98
23.71
25.32
25.64
24.70
22.69
19.83
16.38
12.55
8.64
5.02
2.10
0.16
-0.74
-0.83
-0.57
-0.40
-0.59
-1.13
-1.75
-2.07
-1.84
-1.04
0.11
1.31
2.26
2.86
3.24
3.69
4.54
6.02
8.13
10.73
13.53
16.27
18.80
21.10
23.22
25.14
26.74
27.71
27.79
26.72
24.44
20.99
16.51
11.08
4.88
-1.85
-8.62
-14.82
-19.90
-23.56
-26.01
-27.82
-29.78
-32.48
-36.06
-40.08
-43.71
-46.00
-46.28
-44.42
-40.77
-36.06
-31.10
-26.50
-22.59
-19.42
-16.86
-14.70
-12.76
-10.83
-8.70
-6.26
-3.55
-0.92
1.03
1.59
0.25
-3.07
-7.82
-13.04
-17.54
-20.44
-21.36
-20.53
-18.61
-16.44
-14.61
-13.41
-12.77
-12.39
-11.90
-11.01
-9.68
-8.05
-6.44
-5.22
-4.65
-4.78
-5.47
-6.40
-7.26
-7.78
-7.81
-7.29
-6.28
-4.93
-3.48
-2.19
-1.29
-0.86
-0.81
-0.87
-0.71
-0.06
1.19
2.92
4.82
6.42
7.24
6.93
5.40
2.92
0.06
-2.48
-4.05
-4.29
-3.26
-1.36
0.80
2.65
3.74
3.86
3.04
1.43
-0.78
-3.41
-6.31
-9.34
-12.33
-15.01
-17.16
-18.65
-19.58
-20.29
-21.31
-23.03
-25.62
-28.80
-31.96
-34.38
-35.49
-35.15
-33.57
-31.26
-28.69
-26.18
-23.72
-21.13
-18.19
-14.76
-10.89
-6.68
-2.20
2.65
8.03
14.13
20.96
28.24
35.42
41.78
46.61
49.44
50.11
48.83
46.06
42.30
37.96
33.25
28.27
23.07
17.78
12.59
7.79
3.66
0.36
-2.07
-3.75
-4.93
-6.01
-7.38
-9.29
-11.69
-14.08
-15.71
-15.79
-13.91
-10.29
-5.71
-1.24
2.17
4.06
4.58
4.30
3.92
3.92
4.49
5.51
6.79
8.12
9.38
10.51
11.38
11.87
11.83
11.18
9.99
8.56
7.28
6.56
6.65
7.46
8.60
9.46
9.48
8.41
6.38
3.94
1.74
0.30
-0.17
0.13
0.81
1.40
1.57
1.14
0.12
-1.37
-3.10
-4.79
-6.15
-6.98
-7.17
-6.82
-6.11
-5.31
-4.68
-4.39
-4.52
-4.99
-5.63
-6.18
-6.45
-6.35
-5.98
-5.59
-5.52
-6.03
-7.21
-8.94
-10.94
-12.85
-14.38
-15.33
-15.63
-15.29
-14.36
-12.91
-11.07
-9.04
-7.12
-5.64
-4.90
-5.02
-5.85
-7.02
-8.05
-8.51
-8.16
-7.11
-5.67
-4.32
-3.51
-3.56
-4.54
-6.29
-8.44
-10.49
-11.95
-12.47
-11.93
-10.52
-8.62
-6.69
-5.14
-4.17
-3.75
-3.67
-3.64
-3.36
-2.61
-1.31
0.54
2.81
5.27
7.66
9.61
10.82
11.04
10.27
8.74
6.92
5.38
4.57
4.60
5.28
6.18
6.90
7.20
7.07
6.64
6.06
5.47
4.93
4.49
4.15
3.88
3.56
3.07
2.38
1.54
0.68
-0.06
-0.65
-1.17
-1.76
-2.57
-3.61
-4.80
-6.01
-7.17
-8.20
-9.12
-9.87
-10.42
-10.73
-10.85
-10.89
-10.99
-11.22
-11.57
-11.92
-12.09
-11.92
-11.38
-10.55
-9.59
-8.62
-7.69
-6.70
-5.54
-4.13
-2.50
-0.76
1.02
2.90
5.06
7.70
10.85
14.16
17.00
18.66
18.70
17.20
14.72
12.13
10.24
9.54
10.06
11.48
13.30
15.05
16.46
17.37
17.79
17.83
17.67
17.49
17.38
17.31
17.07
16.46
15.27
13.41
10.95
8.05
5.00
2.12
-0.24
-1.82
-2.54
-2.61
-2.51
-2.84
-4.10
-6.50
-9.87
-13.86
-18.31
-23.54
-30.35
-39.88
-53.11
-70.60
-92.12
-116.76
-142.91
-168.50
-191.20
-208.81
-219.80
-223.90
-222.46
-218.08
-213.87
-212.37
-214.63
-219.91
-225.76
-228.89
-225.96
-214.40
-193.07
-162.67
-125.62
-85.60
-46.75
-12.67
14.47
34.36
48.16
57.81
65.25
72.02
79.20
87.63
98.07
111.19
127.50
146.98
169.05
192.59
216.22
238.72
259.44
278.38
296.15
313.57
331.12
348.47
364.24
375.98
380.69
375.82
360.16
334.30
300.62
262.47
223.18
185.08
148.87
113.81
78.14
40.19
-0.48
-42.20
-81.11
-112.09
-130.50
-134.00
-123.49
-102.86
-77.48
-52.23
-30.26
-12.72
0.34
8.95
12.71
11.20
4.66
-5.63
-17.57
-29.22
-39.52
-48.70
-57.77
-67.81
-79.00
-90.32
-99.90
-105.78
-106.78
-102.92
-95.60
-87.04
-79.44
-74.28
-71.69
-70.62
-69.28
-65.87
-58.98
-48.30
-34.56
-19.27
-4.18
9.27
20.16
28.10
33.32
36.90
39.82
42.63
45.17
46.75
46.71
44.72
40.94
36.30
33.03
33.35
39.02
50.85
67.84
87.81
107.36
122.25
128.62
124.96
111.83
91.96
69.44
47.18
28.57
18.00
17.80
22.28
27.10
29.78
31.15
31.60
28.80
20.53
5.50
-16.27
-43.74
-74.65
-106.94
-138.84
-168.94
-199.81
-234.20
-274.09
-320.14
-371.88
-428.14
-488.43
-553.21
-601.24
-617.70
-598.02
-548.68
-479.80
-398.86
-310.87
-221.85
-139.72
-71.75
-25.21
-1.74
2.95
-3.85
-14.37
-24.10
-31.57
-36.63
-38.47
-38.52
-38.07
-37.88
-38.09
-38.35
-38.32
-36.80
-35.22
-33.08
-31.04
-29.72
-29.48
-30.30
-31.92
-34.25
-37.09
-40.00
-41.74
-41.95
-40.56
-37.61
-33.16
-27.36
-20.61
-13.45
-6.41
0.54
7.21
13.57
19.88
26.59
34.27
43.20
53.28
64.03
74.98
85.63
95.79
105.70
116.03
127.54
140.71
155.46
171.07
186.52
200.81
213.34
224.21
234.25
244.90
257.97
275.03
296.71
321.80
346.74
366.04
373.77
365.54
340.30
301.04
253.65
204.90
160.06
121.51
88.69
59.33
31.02
2.35
-26.61
-54.44
-78.75
-96.80
-106.25
-106.06
-97.28
-82.90
-67.21
-54.23
-46.34
-43.47
-43.46
-42.98
-38.65
-28.00
-9.92
14.97
44.21
73.73
98.83
115.74
123.17
123.03
119.43
116.59
116.73
118.99
120.30
117.15
107.38
90.86
69.26
45.46
23.08
6.21
-1.12
3.87
21.23
47.44
75.82
98.48
108.97
104.43
86.26
59.22
29.61
3.31
-15.58
-25.35
-26.51
-21.10
-11.76
-0.87
10.04
20.25
29.49
37.65
44.81
51.38
58.22
66.45
76.79
89.00
101.63
112.49
119.51
121.52
118.66
112.01
102.91
92.26
80.42
67.47
53.78
40.34
28.56
19.66
13.94
10.51
7.60
3.33
-3.42
-12.62
-23.27
-33.97
-43.59
-51.59
-58.01
-63.20
-67.55
-71.41
-75.06
-78.74
-82.58
-86.64
-90.80
-94.76
-98.14
-100.57
-101.80
-101.75
-100.49
-98.29
-95.54
-92.63
-89.83
-87.11
-84.15
-80.55
-76.10
-71.02
-65.91
-61.61
-58.70
-57.20
-56.51
-55.75
-54.16
-51.49
-48.17
-45.10
-43.37
-44.01
-47.64
-54.11
-62.05
-68.74
-70.59
-64.25
-48.00
-22.79
7.73
38.32
63.94
81.43
90.18
91.71
88.34
81.99
73.48
62.81
49.87
35.26
20.56
8.03
-0.29
-3.36
-1.68
2.88
7.84
11.10
11.61
9.47
5.52
0.68
-4.40
-9.48
-14.35
-18.68
-21.98
-23.75
-23.85
-22.57
-20.60
-18.77
-17.75
-17.88
-19.18
-21.27
-23.59
-25.47
-26.40
-26.18
-25.04
-23.48
-21.97
-20.82
-19.93
-19.03
-17.74
-15.86
-13.45
-10.74
-8.06
-5.73
-4.01
-3.02
-2.82
-3.35
-4.46
-5.82
-7.08
-7.90
-8.05
-7.58
-6.73
-5.89
-5.46
-5.66
-6.50
-7.72
-8.99
-10.05
-10.80
-11.38
-11.99
-12.86
-14.05
-15.42
-16.73
-17.64
-17.90
-17.43
-16.34
-14.86
-13.24
-11.67
-10.25
-9.01
-7.98
-7.26
-6.91
-6.94
-7.26
-7.62
-7.76
-7.52
-6.91
-6.12
-5.39
-4.94
-4.91
-5.36
-6.32
-7.79
-9.66
-11.62
-13.24
-14.14
-14.19
-13.63
-12.96
-12.68
-13.00
-13.78
-14.59
-14.99
-14.74
-13.73
-11.94
-9.28
-5.60
-0.94
4.32
9.45
13.63
16.32
17.46
17.42
16.74
15.87
15.02
14.27
13.69
13.44
13.68
14.45
15.53
16.54
17.11
17.04
16.41
15.46
14.51
13.68
12.92
12.00
10.71
8.96
6.88
4.75
2.93
1.68
1.05
0.91
0.97
0.93
0.55
-0.27
-1.49
-2.91
-4.29
-5.35
-5.90
-5.87
-5.30
-4.36
-3.23
-2.01
-0.73
0.65
2.17
3.76
5.23
6.32
6.86
6.78
6.21
5.40
4.56
3.79
3.01
2.11
1.07
-0.01
-0.86
-1.27
-1.15
-0.66
-0.07
0.35
0.48
0.35
0.09
-0.13
-0.27
-0.35
-0.56
-1.10
-2.15
-3.68
-5.45
-7.03
-8.01
-8.11
-7.36
-6.04
-4.57
-3.28
-2.34
-1.72
-1.25
-0.80
-0.25
0.43
1.24
2.03
2.61
2.70
2.11
0.85
-0.83
-2.52
-3.79
-4.43
-4.47
-4.13
-3.67
-3.22
-2.75
-2.15
-1.40
-0.56
0.18
0.71
1.04
1.30
1.63
2.06
2.47
2.64
2.41
1.79
1.01
0.38
0.15
0.45
1.24
2.42
3.85
5.48
7.19
8.84
10.21
11.05
11.14
10.36
8.74
6.54
4.14
1.95
0.30
-0.69
-1.12
-1.24
-1.41
-1.98
-3.12
-4.83
-6.85
-8.75
-10.02
-10.23
-9.21
-7.14
-4.48
-1.82
0.28
1.51
1.80
1.28
0.20
-1.09
-2.17
-2.59
-2.04
-0.42
2.02
4.79
7.29
9.10
10.05
10.27
10.04
9.61
9.13
8.67
8.23
7.77
7.25
6.59
5.72
4.62
3.33
2.02
0.85
0.00
-0.43
-0.45
-0.11
0.42
0.95
1.23
1.08
0.39
-0.81
-2.34
-4.03
-5.69
-7.19
-8.38
-9.12
-9.26
-8.69
-7.47
-5.85
-4.16
-2.72
-1.69
-1.06
-0.70
-0.46
-0.25
-0.06
0.07
0.10
0.05
-0.02
-0.04
0.00
0.10
0.21
0.31
0.44
0.63
0.94
1.32
1.66
1.77
1.48
0.77
-0.27
-1.41
-2.41
-3.15
-3.61
-3.91
-4.19
-4.56
-4.99
-5.41
-5.75
-6.01
-6.23
-6.45
-6.56
-6.35
-5.55
-4.01
-1.77
0.87
3.49
5.70
7.31
8.29
8.76
8.83
8.57
7.90
6.82
5.35
3.66
2.03
0.73
-0.07
-0.37
-0.39
-0.47
-0.92
-1.88
-3.27
-4.84
-6.30
-7.47
-8.34
-9.05
-9.78
-10.66
-11.75
-13.04
-14.46
-15.91
-17.25
-18.29
-18.78
-18.51
-17.40
-15.51
-13.08
-10.37
-7.63
-5.06
-2.77
-0.88
0.55
1.49
1.96
1.99
1.65
1.00
0.20
-0.48
-0.63
0.19
2.27
5.64
9.95
14.57
18.72
21.70
22.96
22.28
19.70
15.69
10.97
6.42
2.87
0.80
0.23
0.80
1.91
3.03
3.84
4.33
4.65
4.96
5.26
5.41
5.18
4.47
3.47
2.53
2.12
2.55
3.91
5.95
8.10
9.55
9.34
6.62
0.94
-7.47
-17.58
-27.78
-36.27
-41.62
-43.18
-41.05
-35.95
-28.79
-20.53
-11.99
-3.96
2.85
7.95
11.15
12.62
12.78
12.18
11.19
10.00
8.52
6.46
3.47
-0.69
-5.95
-11.79
-17.27
-21.25
-22.86
-21.86
-18.83
-14.96
-11.58
-9.67
-9.56
-10.99
-13.38
-16.11
-18.57
-20.15
-20.23
-18.32
-14.30
-8.65
-2.28
3.75
8.65
12.14
14.35
15.57
15.98
15.54
14.21
12.09
9.50
6.81
4.23
1.66
-1.12
-4.13
-6.95
-8.78
-8.76
-6.35
-1.72
4.41
10.94
16.85
21.47
24.55
26.06
26.05
24.55
21.65
17.68
13.15
8.75
5.06
2.39
0.69
-0.37
-1.18
-2.02
-2.95
-3.87
-4.61
-5.10
-5.39
-5.58
-5.75
-5.83
-5.72
-5.26
-4.41
-3.31
-2.19
-1.31
-0.80
-0.62
-0.65
-0.72
-0.75
-0.71
-0.62
-0.53
-0.44
-0.30
-0.05
0.34
0.88
1.51
2.16
2.69
3.04
3.15
2.99
2.58
1.97
1.26
0.56
-0.05
-0.63
-1.32
-2.35
-3.85
-5.67
-7.36
-8.42
-8.55
-7.91
-7.10
-6.82
-7.51
-8.98
-10.52
-11.25
-10.55
-8.35
-5.12
-1.67
1.24
3.06
3.56
2.81
1.10
-1.06
-3.06
-4.22
-4.07
-2.41
0.48
3.84
6.64
7.77
6.58
3.07
-2.01
-7.39
-11.80
-14.38
-14.93
-13.83
-11.71
-9.17
-6.59
-4.20
-2.21
-0.83
-0.30
-0.76
-2.10
-4.05
-6.15
-7.99
-9.29
-9.95
-10.05
-9.72
-9.13
-8.36
-7.49
-6.51
-5.42
-4.23
-2.96
-1.63
-0.32
0.88
1.83
2.45
2.77
2.95
3.21
3.70
4.34
4.86
4.97
4.52
3.62
2.61
1.83
1.51
1.66
2.22
3.17
4.51
6.24
8.15
9.82
10.71
10.40
8.79
6.19
3.20
0.52
-1.37
-2.30
-2.42
-2.02
-1.45
-0.94
-0.62
-0.49
-0.49
-0.53
-0.50
-0.31
0.11
0.82
1.83
3.04
4.22
5.10
5.43
5.08
4.14
2.90
1.78
1.15
1.24
1.98
3.03
4.00
4.52
4.41
3.75
2.80
1.86
1.18
0.84
0.84
1.06
1.36
1.53
1.44
0.99
0.22
-0.67
-1.39
-1.63
-1.24
-0.29
0.93
1.96
2.46
2.23
1.43
0.42
-0.34
-0.56
-0.17
0.60
1.44
2.11
2.53
2.71
2.69
2.41
1.71
0.50
-1.12
-2.85
-4.32
-5.20
-5.41
-5.06
-4.38
-3.62
-2.90
-2.33
-2.01
-1.97
-2.22
-2.65
-3.07
-3.36
-3.46
-3.42
-3.37
-3.36
-3.37
-3.32
-3.13
-2.79
-2.28
-1.67
-0.99
-0.28
0.33
0.75
0.87
0.68
0.26
-0.23
-0.66
-0.97
-1.14
-1.16
-1.03
-0.78
-0.51
-0.39
-0.55
-1.03
-1.69
-2.33
-2.77
-2.98
-3.10
-3.35
-3.88
-4.61
-5.33
-5.74
-5.69
-5.20
-4.46
-3.67
-2.99
-2.46
-2.03
-1.64
-1.23
-0.75
-0.14
0.60
1.40
2.13
2.61
2.76
2.60
2.29
2.02
1.89
1.89
1.92
1.87
1.74
1.67
1.75
2.02
2.31
2.38
2.02
1.15
-0.07
-1.37
-2.41
-2.98
-3.04
-2.70
-2.19
-1.71
-1.38
-1.13
-0.85
-0.39
0.28
1.06
1.73
2.07
1.97
1.48
0.82
0.17
-0.36
-0.79
-1.18
-1.48
-1.50
-0.97
0.22
1.84
3.30
3.91
3.27
1.51
-0.67
-2.38
-2.95
-2.28
-0.80
0.76
1.80
2.09
1.80
1.22
0.56
-0.17
-1.05
-2.09
-3.12
-3.82
-3.93
-3.43
-2.63
-2.05
-2.20
-3.27
-5.09
-7.14
-8.85
-9.78
-9.87
-9.38
-8.69
-8.12
-7.73
-7.32
-6.58
-5.22
-3.17
-0.56
2.30
5.10
7.56
9.47
10.69
11.20
11.12
10.72
10.38
10.42
10.93
11.73
12.44
12.64
12.18
11.14
9.84
8.58
7.53
6.64
5.75
4.77
3.69
2.65
1.83
1.32
1.11
1.04
0.95
0.70
0.25
-0.42
-1.23
-2.16
-3.15
-4.15
-5.13
-6.03
-6.77
-7.30
-7.55
-7.45
-6.98
-6.19
-5.18
-4.16
-3.33
-2.83
-2.66
-2.75
-3.03
-3.50
-4.19
-5.01
-5.69
-5.75
-4.70
-2.34
1.08
4.87
8.20
10.45
11.48
11.60
11.31
11.01
10.85
10.73
10.55
10.29
10.05
9.94
9.92
9.84
9.47
8.69
7.64
6.66
6.18
6.50
7.67
9.46
11.48
13.34
14.73
15.50
15.58
14.93
13.55
11.56
9.17
6.73
4.60
3.02
2.05
1.61
1.58
1.86
2.42
3.22
4.12
4.92
5.37
5.35
4.91
4.23
3.51
2.86
2.26
1.61
0.84
-0.04
-0.93
-1.68
-2.14
-2.27
-2.05
-1.55
-0.87
-0.15
0.47
0.88
1.04
1.00
0.89
0.82
0.84
0.92
0.96
0.87
0.59
0.17
-0.27
-0.66
-0.94
-1.16
-1.37
-1.62
-1.90
-2.16
-2.29
-2.23
-2.01
-1.71
-1.46
-1.33
-1.34
-1.39
-1.41
-1.37
-1.31
-1.37
-1.64
-2.18
-2.90
-3.60
-4.03
-3.96
-3.30
-2.04
-0.35
1.54
3.33
4.79
5.76
6.27
6.48
6.61
6.90
7.45
8.22
8.97
9.42
9.24
8.21
6.22
3.27
-0.48
-4.72
-9.04
-13.02
-16.30
-18.63
-19.90
-20.10
-19.30
-17.62
-15.27
-12.50
-9.59
-6.83
-4.45
-2.61
-1.42
-0.85
-0.82
-1.18
-1.76
-2.37
-2.88
-3.28
-3.63
-4.03
-4.55
-5.21
-5.95
-6.73
-7.47
-8.07
-8.46
-8.57
-8.37
-7.95
-7.47
-7.16
-7.17
-7.49
-7.94
-8.16
-7.86
-6.93
-5.54
-4.06
-2.85
-2.16
-2.02
-2.34
-2.98
-3.85
-4.92
-6.14
-7.38
-8.43
-9.11
-9.32
-9.13
-8.70
-8.21
-7.79
-7.40
-7.00
-6.53
-6.00
-5.46
-4.93
-4.37
-3.72
-2.90
-1.93
-0.93
-0.02
0.69
1.22
1.65
2.10
2.58
3.08
3.53
3.88
4.21
4.65
5.36
6.34
7.49
8.61
9.52
10.18
10.70
11.27
12.04
12.97
13.89
14.53
14.65
14.21
13.36
12.35
11.43
10.75
10.39
10.33
10.58
11.13
11.92
12.84
13.71
14.31
14.52
14.29
13.73
13.02
12.39
11.96
11.68
11.36
10.69
9.39
7.34
4.62
1.45
-1.85
-4.97
-7.71
-9.96
-11.65
-12.76
-13.26
-13.12
-12.37
-11.11
-9.46
-7.58
-5.68
-3.91
-2.45
-1.37
-0.67
-0.33
-0.29
-0.54
-1.07
-1.83
-2.78
-3.75
-4.60
-5.22
-5.61
-5.83
-5.95
-5.99
-5.87
-5.57
-5.20
-4.99
-5.28
-6.23
-7.77
-9.56
-11.16
-12.19
-12.54
-12.35
-11.93
-11.54
-11.31
-11.21
-11.14
-10.96
-10.57
-9.94
-9.06
-8.01
-6.91
-5.92
-5.17
-4.77
-4.75
-5.11
-5.80
-6.71
-7.72
-8.66
-9.38
-9.75
-9.72
-9.34
-8.77
-8.22
-7.83
-7.68
-7.69
-7.73
-7.68
-7.48
-7.14
-6.66
-6.06
-5.34
-4.51
-3.60
-2.69
-1.88
-1.20
-0.59
0.06
0.83
1.70
2.53
3.15
3.46
3.45
3.23
2.99
2.88
2.97
3.26
3.68
4.14
4.54
4.82
4.97
5.02
5.01
5.01
4.99
4.93
4.74
4.35
3.79
3.11
2.43
1.82
1.32
0.88
0.37
-0.31
-1.21
-2.28
-3.41
-4.47
-5.34
-5.98
-6.38
-6.56
-6.53
-6.25
-5.65
-4.68
-3.42
-2.00
-0.64
0.43
1.10
1.39
1.44
1.41
1.45
1.62
1.91
2.23
2.49
2.63
2.62
2.52
2.42
2.41
2.57
2.92
3.41
3.99
4.58
5.08
5.36
5.28
4.75
3.78
2.51
1.20
0.13
-0.53
-0.75
-0.68
-0.51
-0.41
-0.47
-0.72
-1.18
-1.90
-2.89
-4.09
-5.28
-6.18
-6.56
-6.31
-5.53
-4.44
-3.28
-2.22
-1.34
-0.65
-0.15
0.21
0.48
0.75
1.09
1.53
1.95
2.18
2.03
1.45
0.59
-0.27
-0.76
-0.68
0.02
1.16
2.42
3.53
4.28
4.63
4.63
4.37
3.95
3.44
2.85
2.21
1.59
1.04
0.66
0.50
0.59
0.83
1.09
1.20
1.04
0.58
-0.13
-1.00
-1.97
-3.05
-4.24
-5.48
-6.65
-7.56
-8.01
-7.91
-7.28
-6.19
-4.77
-3.11
-1.33
0.46
2.10
3.44
4.35
4.75
4.69
4.26
3.63
2.96
2.42
2.14
2.16
2.44
2.87
3.35
3.82
4.29
4.78
5.29
5.70
5.90
5.77
5.29
4.54
3.68
2.82
2.04
1.34
0.72
0.18
-0.26
-0.60
-0.90
-1.27
-1.78
-2.45
-3.21
-3.97
-4.61
-5.00
-5.05
-4.66
-3.82
-2.56
-1.07
0.44
1.73
2.66
3.18
3.36
3.29
3.06
2.71
2.29
1.84
1.36
0.80
0.13
-0.67
-1.49
-2.07
-2.12
-1.46
-0.06
1.80
3.71
5.20
5.98
6.01
5.51
4.77
3.98
3.20
2.31
1.24
-0.01
-1.27
-2.30
-2.98
-3.38
-3.75
-4.34
-5.25
-6.32
-7.22
-7.63
-7.38
-6.56
-5.44
-4.30
-3.36
-2.64
-1.99
-1.24
-0.27
0.91
2.15
3.25
4.05
4.48
4.57
4.47
4.32
4.21
4.19
4.27
4.45
4.70
4.95
5.15
5.22
5.09
4.78
4.32
3.78
3.20
2.63
2.11
1.62
1.17
0.74
0.28
-0.31
-1.08
-2.11
-3.44
-4.99
-6.61
-8.06
-9.07
-9.41
-8.97
-7.84
-6.25
-4.50
-2.78
-1.21
0.25
1.62
2.91
4.03
4.90
5.49
5.84
6.03
6.10
6.08
5.93
5.66
5.36
5.17
5.20
5.48
5.91
6.35
6.67
6.88
7.01
7.14
7.28
7.40
7.39
7.18
6.73
6.12
5.48
4.96
4.66
4.58
4.60
4.53
4.20
3.47
2.34
0.90
-0.71
-2.34
-3.88
-5.26
-6.43
-7.38
-8.18
-8.93
-9.69
-10.49
-11.21
-11.72
-11.81
-11.35
-10.31
-8.71
-6.72
-4.53
-2.37
-0.48
1.00
2.01
2.63
3.00
3.30
3.62
4.01
4.50
5.09
5.80
6.60
7.43
8.12
8.54
8.65
8.53
8.38
8.41
8.71
9.17
9.56
9.61
9.21
8.46
7.61
6.91
6.48
6.23
5.94
5.42
4.59
3.55
2.51
1.65
1.00
0.47
-0.11
-0.86
-1.80
-2.86
-3.96
-5.07
-6.21
-7.44
-8.78
-10.15
-11.42
-12.40
-12.96
-13.03
-12.58
-11.62
-10.18
-8.29
-6.05
-3.64
-1.34
0.57
1.89
2.59
2.80
2.82
2.93
3.27
3.81
4.35
4.69
4.75
4.61
4.46
4.54
4.91
5.59
6.38
7.12
7.66
7.90
7.87
7.59
7.14
6.57
5.92
5.19
4.43
3.67
2.97
2.38
1.88
1.40
0.87
0.25
-0.50
-1.35
-2.31
-3.40
-4.62
-5.95
-7.25
-8.33
-8.99
-9.09
-8.65
-7.81
-6.75
-5.62
-4.48
-3.30
-2.11
-0.95
0.07
0.83
1.32
1.61
1.89
2.33
3.01
3.90
4.83
5.64
6.19
6.50
6.67
6.84
7.05
7.25
7.33
7.18
6.81
6.32
5.84
5.43
5.09
4.70
4.12
3.32
2.35
1.37
0.52
-0.14
-0.63
-1.01
-1.38
-1.83
-2.44
-3.28
-4.39
-5.73
-7.17
-8.51
-9.55
-10.12
-10.16
-9.67
-8.69
-7.27
-5.49
-3.48
-1.44
0.38
1.78
2.68
3.18
3.49
3.82
4.27
4.80
5.30
5.65
5.82
5.80
5.65
5.38
5.01
4.59
4.23
4.03
4.06
4.30
4.63
4.87
4.90
4.67
4.18
3.47
2.56
1.48
0.30
-0.86
-1.91
-2.78
-3.53
-4.26
-5.13
-6.20
-7.44
-8.71
-9.81
-10.55
-10.84
-10.68
-10.14
-9.32
-8.28
-7.08
-5.77
-4.37
-2.94
-1.54
-0.23
0.97
2.01
2.88
3.57
4.05
4.36
4.54
4.66
4.81
5.01
5.26
5.49
5.63
5.65
5.55
5.36
5.12
4.85
4.54
4.11
3.49
2.58
1.35
-0.16
-1.78
-3.21
-4.18
-4.55
-4.41
-4.09
-4.05
-4.64
-5.92
-7.60
-9.22
-10.29
-10.57
-10.05
-8.92
-7.42
-5.72
-3.87
-1.94
0.00
1.78
3.17
3.99
4.18
3.83
3.09
2.13
1.10
0.08
-0.85
-1.63
-2.15
-2.37
-2.28
-1.96
-1.55
-1.17
-0.86
-0.60
-0.36
-0.22
-0.32
-0.84
-1.88
-3.34
-4.98
-6.53
-7.84
-8.99
-10.26
-11.99
-14.34
-17.27
-20.55
-23.88
-27.07
-30.10
-33.06
-36.05
-39.05
-41.88
-44.26
-45.96
-46.90
-47.20
-47.07
-46.69
-46.14
-45.33
-44.03
-41.99
-38.92
-34.65
-29.09
-22.37
-14.79
-6.76
1.33
9.18
16.65
23.72
30.45
36.96
43.38
49.83
56.19
62.02
66.47
68.55
67.52
63.27
56.53
48.57
40.70
33.72
27.74
22.30
16.76
10.76
4.34
-2.12
-8.06
-12.98
-16.57
-18.66
-19.09
-17.65
-14.04
-7.98
0.53
10.95
22.23
33.09
42.56
50.43
57.26
63.92
70.91
77.82
83.38
86.08
85.03
80.38
73.34
65.50
58.11
51.55
45.43
39.11
32.20
24.84
17.55
10.90
5.18
0.36
-3.80
-7.52
-10.75
-13.21
-14.59
-14.75
-14.03
-13.10
-12.78
-13.65
-15.80
-18.75
-21.70
-23.92
-25.06
-25.25
-24.95
-24.60
-24.38
-24.13
-23.60
-22.66
-21.51
-20.51
-20.00
-20.02
-20.29
-20.40
-20.00
-19.03
-17.61
-15.99
-14.33
-12.68
-11.04
-9.45
-8.11
-7.19
-6.76
-6.61
-6.31
-5.29
-3.16
0.17
4.43
9.04
13.38
16.87
19.26
20.63
21.59
23.29
27.38
35.84
50.38
71.81
99.35
130.33
160.43
184.57
198.18
198.30
184.15
157.13
120.15
76.80
30.54
-15.78
-59.97
-100.44
-136.06
-166.01
-189.83
-207.39
-219.10
-225.94
-229.39
-231.23
-233.10
-236.10
-240.36
-245.00
-248.57
-249.52
-246.74
-239.73
-228.55
-213.55
-195.27
-174.32
-151.48
-127.59
-103.37
-79.12
-54.78
-30.19
-5.78
17.22
37.09
52.65
64.44
75.02
88.04
106.37
130.33
157.19
182.35
201.39
212.06
214.89
212.40
207.37
201.42
194.74
186.70
176.94
165.88
154.52
143.68
133.56
123.54
112.73
100.51
86.87
72.49
58.49
46.03
35.97
28.63
23.66
20.24
17.38
14.37
11.11
8.14
6.40
6.78
9.76
15.24
22.63
30.92
38.87
45.12
48.49
48.31
44.94
39.83
35.07
32.54
32.95
35.32
37.45
36.93
32.32
23.82
13.03
2.12
-7.29
-14.66
-20.52
-25.79
-31.06
-36.32
-41.04
-44.74
-47.35
-49.26
-51.00
-52.82
-54.52
-55.71
-56.23
-56.37
-56.73
-57.75
-59.29
-60.57
-60.61
-58.84
-55.61
-52.06
-49.66
-49.48
-51.80
-56.05
-61.14
-65.87
-69.34
-71.21
-71.71
-71.60
-71.79
-72.93
-75.09
-77.64
-79.57
-80.12
-79.21
-77.62
-76.62
-77.48
-80.81
-86.34
-93.03
-99.26
-103.06
-102.25
-94.71
-78.92
-54.80
-24.26
8.87
39.66
63.69
78.39
83.82
82.14
76.50
69.65
63.15
57.41
52.29
47.79
44.28
42.37
42.43
44.34
47.37
50.56
53.07
54.65
55.73
57.24
60.21
65.08
71.48
78.26
83.95
87.44
88.42
87.38
85.20
82.60
79.78
76.52
72.60
68.11
63.62
59.85
57.27
55.81
54.94
53.97
52.50
50.63
48.86
47.80
47.75
48.45
49.07
48.59
46.30
42.24
37.39
33.27
31.31
32.07
34.90
37.90
38.48
34.26
24.09
8.82
-8.52
-23.40
-31.45
-30.19
-20.28
-5.23
10.03
21.20
26.05
24.52
17.66
6.50
-8.43
-26.72
-47.40
-68.93
-90.45
-112.93
-139.45
-173.30
-214.95
-260.13
-300.91
-329.74
-344.05
-348.42
-352.30
-364.71
-388.68
-419.23
-445.95
-458.54
-451.97
-428.14
-393.68
-355.50
-317.44
-279.34
-239.00
-194.90
-147.80
-100.32
-55.40
-14.38
23.91
62.71
105.91
156.11
212.98
273.02
330.42
379.13
415.20
438.24
451.35
459.48
467.13
476.50
487.03
496.38
502.12
503.11
499.69
492.95
483.69
471.73
455.91
434.68
406.78
371.63
329.55
281.69
229.91
176.54
123.90
73.86
27.33
-15.79
-56.48
-96.21
-136.75
-179.90
-227.05
-278.10
-330.34
-378.19
-414.25
-431.78
-427.40
-402.71
-363.67
-318.20
-273.17
-232.44
-196.75
-165.16
-136.74
-111.44
-89.78
-71.90
-57.05
-43.78
-30.83
-17.83
-5.47
5.05
12.79
17.59
20.19
21.83
23.67
26.33
29.75
33.26
35.97
37.12
36.52
34.61
32.21
30.08
28.60
27.53
26.17
23.75
19.77
14.25
7.75
1.15
-4.57
-8.64
-10.70
-10.96
-10.07
-9.01
-8.58
-9.07
-10.20
-11.22
-11.47
-10.63
-8.90
-6.66
-4.15
-1.25
2.41
6.97
11.95
16.19
18.11
16.55
11.55
4.54
-2.03
-5.79
-5.54
-1.72
3.82
8.79
11.28
9.97
3.83
-8.21
-26.87
-51.42
-78.60
-102.59
-116.56
-115.34
-97.85
-67.69
-31.64
3.05
31.09
50.18
60.49
63.48
61.03
55.01
47.44
40.35
35.22
32.43
31.04
29.30
25.60
19.40
11.50
3.93
-0.62
0.48
8.79
23.88
42.49
58.88
66.71
61.83
44.78
21.46
1.03
-8.01
-1.94
16.06
36.91
49.38
44.95
21.45
-16.18
-57.94
-92.80
-112.65
-114.44
-100.28
-75.69
-47.12
-19.96
2.46
18.69
28.42
31.61
28.17
18.17
2.17
-18.38
-41.01
-62.59
-79.96
-90.73
-94.04
-90.85
-83.40
-74.29
-65.45
-57.68
-50.79
-44.35
-38.42
-33.79
-31.66
-32.92
-37.42
-43.62
-49.00
-50.83
-47.27
-38.18
-25.19
-11.14
1.12
9.77
14.64
16.94
18.41
20.24
22.55
24.38
24.29
21.27
15.16
6.77
-2.39
-10.60
-16.32
-18.42
-16.30
-10.00
-0.07
12.58
26.87
41.75
56.33
69.90
82.08
92.77
102.17
110.70
118.68
126.13
132.60
137.20
138.98
137.35
132.43
125.26
117.62
111.65
109.44
112.41
120.87
133.77
148.83
162.87
172.62
175.34
169.45
154.76
132.55
104.98
74.54
43.24
12.09
-19.09
-51.43
-86.28
-124.33
-164.84
-205.41
-242.26
-271.19
-288.81
-293.50
-285.96
-268.98
-246.54
-222.51
-199.59
-178.75
-159.40
-140.08
-119.28
-96.09
-70.45
-43.19
-15.79
9.97
32.36
50.09
62.48
69.70
72.49
72.01
69.33
65.12
59.61
52.77
44.65
35.66
26.60
18.31
11.33
5.56
0.16
-6.07
-14.27
-24.90
-37.56
-50.96
-63.42
-73.26
-79.24
-80.74
-77.77
-70.80
-60.65
-48.26
-34.58
-20.51
-6.84
5.65
16.30
24.51
29.89
32.33
32.19
30.26
27.57
25.18
23.76
23.46
23.87
24.22
23.73
21.81
18.19
12.89
6.21
-1.25
-8.65
-14.93
-19.14
-20.68
-19.68
-16.88
-13.38
-10.16
-7.64
-5.59
-3.36
-0.36
3.58
8.01
12.05
14.81
15.76
15.00
13.13
11.04
9.42
8.56
8.36
8.52
8.84
9.32
10.07
11.06
12.00
12.37
11.76
10.29
8.62
7.83
8.89
12.26
17.61
24.01
30.25
35.19
37.99
38.18
35.62
30.60
23.71
15.89
8.17
1.43
-3.84
-7.52
-9.90
-11.28
-11.89
-11.73
-10.76
-8.97
-6.58
-3.92
-1.35
0.89
2.67
3.91
4.42
3.92
2.22
-0.55
-3.84
-6.69
-8.14
-7.62
-5.15
-1.39
2.67
6.11
8.35
9.27
8.99
7.73
5.69
3.07
0.11
-2.82
-5.30
-7.06
-8.08
-8.64
-9.10
-9.64
-10.02
-9.64
-7.80
-4.17
0.85
6.19
10.49
12.62
12.17
9.52
5.58
1.39
-2.34
-5.35
-7.78
-9.94
-12.20
-14.78
-17.77
-21.04
-24.15
-26.38
-26.83
-24.71
-19.72
-12.32
-3.68
4.60
11.03
14.72
15.60
14.39
12.15
9.90
8.24
7.39
7.28
7.85
9.19
11.44
14.62
18.49
22.44
25.68
27.58
27.83
26.61
24.41
21.89
19.63
18.04
17.34
17.53
18.38
19.43
20.02
19.43
17.08
12.77
6.83
0.03
-6.64
-12.28
-16.28
-18.39
-18.63
-17.17
-14.27
-10.33
-5.92
-1.71
1.74
4.21
5.97
7.65
10.04
13.66
18.64
24.66
31.12
37.35
42.78
46.93
49.52
50.39
49.58
47.25
43.77
39.64
35.50
32.05
29.96
29.64
31.04
33.50
35.90
36.95
35.66
31.68
25.52
18.31
11.51
6.32
3.41
2.63
3.13
3.62
2.95
0.49
-3.63
-8.60
-13.44
-17.51
-20.83
-24.18
-28.61
-34.89
-42.98
-51.97
-60.35
-66.70
-70.30
-71.39
-71.15
-71.17
-72.90
-77.39
-85.15
-95.85
-108.01
-118.77
-124.32
-121.17
-107.83
-86.12
-61.01
-38.94
-25.25
-22.01
-27.58
-37.75
-48.04
-55.65
-60.20
-63.06
-66.08
-70.55
-76.85
-84.90
-94.58
-105.90
-118.74
-132.45
-145.56
-156.02
-162.04
-163.12
-160.53
-156.85
-154.71
-155.25
-157.31
-157.90
-153.68
-142.65
-125.10
-103.32
-80.31
-58.44
-38.79
-21.37
-5.80
8.14
20.60
31.97
43.37
56.62
73.89
97.08
127.36
164.56
206.77
250.42
290.65
322.51
342.45
349.63
346.17
336.13
323.80
312.13
302.29
294.10
287.20
282.05
279.96
282.10
288.35
296.82
304.40
308.79
308.96
305.60
300.44
295.46
292.03
290.55
290.54
290.80
290.28
287.18
279.31
264.67
242.55
214.04
181.63
148.19
115.85
86.33
59.85
35.80
13.39
-7.49
-26.27
-42.11
-54.31
-68.18
-84.89
-102.22
-115.83
-122.30
-120.65
-112.07
-99.50
-85.21
-71.00
-57.72
-47.05
-39.92
-37.72
-41.15
-49.69
-61.70
-74.94
-87.62
-98.30
-107.24
-116.06
-127.11
-142.07
-161.04
-182.60
-204.31
-223.90
-239.75
-252.10
-263.03
-276.22
-295.69
-324.29
-361.96
-404.46
-443.52
-468.24
-468.71
-439.58
-382.52
-306.17
-223.48
-147.80
-88.99
-51.25
-32.84
-27.89
-29.01
-29.93
-27.13
-20.53
-12.74
-7.59
-8.28
-16.03
-29.71
-46.64
-63.65
-78.19
-89.07
-96.51
-101.73
-106.35
-111.79
-118.87
-127.51
-136.59
-144.08
-147.49
-144.25
-132.30
-110.58
-79.30
-39.85
5.48
54.10
103.56
151.82
197.21
238.31
273.76
302.20
322.36
333.22
334.29
325.81
308.95
285.93
259.79
233.80
210.62
191.26
174.82
159.03
141.68
122.08
101.77
83.89
71.60
66.15
65.88
66.72
64.02
54.77
38.97
19.53
0.61
-14.43
-24.25
-29.60
-32.32
-34.19
-36.23
-38.75
-41.75
-45.21
-49.20
-53.72
-58.50
-63.06
-67.03
-70.36
-73.47
-77.08
-82.01
-88.81
-97.38
-106.83
-115.46
-121.21
-122.31
-117.95
-108.69
-96.23
-82.82
-70.40
-60.08
-51.92
-45.22
-38.81
-31.39
-21.90
-9.90
4.17
18.87
32.07
41.72
46.77
47.80
46.79
46.24
48.05
52.55
58.51
63.75
66.21
64.60
58.62
48.67
35.62
20.75
5.87
-6.62
-14.34
-15.94
-12.18
-6.25
-2.91
-6.57
-19.14
-39.11
-61.98
-81.96
-94.16
-96.15
-88.31
-73.26
-54.63
-36.04
-20.27
-9.04
-2.94
-1.61
-3.87
-7.98
-11.96
-14.08
-13.34
-9.78
-4.57
0.39
3.14
2.51
-1.20
-6.11
-9.45
-8.78
-3.13
6.38
17.02
25.52
29.56
28.56
23.83
17.80
12.92
10.79
11.75
15.12
19.60
23.73
26.10
25.61
21.81
15.29
7.88
2.32
1.37
6.63
17.49
30.89
42.05
46.24
40.59
25.37
4.11
-17.60
-34.01
-41.10
-37.74
-25.76
-8.81
9.01
24.31
34.80
39.04
36.10
25.52
7.63
-16.06
-42.79
-68.83
-90.18
-103.47
-106.74
-99.96
-85.10
-65.72
-45.99
-29.42
-17.94
-11.43
-8.05
-5.20
-0.72
6.42
16.22
28.30
42.61
59.46
79.05
100.52
121.47
138.45
148.31
149.79
144.54
136.88
132.34
135.52
148.40
169.63
195.19
219.72
238.02
246.07
241.25
222.54
190.66
148.25
99.81
51.14
7.95
-25.67
-48.78
-63.97
-76.62
-92.99
-117.74
-151.98
-192.71
-234.02
-269.27
-293.36
-303.98
-301.59
-288.44
-267.67
-243.01
-218.95
-200.42
-191.58
-193.85
-204.43
-216.83
-223.62
-219.97
-206.14
-187.01
-169.08
-156.53
-148.87
-141.43
-128.02
-104.07
-68.54
-23.86
25.33
73.68
116.10
148.23
167.01
171.34
162.64
144.58
122.18
100.37
82.97
72.44
70.32
77.92
96.28
125.43
163.05
203.76
239.67
262.11
264.12
242.39
198.30
137.32
67.53
-2.44
-65.11
-115.19
-149.98
-169.33
-175.26
-171.71
-163.93
-157.62
-157.77
-167.50
-187.06
-213.56
-241.35
-263.18
-272.34
-265.12
-242.66
-211.18
-180.00
-158.05
-150.17
-155.09
-166.14
-174.26
-171.89
-155.80
-127.70
-92.49
-55.60
-20.67
11.03
39.99
67.16
93.13
118.03
142.37
167.77
196.72
231.19
270.46
309.80
341.09
355.68
347.90
317.66
270.51
215.57
162.44
118.70
88.98
74.95
75.74
88.08
106.51
124.21
134.65
133.48
119.70
95.42
64.61
31.59
0.20
-26.49
-46.16
-57.24
-59.27
-52.96
-40.08
-22.93
-3.81
15.19
32.30
46.39
57.26
65.92
74.38
85.10
100.10
120.24
144.94
171.87
197.06
215.29
221.16
210.98
184.48
145.73
102.33
62.95
34.18
18.26
12.69
11.88
9.91
2.73
-11.08
-31.03
-56.02
-85.16
-117.48
-151.00
-181.81
-204.41
-213.35
-205.67
-182.67
-150.17
-116.66
-90.14
-75.28
-71.97
-76.19
-82.45
-86.37
-86.21
-82.95
-79.02
-76.48
-75.87
-75.89
-74.06
-68.09
-57.03
-41.72
-24.32
-7.13
8.51
22.56
35.77
48.54
60.17
68.94
73.01
71.66
66.02
58.71
52.73
50.25
51.84
56.66
63.17
69.84
75.62
79.91
82.47
83.36
83.03
82.23
81.79
82.11
82.85
82.84
80.55
74.80
65.24
52.64
38.77
25.85
15.97
10.48
9.65
12.56
17.37
21.82
24.00
22.98
19.20
14.25
10.23
8.79
10.30
13.69
16.97
18.29
16.99
14.12
12.07
13.53
20.18
31.78
46.22
60.42
71.68
78.79
82.43
84.60
87.59
92.90
100.61
109.54
117.82
123.74
126.39
125.72
122.05
115.52
105.77
92.21
74.76
54.49
33.77
15.58
2.34
-5.17
-8.19
-9.55
-12.67
-20.31
-33.68
-52.31
-74.45
-98.08
-121.60
-144.08
-165.00
-183.80
-199.61
-211.54
-219.10
-222.64
-223.09
-221.32
-217.55
-211.24
-201.70
-188.86
-173.97
-159.45
-148.24
-142.70
-143.79
-150.60
-160.32
-168.95
-172.35
