1679487118.00
64.000000
-0.00
-0.00
-0.00
-0.00
-0.00
-0.00
-0.00
-0.00
-0.00
-0.00
0.00
0.01
0.01
-0.00
-0.03
-0.05
-0.05
0.00
0.13
0.36
0.66
1.01
1.37
1.72
2.06
2.40
2.79
3.24
3.80
4.42
5.06
5.66
6.20
6.68
7.15
7.68
8.31
9.14
10.09
11.04
11.88
12.56
13.14
13.76
14.65
15.96
17.91
20.32
22.90
25.38
27.58
29.57
31.68
34.32
37.81
42.54
48.15
54.10
59.83
64.97
69.58
74.14
79.34
85.71
93.76
103.00
112.62
121.73
129.77
136.75
143.30
150.75
157.77
166.64
177.95
191.79
206.97
220.57
228.25
225.36
208.53
176.87
132.76
80.05
23.07
-34.94
-92.44
-149.16
-205.23
-260.37
-313.74
-363.87
-409.83
-450.91
-486.50
-515.74
-537.23
-549.22
-549.96
-538.37
-514.21
-478.67
-433.88
-382.45
-327.02
-269.84
-212.63
-156.66
-102.95
-52.37
-5.90
35.58
71.43
101.35
125.50
144.38
158.69
169.15
176.37
180.75
182.57
182.07
179.51
175.25
169.68
163.22
156.21
148.90
141.42
133.85
126.22
118.58
110.98
103.50
96.20
89.14
82.34
75.82
69.58
63.64
58.01
52.69
47.69
43.01
38.66
34.62
30.89
27.47
24.34
21.50
18.96
16.70
14.72
13.01
11.56
10.36
9.39
8.65
8.10
7.74
7.55
7.52
7.62
7.86
8.20
8.66
9.21
9.85
10.58
11.38
12.26
13.21
14.23
15.31
16.46
17.68
18.99
20.37
21.83
23.34
24.87
26.36
27.72
28.85
29.62
29.88
29.49
28.36
26.43
23.66
20.11
15.86
11.08
5.96
0.75
-4.32
-9.02
-13.15
-16.57
-19.16
-20.90
-21.79
-21.90
-21.34
-20.22
-18.67
-16.81
-14.76
-12.59
-10.37
-8.11
-5.87
-3.67
-1.49
0.68
2.86
5.10
7.44
9.92
12.59
15.41
18.33
21.34
24.43
27.58
30.81
34.14
37.62
41.34
45.18
49.08
53.03
57.06
61.20
65.50
70.06
74.96
80.39
86.13
92.08
98.19
104.42
110.75
117.16
123.67
130.32
137.21
143.95
150.26
155.88
160.55
163.91
165.49
164.62
160.24
154.30
147.42
139.95
132.14
124.17
116.19
108.33
100.73
93.54
86.96
80.69
74.60
68.61
62.71
56.93
51.38
46.14
41.33
37.08
33.15
29.37
25.65
21.97
18.33
14.79
11.42
8.26
5.37
2.54
-0.36
-3.42
-6.57
-9.72
-12.69
-15.34
-17.63
-19.62
-21.62
-23.95
-26.82
-30.26
-34.06
-37.91
-41.54
-44.88
-48.14
-51.81
-56.41
-62.28
-69.37
-77.28
-85.36
-93.05
-100.18
-107.10
-114.57
-123.43
-134.26
-147.08
-161.37
-176.34
-191.23
-205.70
-219.87
-234.37
-250.09
-268.24
-290.08
-316.48
-347.13
-379.78
-410.05
-432.35
-441.53
-434.88
-413.22
-380.56
-342.46
-303.92
-267.95
-235.44
-205.98
-179.18
-155.18
-134.48
-117.20
-102.62
-89.23
-75.48
-60.55
-44.72
-29.09
-14.99
-3.22
6.28
14.18
21.26
27.89
33.83
38.50
41.36
42.29
41.74
40.37
38.71
36.89
34.73
32.05
29.05
26.31
24.53
24.02
24.41
24.70
23.64
20.29
14.52
7.20
-0.02
-5.20
-6.68
-3.64
3.54
13.43
24.08
33.65
41.09
46.33
50.09
53.27
56.37
59.31
61.59
62.66
62.37
60.99
59.10
57.30
56.00
55.33
55.33
55.92
57.03
58.47
59.93
60.83
60.40
57.90
52.77
44.99
35.11
24.22
13.54
4.08
-3.79
-10.35
-16.37
-22.52
-28.99
-35.29
-40.49
-43.70
-44.64
-43.89
-42.83
-43.07
-45.90
-51.77
-60.01
-69.02
-76.54
-80.28
-78.45
-70.31
-56.34
-38.22
-18.43
0.30
15.65
26.15
31.47
32.25
29.79
25.58
20.98
16.94
14.02
12.48
12.33
13.47
15.81
19.34
24.32
31.23
40.78
53.54
69.59
88.27
108.19
127.37
143.79
155.84
162.69
164.41
161.91
156.63
150.09
143.50
137.56
132.28
127.15
121.32
114.00
104.73
93.51
80.82
67.48
54.22
41.37
28.83
16.08
2.73
-11.01
-24.07
-34.63
-40.75
-41.07
-35.37
-24.68
-10.88
3.98
18.25
30.98
41.88
51.00
58.47
64.31
68.43
70.79
71.54
71.13
70.31
69.90
70.52
72.18
74.22
75.48
74.86
72.00
67.62
63.36
61.18
62.57
67.94
76.30
85.50
92.54
94.26
87.94
72.17
47.65
17.50
-13.20
-38.80
-54.76
-59.28
-53.66
-41.73
-28.31
-17.56
-12.09
-12.79
-19.22
-30.04
-43.34
-56.73
-67.66
-74.02
-74.80
-70.60
-63.57
-56.50
-51.65
-49.66
-49.29
-47.88
-42.62
-31.88
-16.00
2.87
21.65
37.45
48.30
53.47
53.12
48.06
39.50
29.16
19.06
11.29
7.27
7.18
9.69
12.49
13.26
10.67
5.03
-1.97
-8.03
-11.37
-11.38
-8.81
-5.37
-2.93
-2.77
-5.05
-8.91
-12.81
-15.12
-14.62
-10.82
-4.17
4.06
11.86
16.82
16.62
9.73
-4.04
-23.19
-44.81
-65.29
-81.49
-91.77
-96.51
-97.90
-99.09
-103.01
-111.46
-124.57
-140.98
-158.27
-173.76
-185.18
-191.17
-191.47
-186.90
-178.89
-169.08
-158.82
-149.02
-140.10
-132.16
-125.04
-118.41
-111.75
-104.42
-95.89
-86.03
-75.25
-64.45
-54.79
-47.33
-42.76
-41.28
-42.60
-46.06
-50.72
-55.57
-59.77
-62.83
-64.84
-66.39
-68.34
-71.43
-75.81
-80.85
-85.19
-87.15
-85.30
-79.00
-68.56
-55.11
-40.11
-24.81
-9.92
4.46
18.44
32.01
44.81
56.15
65.26
71.76
75.84
78.25
80.05
82.20
85.14
88.76
92.50
95.71
97.92
99.05
99.29
98.88
97.84
95.98
92.95
88.51
82.64
75.58
67.74
59.48
51.05
42.58
34.23
26.24
18.87
12.23
6.10
-0.09
-7.18
-15.90
-26.58
-38.93
-51.90
-63.92
-73.15
-77.87
-76.89
-69.84
-57.39
-41.09
-23.05
-5.40
10.24
23.09
33.09
40.68
46.34
50.39
52.93
54.02
53.83
52.81
51.56
50.69
50.55
51.24
52.49
53.86
54.86
55.10
54.36
52.57
49.74
45.89
41.06
35.30
28.69
21.39
13.67
5.83
-1.78
-8.86
-15.24
-20.94
-26.18
-31.41
-37.23
-44.22
-52.83
-63.11
-74.57
-86.11
-96.06
-102.45
-103.53
-98.33
-87.05
-71.14
-52.83
-34.48
-17.87
-3.89
7.45
16.64
24.26
30.73
36.21
40.74
44.37
47.20
49.41
51.29
53.09
55.06
57.33
59.86
62.41
64.55
65.80
65.79
64.35
61.54
57.63
52.95
47.83
42.50
36.97
31.15
24.84
17.92
10.42
2.57
-5.29
-12.83
-19.90
-26.61
-33.40
-40.94
-49.92
-60.63
-72.69
-84.84
-95.09
-101.13
-101.09
-94.13
-80.73
-62.59
-42.04
-21.50
-2.81
12.96
25.58
35.37
42.93
48.89
53.73
57.73
60.99
63.58
65.63
67.38
69.13
71.09
73.30
75.57
77.58
79.05
79.78
79.74
78.88
77.15
74.47
70.76
66.08
60.58
54.49
48.00
41.21
34.18
26.99
19.88
13.19
7.27
2.31
-1.77
-5.33
-8.98
-13.44
-19.40
-27.36
-37.33
-48.55
-59.41
-67.53
-70.40
-66.14
-54.21
-35.75
-13.27
10.21
32.06
50.82
66.28
79.11
90.20
100.09
108.80
116.04
121.62
125.80
129.33
133.21
138.29
144.89
152.73
161.10
169.28
176.87
183.97
191.01
198.42
206.37
214.72
223.24
231.75
240.06
247.64
253.33
255.31
251.69
241.37
224.67
203.39
180.08
157.04
135.68
116.41
99.19
84.10
71.32
60.70
51.19
40.84
27.51
10.16
-10.34
-31.31
-49.36
-61.92
-68.43
-70.35
-70.32
-70.66
-72.47
-75.39
-78.22
-79.83
-79.85
-78.74
-77.40
-76.68
-76.97
-78.21
-80.05
-82.12
-84.20
-86.19
-88.01
-89.51
-90.45
-90.51
-89.43
-87.07
-83.53
-79.10
-74.23
-69.34
-64.76
-60.61
-56.83
-53.29
-49.86
-46.54
-43.41
-40.67
-38.53
-37.17
-36.63
-36.75
-37.18
-37.56
-37.66
-37.51
-37.43
-37.78
-38.67
-39.77
-40.32
-39.45
-36.61
-31.86
-25.93
-19.95
-14.98
-11.67
-10.12
-9.91
-10.44
-11.15
-11.69
-12.02
-12.27
-12.67
-13.30
-14.07
-14.72
-14.98
-14.74
-14.18
-13.77
-14.05
-15.40
-17.88
-21.16
-24.72
-28.15
-31.33
-34.43
-37.79
-41.62
-45.87
-50.28
-54.44
-58.05
-60.94
-62.94
-63.86
-63.44
-61.43
-57.93
-53.54
-49.22
-46.11
-45.03
-46.18
-49.08
-52.78
-56.17
-58.22
-58.16
-55.40
-49.55
-40.45
-28.32
-13.87
1.67
16.72
29.71
39.45
45.46
48.02
48.01
46.57
44.78
43.38
42.65
42.35
41.74
39.70
34.98
26.56
14.03
-2.21
-20.97
-40.64
-59.52
-76.31
-90.23
-101.12
-109.24
-115.17
-119.58
-122.96
-125.42
-126.61
-126.03
-123.43
-119.24
-114.60
-110.89
-109.17
-109.56
-111.25
-112.90
-113.30
-111.78
-108.33
-103.22
-96.59
-88.13
-77.03
-62.21
-42.84
-18.69
9.57
40.23
70.84
98.64
121.17
136.85
145.24
146.97
143.45
136.45
127.69
118.61
110.29
103.42
98.33
94.93
92.75
90.98
88.56
84.56
78.27
69.53
58.61
46.19
33.00
19.74
6.85
-5.53
-17.54
-29.42
-41.33
-53.24
-64.80
-75.47
-84.60
-91.67
-96.46
-99.06
-99.89
-99.62
-99.13
-99.32
-101.04
-104.62
-109.67
-114.91
-118.39
-118.14
-112.88
-102.64
-88.75
-73.49
-59.30
-47.98
-40.35
-36.09
-34.15
-33.16
-31.95
-29.77
-26.43
-22.20
-17.50
-12.68
-7.86
-2.96
2.09
7.21
12.13
16.49
20.10
22.99
25.41
27.60
29.69
31.57
33.05
34.04
34.59
34.87
34.93
34.58
33.41
30.96
26.93
21.36
14.64
7.32
-0.04
-7.11
-13.85
-20.51
-27.44
-34.92
-42.88
-50.73
-57.22
-60.70
-59.62
-53.05
-41.22
-25.57
-8.28
8.40
22.82
34.19
42.43
47.83
50.67
51.13
49.42
45.96
41.39
36.41
31.59
27.23
23.38
20.05
17.31
15.32
14.20
13.94
14.29
14.92
15.54
16.00
16.22
16.09
15.38
13.77
10.96
6.93
1.93
-3.54
-8.93
-13.88
-18.29
-22.31
-26.21
-30.27
-34.76
-39.95
-46.19
-53.87
-63.22
-73.99
-85.13
-94.78
-100.69
-100.89
-94.41
-81.69
-64.44
-44.97
-25.46
-7.37
8.66
22.57
34.39
44.02
51.22
55.81
57.91
57.97
56.78
55.15
53.86
53.44
54.17
56.04
58.75
61.82
64.62
66.55
67.18
66.31
64.04
60.71
56.85
52.94
49.25
45.73
41.99
37.49
31.75
24.57
16.21
7.30
-1.38
-9.16
-15.84
-21.84
-28.17
-36.06
-46.33
-58.86
-72.21
-83.84
-90.77
-90.63
-82.48
-67.15
-47.02
-25.09
-4.17
13.86
28.31
39.50
48.22
55.29
61.18
65.96
69.51
71.73
72.82
73.25
73.61
74.36
75.64
77.27
78.87
80.05
80.48
79.87
77.90
74.26
68.74
61.43
52.83
43.80
35.24
27.78
21.49
15.84
9.90
2.73
-6.20
-16.78
-28.30
-39.82
-50.49
-60.06
-69.02
-78.39
-89.42
-103.02
-119.19
-136.78
-153.56
-166.62
-173.32
-172.00
-162.63
-146.59
-126.19
-103.67
-80.41
-56.65
-31.79
-4.95
24.25
55.41
87.26
118.03
145.87
169.30
187.46
200.12
207.64
210.73
210.20
206.70
200.68
192.39
182.01
169.92
156.69
142.90
128.89
114.53
99.32
82.75
64.76
45.97
27.52
10.58
-4.23
-17.15
-29.06
-40.85
-52.92
-64.95
-76.22
-86.12
-94.68
-102.57
-110.90
-120.68
-132.38
-145.68
-159.38
-171.67
-180.29
-182.99
-177.85
-163.74
-140.61
-109.61
-73.07
-34.05
4.24
39.10
68.86
93.08
112.35
127.80
140.57
151.26
160.01
166.58
170.76
172.65
172.66
171.27
168.81
165.43
161.24
156.60
152.21
148.97
147.40
147.32
147.68
146.96
143.81
137.64
128.90
118.83
108.90
100.17
92.94
86.64
80.20
72.51
62.83
51.07
37.80
23.94
10.52
-1.70
-12.33
-21.43
-29.41
-37.07
-45.39
-55.29
-67.22
-80.68
-94.09
-105.08
-111.20
-110.76
-103.43
-90.24
-73.14
-54.32
-35.60
-18.15
-2.49
11.37
23.77
35.24
46.47
58.10
70.44
83.16
95.22
105.09
111.14
112.19
107.87
98.77
86.29
72.25
58.50
46.61
37.66
32.24
30.49
32.05
36.02
40.97
45.17
47.02
45.47
40.34
32.23
22.16
11.08
-0.38
-11.98
-23.54
-34.79
-45.44
-55.43
-65.17
-75.39
-86.67
-98.78
-110.29
-118.97
-122.56
-119.76
-110.90
-97.78
-83.07
-69.32
-58.17
-50.10
-44.55
-40.47
-36.90
-33.31
-29.74
-26.49
-23.91
-22.07
-20.76
-19.60
-18.32
-16.84
-15.36
-14.07
-13.08
-12.28
-11.52
-10.68
-9.91
-9.55
-9.98
-11.38
-13.57
-16.10
-18.44
-20.28
-21.70
-23.23
-25.53
-29.11
-34.00
-39.71
-45.43
-50.39
-54.16
-56.85
-59.07
-61.67
-65.44
-70.76
-77.39
-84.32
-90.05
-92.89
-91.57
-85.69
-75.87
-63.61
-50.69
-38.65
-28.31
-19.82
-12.90
-7.28
-2.84
0.32
2.23
3.12
3.58
4.32
5.86
8.35
11.52
14.86
17.94
20.57
22.86
24.99
27.03
28.83
30.00
30.12
28.91
26.44
23.10
19.45
16.07
13.29
11.11
9.22
7.11
4.28
0.46
-4.28
-9.51
-14.64
-19.11
-22.69
-25.52
-28.19
-31.48
-36.06
-42.15
-49.23
-56.06
-60.86
-61.89
-58.00
-49.03
-35.90
-20.26
-3.98
11.43
25.08
36.70
46.52
55.02
62.72
70.04
77.10
83.58
88.70
91.36
90.57
85.77
77.10
65.36
51.74
37.47
23.54
10.60
-0.94
-10.79
-18.79
-24.92
-29.41
-32.66
-35.19
-37.46
-39.77
-42.23
-44.85
-47.67
-50.77
-54.30
-58.28
-62.48
-66.42
-69.52
-71.39
-72.02
-71.99
-72.26
-73.97
-77.92
-84.25
-92.18
-100.14
-106.07
-108.10
-105.04
-96.81
-84.41
-69.55
-54.09
-39.44
-26.25
-14.45
-3.49
7.17
17.67
27.67
36.45
43.25
47.64
49.74
50.21
50.01
49.99
50.69
52.15
54.07
56.03
57.59
58.42
58.26
56.93
54.32
50.47
45.66
40.27
34.77
29.42
24.26
19.09
13.60
7.59
1.02
-5.91
-12.85
-19.50
-25.68
-31.40
-36.93
-42.71
-49.30
-57.20
-66.55
-76.88
-86.98
-95.06
-99.19
-97.88
-90.60
-77.90
-61.29
-42.73
-24.23
-7.34
7.00
18.54
27.51
34.39
39.70
43.77
46.76
48.73
49.84
50.40
50.87
51.65
52.97
54.78
56.81
58.74
60.35
61.55
62.33
62.64
62.36
61.34
59.55
57.13
54.53
52.20
50.43
49.13
47.80
45.85
42.89
39.11
35.27
32.42
31.44
32.56
35.19
38.08
39.73
38.96
35.29
29.22
22.11
15.96
12.98
15.11
23.44
37.95
57.46
79.79
102.31
122.47
138.25
148.42
152.42
150.09
141.47
126.73
106.41
81.77
54.86
28.36
4.98
-13.34
-25.84
-33.09
-36.42
-37.19
-36.09
-32.89
-26.82
-17.18
-4.18
10.74
24.96
35.35
39.21
35.02
22.77
3.62
-20.67
-48.32
-77.65
-106.70
-132.85
-152.82
-163.34
-162.30
-149.83
-128.60
-103.39
-79.95
-63.89
-59.74
-70.33
-96.21
-135.27
-182.60
-231.35
-274.22
-305.38
-321.89
-323.84
-313.44
-293.32
-265.65
-232.09
-194.59
-156.19
-120.90
-92.67
-73.74
-63.77
-60.00
-58.55
-56.23
-51.57
-45.10
-38.34
-32.75
-28.80
-25.88
-22.80
-18.64
-13.31
-7.66
-3.23
-1.48
-3.16
-8.03
-14.90
-22.26
-28.83
-34.01
-37.89
-40.72
-42.31
-41.73
-37.47
-28.14
-13.41
5.47
25.80
44.24
57.83
64.99
65.84
62.00
56.07
50.77
48.36
50.15
56.24
65.64
76.51
86.68
94.24
98.09
98.12
95.01
89.85
83.51
76.41
68.50
59.52
49.37
38.35
27.15
16.63
7.43
-0.25
-6.72
-12.61
-18.51
-24.53
-30.14
-34.21
-35.31
-32.18
-24.30
-12.18
2.58
17.43
29.48
36.11
35.51
27.14
11.84
-8.47
-31.20
-53.79
-74.18
-91.21
-104.68
-115.28
-124.32
-133.37
-143.90
-156.70
-171.41
-186.24
-198.31
-204.40
-202.07
-190.59
-171.15
-146.42
-119.36
-92.05
-64.95
-37.13
-7.27
25.08
58.57
90.11
115.87
132.90
140.31
139.63
134.12
127.33
121.86
119.06
119.51
123.78
132.65
146.59
164.77
184.59
202.15
213.73
217.34
213.51
204.88
194.84
185.98
179.23
173.93
168.57
161.71
152.54
140.94
127.21
111.75
94.77
76.32
56.29
34.52
10.94
-14.35
-41.04
-68.42
-95.27
-119.78
-139.69
-152.76
-157.35
-153.05
-141.07
-124.04
-105.39
-88.38
-75.20
-66.26
-60.17
-54.16
-45.05
-30.33
-8.95
18.35
49.31
80.85
110.02
134.70
153.94
167.88
177.35
183.38
186.81
188.13
187.42
184.59
179.43
171.85
161.82
149.34
134.42
117.05
97.34
75.64
52.63
29.21
6.37
-15.11
-34.83
-52.88
-69.76
-86.09
-102.55
-119.60
-137.45
-155.86
-173.91
-189.91
-201.43
-205.65
-200.10
-183.53
-156.50
-121.57
-82.60
-43.62
-7.56
24.46
52.97
79.32
104.59
128.80
150.85
169.10
182.12
189.33
191.17
188.80
183.69
177.13
170.03
162.85
155.71
148.51
141.09
133.29
124.99
116.02
106.02
94.40
80.52
63.82
44.14
21.82
-2.27
-26.98
-51.06
-73.48
-93.61
-111.39
-127.27
-142.07
-156.73
-171.89
-187.64
-203.34
-217.63
-228.69
-234.71
-234.41
-227.47
-214.74
-197.90
-178.95
-159.48
-140.29
-121.32
-102.19
-82.67
-63.03
-44.06
-26.63
-11.27
2.06
14.08
26.16
40.05
57.47
79.52
105.88
134.57
162.24
185.25
201.02
208.94
210.25
207.17
201.61
194.37
185.27
173.91
160.42
145.65
130.76
116.49
102.72
88.61
73.20
56.04
37.52
18.57
0.21
-16.94
-32.96
-48.54
-64.57
-81.65
-99.62
-117.29
-132.63
-143.27
-147.19
-143.44
-132.48
-116.02
-96.42
-75.96
-56.29
-38.25
-22.14
-8.09
3.76
13.21
20.20
24.98
28.11
30.28
32.11
33.99
36.05
38.16
39.98
41.01
40.73
38.89
35.73
32.03
28.78
26.76
26.05
25.98
25.45
23.54
19.89
14.87
9.29
3.90
-0.83
-4.83
-8.20
-11.06
-13.35
-15.04
-16.20
-17.16
-18.59
-21.34
-26.23
-33.71
-43.55
-54.76
-65.72
-74.55
-79.65
-80.09
-75.74
-67.20
-55.55
-42.00
-27.81
-14.08
-1.66
8.90
17.41
24.03
29.11
33.00
35.93
37.99
39.16
39.52
39.21
38.47
37.49
36.43
35.36
34.40
33.74
33.56
33.88
34.25
33.79
31.41
26.41
19.00
10.46
2.66
-2.81
-5.38
-5.86
-5.92
-7.29
-10.91
-16.65
-23.60
-30.74
-37.49
-43.84
-50.19
-56.91
-64.22
-72.05
-80.07
-87.62
-93.79
-97.44
-97.50
-93.34
-84.97
-73.11
-58.95
-43.87
-29.12
-15.65
-4.17
4.96
11.60
15.80
17.78
17.88
16.47
14.03
11.11
8.29
6.10
4.82
4.43
4.73
5.49
6.66
8.45
11.13
14.75
18.96
23.02
26.07
27.54
27.38
26.07
24.36
22.92
22.03
21.54
21.03
20.06
18.38
15.93
12.80
9.08
4.85
0.33
-4.16
-8.16
-11.24
-13.09
-13.48
-12.08
-8.34
-1.61
8.55
21.89
37.27
52.87
66.71
77.34
84.20
87.62
88.41
87.48
85.45
82.64
79.15
74.99
70.10
64.47
58.09
51.03
43.49
35.84
28.60
22.37
17.54
14.09
11.34
7.96
2.43
-6.41
-18.74
-33.52
-48.84
-62.58
-73.15
-79.86
-82.80
-82.50
-79.61
-74.72
-68.51
-61.70
-54.88
-48.25
-41.62
-34.71
-27.63
-21.20
-16.57
-14.52
-14.68
-15.24
-13.60
-7.50
3.83
19.33
36.61
53.00
66.53
76.34
82.49
85.38
85.31
82.38
76.68
68.55
58.67
47.83
36.82
26.21
16.49
8.30
2.52
0.13
1.71
7.08
15.04
23.87
31.81
37.79
41.69
44.08
45.68
46.85
47.43
46.82
44.53
40.45
35.04
29.11
23.59
19.14
16.01
14.01
12.48
10.51
7.04
1.07
-8.10
-20.57
-35.41
-50.51
-62.68
-68.47
-65.39
-53.06
-33.77
-11.93
7.38
20.23
25.07
22.83
15.94
6.98
-2.42
-11.62
-20.49
-28.72
-35.56
-40.22
-42.31
-42.22
-40.87
-39.24
-37.88
-36.75
-35.45
-33.58
-31.00
-27.99
-25.15
-23.24
-23.10
-25.44
-30.64
-38.68
-48.97
-60.51
-72.10
-82.60
-91.16
-97.40
-101.40
-103.81
-105.58
-107.71
-110.73
-114.31
-117.17
-117.46
-113.47
-104.33
-90.38
-73.03
-54.27
-36.01
-19.60
-5.62
5.92
15.31
22.85
28.71
33.01
35.95
37.90
39.47
41.33
44.01
47.69
52.08
56.49
60.11
62.22
62.54
61.20
58.70
55.56
52.15
48.49
44.34
39.38
33.41
26.56
19.21
11.88
5.00
-1.23
-6.85
-12.12
-17.41
-23.09
-29.50
-36.86
-45.22
-54.22
-63.01
-70.23
-74.24
-73.62
-67.64
-56.61
-41.84
-25.31
-8.99
5.62
17.83
27.62
35.35
41.44
46.11
49.41
51.35
52.03
51.75
50.90
49.86
48.91
48.18
47.70
47.40
47.20
46.93
46.44
45.49
43.92
41.64
38.63
34.98
30.81
26.21
21.22
15.91
10.35
4.70
-0.90
-6.31
-11.50
-16.50
-21.38
-26.32
-31.51
-37.23
-43.70
-50.98
-58.74
-66.10
-71.71
-74.11
-72.14
-65.41
-54.52
-40.81
-26.01
-11.71
0.97
11.54
19.96
26.45
31.25
34.53
36.48
37.31
37.36
37.06
36.82
36.95
37.51
38.37
39.22
39.71
39.60
38.75
37.20
35.04
32.40
29.33
25.81
21.75
17.08
11.82
6.12
0.33
-5.24
-10.32
-14.83
-18.93
-22.91
-27.11
-31.81
-37.20
-43.37
-50.23
-57.41
-64.16
-69.34
-71.66
-70.02
-63.96
-53.84
-40.85
-26.62
-12.72
-0.31
10.08
18.46
25.15
30.51
34.69
37.76
39.69
40.57
40.68
40.48
40.42
40.81
41.68
42.74
43.57
43.76
43.07
41.52
39.24
36.43
33.21
29.57
25.44
20.81
15.70
10.26
4.65
-0.96
-6.48
-11.83
-16.96
-21.84
-26.41
-30.72
-34.94
-39.38
-44.48
-50.63
-57.92
-65.98
-73.82
-79.96
-82.84
-81.22
-74.67
-63.70
-49.65
-34.26
-19.20
-5.67
5.75
15.04
22.48
28.42
33.15
36.82
39.56
41.51
42.87
43.87
44.69
45.38
45.91
46.22
46.28
46.13
45.78
45.18
44.16
42.45
39.81
36.18
31.70
26.70
21.57
16.67
12.12
7.89
3.73
-0.65
-5.45
-10.70
-16.17
-21.49
-26.30
-30.50
-34.30
-38.27
-43.10
-49.33
-57.02
-65.59
-73.73
-79.69
-81.77
-78.77
-70.50
-57.82
-42.39
-26.15
-10.71
3.00
14.73
24.75
33.42
40.97
47.38
52.51
56.24
58.65
60.05
60.92
61.81
63.13
65.12
67.74
70.70
73.57
75.96
77.54
78.18
77.94
77.04
75.77
74.38
72.98
71.55
69.93
67.98
65.66
63.19
60.93
59.33
58.67
58.98
59.98
61.18
62.07
62.29
61.75
60.70
59.66
59.48
61.20
65.86
73.87
84.55
95.80
104.50
107.48
102.72
90.13
71.46
49.44
26.40
3.30
-20.44
-46.20
-74.97
-106.42
-138.69
-169.02
-194.84
-214.51
-227.67
-234.81
-236.74
-234.07
-227.10
-216.21
-202.19
-186.18
-169.15
-151.25
-131.51
-108.29
-80.18
-47.04
-10.39
26.94
61.50
89.97
109.70
118.85
116.66
103.84
82.95
58.42
35.73
19.80
13.22
15.24
22.01
28.28
29.48
23.45
10.82
-5.59
-22.36
-36.63
-46.84
-52.59
-54.24
-52.42
-47.96
-41.90
-35.58
-30.48
-27.85
-28.34
-31.84
-37.61
-44.58
-51.77
-58.48
-64.35
-69.29
-73.13
-75.53
-75.91
-73.67
-68.44
-60.34
-49.97
-38.24
-26.15
-14.56
-4.19
4.40
10.76
14.69
16.36
16.36
15.52
14.53
13.62
12.49
10.48
7.03
2.01
-4.15
-10.73
-17.01
-22.59
-27.44
-31.81
-36.09
-40.64
-45.77
-51.61
-58.05
-64.64
-70.62
-75.04
-76.98
-75.86
-71.55
-64.47
-55.51
-45.80
-36.44
-28.11
-20.82
-13.98
-6.71
1.62
10.97
20.38
28.37
33.56
35.32
34.17
31.63
29.70
30.16
34.00
41.29
51.39
63.23
75.59
87.25
96.97
103.52
105.84
103.47
96.83
87.35
77.06
67.84
60.69
55.35
50.49
44.51
36.33
26.06
14.90
4.57
-3.55
-9.05
-12.77
-16.32
-21.44
-29.28
-39.78
-51.65
-62.49
-69.42
-69.72
-61.61
-44.88
-21.49
4.41
27.29
41.80
44.68
36.16
20.04
2.27
-11.37
-17.54
-16.25
-10.27
-3.41
1.29
2.64
1.20
-1.54
-3.92
-4.61
-2.75
2.12
9.89
19.75
30.19
39.31
45.43
47.64
46.10
41.80
36.09
30.13
24.65
19.90
15.82
12.21
8.80
5.25
1.21
-3.60
-9.23
-15.43
-21.79
-27.96
-33.89
-39.81
-45.98
-52.31
-58.00
-61.69
-61.91
-57.68
-49.09
-37.24
-23.95
-10.96
0.49
9.99
17.62
23.72
28.51
32.08
34.47
35.88
36.62
37.02
37.28
37.38
37.24
36.82
36.24
35.76
35.55
35.62
35.71
35.41
34.35
32.38
29.56
26.10
22.30
18.34
14.33
10.28
6.24
2.28
-1.46
-4.83
-7.72
-10.06
-11.90
-13.42
-14.92
-16.91
-19.96
-24.55
-30.75
-37.96
-44.88
-49.72
-50.81
-47.10
-38.60
-26.38
-12.16
2.23
15.37
26.46
35.27
41.99
46.89
50.25
52.28
53.23
53.36
52.98
52.44
51.97
51.69
51.59
51.55
51.40
51.04
50.37
49.31
47.75
45.48
42.36
38.29
33.32
27.59
21.26
14.42
7.17
-0.39
-8.10
-15.69
-22.90
-29.48
-35.39
-40.82
-46.19
-52.05
-58.96
-67.21
-76.69
-86.79
-96.42
-104.24
-109.01
-109.87
-106.53
-99.43
-89.52
-78.13
-66.66
-56.22
-47.45
-40.40
-34.68
-29.69
-25.00
-20.46
-16.23
-12.65
-9.96
-8.20
-7.17
-6.52
-5.95
-5.26
-4.42
-3.52
-2.70
-2.09
-1.79
-1.88
-2.41
-3.42
-4.92
-6.94
-9.43
-12.42
-15.82
-19.52
-23.26
-26.74
-29.62
-31.72
-33.06
-33.97
-34.94
-36.50
-39.01
-42.49
-46.55
-50.42
-53.09
-53.53
-50.94
-44.97
-35.78
-24.07
-10.89
2.59
15.35
26.67
36.19
43.82
49.63
53.70
56.08
56.96
56.71
56.02
55.74
56.68
59.30
63.54
68.81
74.21
78.84
82.03
83.54
83.43
81.98
79.42
75.83
71.14
65.31
58.39
50.64
42.41
34.10
25.98
18.23
10.97
4.34
-1.59
-6.92
-12.08
-17.75
-24.50
-32.43
-40.75
-47.89
-51.97
-51.57
-46.35
-37.34
-26.74
-17.20
-10.98
-9.20
-11.60
-16.71
-22.60
-27.57
-30.74
-32.15
-32.37
-32.06
-31.54
-30.63
-28.89
-25.94
-21.67
-16.26
-10.09
-3.59
2.89
9.07
14.75
19.82
24.27
28.07
31.14
33.29
34.30
34.05
32.63
30.38
27.74
25.04
22.38
19.62
16.49
12.82
8.55
3.75
-1.45
-6.79
-11.87
-16.01
-18.30
-17.89
-14.27
-7.59
1.24
10.79
19.58
26.55
31.33
34.24
35.89
36.88
37.40
37.26
36.13
33.91
30.97
28.15
26.40
26.37
28.03
30.64
33.10
34.52
34.58
33.71
32.87
32.98
34.63
37.72
41.58
45.16
47.42
47.69
45.91
42.80
39.68
37.99
38.78
42.23
47.47
53.08
57.59
60.11
60.70
60.51
61.73
67.19
79.60
100.34
128.57
160.88
192.15
217.38
233.57
240.76
241.63
239.84
238.31
238.06
238.37
237.75
234.95
229.47
221.33
210.65
197.36
181.27
162.42
141.17
118.18
94.27
70.03
45.56
20.40
-6.29
-35.04
-65.48
-95.87
-123.14
-143.96
-156.01
-159.13
-155.61
-149.14
-143.23
-139.58
-137.66
-135.36
-130.58
-122.63
-112.65
-102.98
-95.86
-92.35
-91.97
-93.25
-94.53
-94.70
-93.49
-91.24
-88.42
-85.36
-82.13
-78.70
-75.09
-71.50
-68.30
-65.86
-64.48
-64.26
-65.04
-66.47
-68.07
-69.37
-70.02
-69.96
-69.40
-68.76
-68.47
-68.70
-69.33
-69.89
-69.80
-68.77
-66.96
-65.08
-64.05
-64.66
-67.18
-71.28
-76.15
-80.82
-84.54
-86.87
-87.76
-87.30
-85.62
-82.76
-78.75
-73.71
-67.91
-61.73
-55.60
-49.83
-44.55
-39.64
-34.83
-29.73
-23.99
-17.35
-9.70
-1.13
7.98
16.95
24.67
29.81
31.21
28.26
21.34
11.80
1.72
-6.81
-12.32
-14.31
-13.27
-10.25
-6.39
-2.50
0.96
3.82
6.00
7.37
7.85
7.40
6.19
4.53
2.79
1.27
0.11
-0.82
-1.73
-2.89
-4.44
-6.31
-8.24
-9.80
-10.61
-10.50
-9.67
-8.67
-8.24
-8.98
-11.13
-14.36
-18.00
-21.22
-23.39
-24.32
-24.28
-23.91
-23.90
-24.81
-26.82
-29.78
-33.27
-36.82
-40.09
-42.97
-45.56
-47.98
-50.18
-51.85
-52.51
-51.68
-49.12
-45.01
-39.82
-34.31
-29.21
-25.14
-22.46
-21.29
-21.48
-22.72
-24.56
-26.53
-28.27
-29.45
-29.93
-29.62
-28.54
-26.69
-24.09
-20.77
-16.87
-12.72
-8.89
-6.08
-5.03
-6.26
-9.85
-15.34
-21.71
-27.60
-31.66
-32.85
-30.81
-25.93
-19.10
-11.46
-4.00
2.66
8.28
12.85
16.42
18.98
20.48
21.01
20.78
20.13
19.40
18.77
18.22
17.56
16.63
15.34
13.74
11.96
10.12
8.26
6.34
4.29
2.05
-0.43
-3.24
-6.42
-10.11
-14.33
-19.02
-23.99
-28.89
-33.39
-37.22
-40.25
-42.53
-44.22
-45.60
-46.90
-48.25
-49.53
-50.30
-49.97
-47.90
-43.70
-37.47
-29.75
-21.43
-13.40
-6.38
-0.72
3.53
6.53
8.49
9.64
10.20
10.41
10.51
10.75
11.25
12.02
12.96
13.93
14.78
15.43
15.85
16.01
15.89
15.42
14.52
13.12
11.15
8.64
5.69
2.40
-1.04
-4.50
-7.85
-11.02
-13.91
-16.47
-18.66
-20.51
-22.12
-23.63
-25.25
-27.15
-29.47
-32.19
-35.09
-37.67
-39.18
-38.79
-35.79
-29.90
-21.50
-11.59
-1.54
7.36
14.26
18.95
21.80
23.43
24.40
25.06
25.51
25.78
26.01
26.43
27.34
28.95
31.28
34.07
36.95
39.48
41.32
42.31
42.47
41.97
41.01
39.77
38.35
36.80
35.12
33.39
31.68
30.04
28.48
26.99
25.55
24.08
22.40
20.06
16.39
10.63
2.16
-9.21
-23.11
-38.57
-54.14
-68.14
-78.83
-84.76
-85.00
-79.48
-69.10
-55.65
-41.30
-28.09
-17.39
-9.64
-4.52
-1.28
0.87
2.52
3.95
5.25
6.40
7.35
8.06
8.56
8.90
9.14
9.37
9.61
9.85
9.97
9.86
9.48
8.81
7.96
7.04
6.16
5.32
4.46
3.42
2.02
0.17
-2.11
-4.62
-7.11
-9.37
-11.36
-13.18
-15.01
-16.98
-19.16
-21.50
-23.88
-26.12
-27.91
-28.76
-28.01
-25.03
-19.41
-11.29
-1.32
9.39
19.66
28.52
35.41
40.19
43.11
44.60
45.20
45.40
45.70
46.49
48.08
50.59
53.83
57.40
60.80
63.65
65.90
67.79
69.68
71.73
73.68
74.93
74.81
72.95
69.56
65.43
61.71
59.62
60.16
63.81
70.30
78.29
85.28
87.97
83.05
68.40
44.03
12.36
-22.49
-55.96
-84.42
-105.83
-119.79
-126.86
-127.98
-124.20
-116.80
-107.55
-98.51
-91.68
-88.22
-88.05
-89.98
-92.29
-93.66
-93.74
-93.27
-93.50
-95.60
-99.96
-106.07
-112.78
-118.78
-123.19
-125.78
-127.04
-127.93
-129.54
-132.51
-136.65
-140.86
-143.47
-143.03
-139.09
-132.55
-125.27
-119.18
-115.44
-114.03
-114.19
-115.05
-116.14
-117.15
-117.50
-115.91
-110.88
-101.58
-88.78
-74.85
-62.68
-54.20
-49.33
-46.06
-41.81
-34.93
-25.74
-16.29
-9.31
-6.88
-9.76
-17.51
-29.09
-43.56
-60.32
-78.92
-98.74
-118.73
-137.57
-153.91
-166.90
-176.30
-182.57
-186.50
-188.88
-190.20
-190.56
-189.76
-187.50
-183.68
-178.44
-172.23
-165.56
-158.83
-152.17
-145.47
-138.45
-130.87
-122.68
-114.06
-105.38
-97.04
-89.29
-82.17
-75.49
-68.96
-62.28
-55.32
-48.11
-40.81
-33.54
-26.31
-18.95
-11.15
-2.60
6.86
17.20
28.16
39.41
50.72
62.10
73.84
86.38
100.16
115.44
132.08
149.70
167.74
185.70
203.30
220.46
237.34
254.24
271.68
290.21
310.22
331.41
352.41
370.81
383.71
388.69
384.78
372.88
355.31
334.91
313.84
293.13
272.77
252.36
231.80
211.61
192.63
175.55
160.58
147.33
135.14
123.40
111.70
99.92
87.91
75.49
62.42
48.82
35.48
23.95
16.11
13.59
16.98
25.50
37.19
49.56
60.44
68.57
73.73
76.46
77.53
77.53
76.70
75.04
72.58
69.51
66.17
63.00
60.33
58.33
57.04
56.44
56.47
57.02
57.83
58.49
58.51
57.43
54.89
50.78
45.22
38.47
30.95
23.09
15.28
7.81
0.87
-5.44
-11.02
-15.81
-19.80
-23.19
-26.42
-30.07
-34.64
-40.22
-46.27
-51.66
-54.94
-54.71
-50.02
-40.67
-27.31
-11.34
5.46
21.36
35.10
46.20
54.84
61.62
67.03
71.29
74.26
75.74
75.73
74.61
73.03
71.63
70.77
70.46
70.41
70.29
69.90
69.16
68.05
66.57
64.59
62.01
58.72
54.69
49.99
44.74
39.06
33.09
26.96
20.77
14.58
8.40
2.16
-4.33
-11.36
-19.33
-28.61
-39.47
-51.82
-65.16
-78.48
-90.35
-99.20
-103.56
-102.49
-95.74
-83.93
-68.41
-50.94
-33.31
-16.96
-2.76
9.06
18.65
26.36
32.54
37.37
40.99
43.56
45.35
46.80
48.38
50.50
53.29
56.62
60.11
63.31
65.82
67.39
67.93
67.46
65.97
63.45
59.90
55.42
50.29
44.85
39.44
34.26
29.32
24.45
19.53
14.60
9.93
5.86
2.59
-0.10
-2.85
-6.49
-11.60
-18.20
-25.61
-32.73
-38.47
-42.16
-43.86
-44.24
-44.41
-45.52
-48.44
-53.47
-60.21
-67.53
-73.74
-77.03
-75.95
-69.92
-59.39
-45.73
-30.78
-16.30
-3.57
6.82
14.81
20.66
24.68
27.16
28.33
28.41
27.73
26.66
25.61
24.92
24.78
25.27
26.24
27.44
28.47
28.90
28.39
26.86
24.50
21.69
18.83
16.14
13.45
10.35
6.37
1.23
-4.93
-11.59
-18.05
-23.74
-28.43
-32.24
-35.58
-38.92
-42.74
-47.40
-53.12
-59.84
-67.09
-73.91
-78.91
-80.65
-78.05
-70.82
-59.60
-45.74
-30.91
-16.65
-3.99
6.63
15.21
22.02
27.31
31.23
33.85
35.25
35.61
35.21
34.51
33.93
33.79
34.19
34.98
35.91
36.66
37.01
36.79
35.92
34.32
31.97
28.92
25.29
21.25
16.99
12.61
8.08
3.33
-1.77
-7.24
-13.03
-18.98
-24.89
-30.53
-35.74
-40.49
-44.89
-49.25
-53.92
-59.05
-64.33
-68.90
-71.47
-70.76
-66.01
-57.32
-45.61
-32.40
-19.26
-7.40
2.59
10.60
16.93
21.90
25.78
28.70
30.65
31.60
31.58
30.71
29.21
27.34
25.33
23.27
21.14
18.92
16.68
14.61
12.99
12.08
11.99
12.64
13.89
15.61
17.72
20.21
22.93
25.57
27.69
28.85
28.83
27.68
25.76
23.52
21.33
19.33
17.36
15.01
11.68
6.81
0.10
-8.21
-17.20
-25.39
-31.08
-32.91
-30.38
-23.98
-15.03
-5.11
4.42
12.78
19.77
25.52
30.17
33.69
35.95
36.84
36.52
35.53
34.77
35.07
36.94
40.29
44.49
48.73
52.45
55.60
58.70
62.51
67.69
74.79
84.28
96.70
112.51
131.61
152.95
174.45
193.66
208.70
219.09
225.91
231.13
236.55
243.00
250.08
256.68
261.70
264.50
264.96
263.07
258.67
251.37
240.81
227.06
210.76
193.01
174.97
157.38
140.26
122.99
104.64
84.50
62.48
39.25
15.88
-6.52
-27.37
-46.78
-65.45
-84.34
-104.31
-125.87
-149.04
-173.26
-197.29
-219.40
-237.66
-250.69
-258.14
-261.01
-261.17
-260.45
-259.52
-257.49
-252.19
-241.42
-224.33
-202.31
-178.92
-158.83
-146.30
-143.71
-151.04
-166.04
-185.17
-204.68
-221.45
-233.33
-239.16
-238.57
-231.99
-220.59
-206.20
-190.91
-176.45
-163.48
-151.31
-138.34
-122.88
-104.12
-82.75
-60.76
-40.63
-24.44
-13.06
-6.08
-2.16
0.28
2.48
5.03
7.93
10.77
13.10
14.56
15.03
14.52
13.19
11.26
8.94
6.47
4.00
1.60
-0.75
-3.14
-5.65
-8.33
-11.14
-13.93
-16.49
-18.63
-20.17
-21.07
-21.40
-21.33
-21.08
-20.94
-21.12
-21.72
-22.75
-24.13
-25.79
-27.76
-30.06
-32.67
-35.27
-37.25
-37.76
-36.06
-31.88
-25.62
-18.37
-11.47
-6.07
-2.75
-1.33
-1.09
-1.11
-0.61
0.82
3.25
6.51
10.31
14.31
18.15
21.48
24.09
25.92
27.12
28.05
29.15
30.80
33.16
36.12
39.28
42.14
44.27
45.54
46.18
46.74
47.89
50.10
53.47
57.62
61.84
65.44
68.00
69.65
71.07
73.29
77.27
83.53
91.76
100.79
108.66
113.07
111.99
104.28
90.32
71.98
52.27
34.26
20.13
10.48
4.43
0.26
-3.64
-8.09
-13.09
-18.15
-22.91
-27.38
-31.89
-36.84
-42.29
-47.90
-52.95
-56.67
-58.48
-58.20
-56.18
-53.25
-50.43
-48.64
-48.35
-49.40
-51.17
-52.90
-54.06
-54.57
-54.66
-54.65
-54.70
-54.63
-54.08
-52.68
-50.26
-46.98
-43.26
-39.56
-36.34
-33.90
-32.46
-32.17
-33.06
-34.99
-37.54
-39.98
-41.36
-40.79
-37.68
-32.00
-24.29
-15.58
-7.08
0.09
5.23
8.17
9.20
8.96
8.03
6.77
5.25
3.35
0.96
-1.86
-4.90
-7.88
-10.62
-13.14
-15.48
-17.64
-19.42
-20.54
-20.82
-20.34
-19.52
-18.90
-18.95
-19.86
-21.53
-23.62
-25.76
-27.69
-29.33
-30.80
-32.33
-34.17
-36.48
-39.28
-42.47
-45.84
-49.14
-52.11
-54.45
-55.71
-55.38
-52.90
-47.87
-40.29
-30.57
-19.55
-8.32
2.08
10.76
17.24
21.40
23.35
23.43
22.01
19.49
16.30
12.91
9.73
7.11
5.18
3.85
2.89
2.13
1.54
1.29
1.63
2.64
4.12
5.59
6.44
6.19
4.70
2.11
-1.23
-4.90
-8.67
-12.41
-16.15
-19.92
-23.68
-27.30
-30.55
-33.09
-34.54
-34.45
-32.37
-27.97
-21.17
-12.15
-1.48
10.02
21.39
31.69
40.17
46.39
50.25
51.94
51.92
50.76
49.11
47.56
46.47
45.98
45.92
45.96
45.70
44.91
43.54
41.85
40.14
38.60
36.97
34.41
29.40
19.95
4.14
-19.17
-49.59
-85.08
-122.31
-157.77
-188.90
-214.80
-236.19
-254.62
-271.66
-288.35
-305.15
-322.29
-340.03
-358.52
-377.41
-395.45
-410.60
-420.53
-423.41
-418.50
-406.38
-388.75
-367.91
-346.23
-325.66
-307.45
-292.03
-279.07
-267.75
-257.07
-246.20
-234.62
-222.13
-208.66
-194.11
-178.15
-160.27
-139.94
-116.81
-90.97
-62.97
-33.71
-4.17
24.90
53.22
80.94
108.51
136.50
165.64
196.69
230.36
266.68
304.36
340.37
370.39
389.92
395.86
387.65
367.42
339.04
306.74
273.96
243.09
215.78
193.60
178.12
170.49
170.64
176.95
186.46
195.81
202.34
204.81
203.57
199.96
195.50
191.10
186.78
181.81
175.39
167.17
157.58
147.75
138.93
131.92
126.72
122.52
118.21
112.86
106.12
98.28
90.03
82.11
74.88
68.35
62.13
55.70
48.62
40.63
31.63
21.64
10.85
-0.37
-11.37
-21.50
-30.25
-37.67
-44.31
-51.00
-58.40
-66.70
-75.48
-83.90
-90.94
-95.41
-96.03
-91.53
-80.98
-64.32
-42.66
-18.10
6.99
30.84
52.74
72.84
91.43
108.21
122.14
131.90
136.67
136.66
133.10
127.66
121.77
116.19
111.12
106.55
102.68
100.04
99.22
100.33
102.68
104.82
105.00
101.87
95.01
85.09
73.57
62.09
51.97
43.79
37.40
32.07
26.75
20.43
12.33
2.20
-9.72
-22.70
-35.77
-48.00
-58.73
-67.65
-74.93
-81.03
-86.57
-92.01
-97.32
-101.78
-104.23
-103.40
-98.43
-89.14
-75.77
-58.76
-38.46
-15.28
9.92
35.50
59.16
78.56
92.20
99.79
102.17
100.65
96.39
90.18
82.68
74.74
67.45
61.80
58.11
55.87
53.95
51.26
47.24
42.20
37.00
32.45
28.88
25.96
22.94
18.95
13.47
6.44
-1.63
-9.86
-17.24
-23.00
-26.82
-28.91
-29.84
-30.24
-30.55
-30.83
-30.94
-30.69
-30.14
-29.71
-30.12
-32.13
-36.20
-42.20
-49.30
-56.01
-60.48
-60.97
-56.35
-46.38
-31.81
-14.10
4.96
23.68
40.72
55.16
66.51
74.52
79.22
80.81
79.72
76.55
72.05
67.05
62.33
58.47
55.73
54.00
52.84
51.67
50.01
47.68
44.79
41.68
38.60
35.54
32.22
28.25
23.41
17.89
12.28
7.45
4.23
3.09
3.76
5.15
5.62
3.53
-2.08
-11.00
-21.81
-32.48
-41.22
-47.20
-50.72
-52.81
-54.55
-56.50
-58.60
-60.46
-61.72
-62.17
-61.62
-59.68
-55.67
-48.91
-39.16
-26.93
-13.44
-0.29
11.13
20.03
26.29
30.24
32.26
32.54
31.01
27.63
22.59
16.59
10.63
5.70
2.45
0.91
0.63
0.97
1.36
1.57
1.59
1.54
1.41
1.08
0.26
-1.30
-3.80
-7.27
-11.50
-16.08
-20.46
-24.17
-27.02
-29.24
-31.40
-34.14
-37.81
-42.27
-46.94
-51.04
-53.91
-55.24
-55.13
-53.99
-52.43
-51.07
-50.36
-50.32
-50.37
-49.28
-45.43
-37.42
-24.49
-7.04
13.48
34.92
55.07
72.17
85.17
93.88
98.59
99.98
98.75
95.53
90.79
84.86
78.04
70.67
63.26
56.33
50.31
45.36
41.18
37.21
32.84
27.71
21.87
15.72
9.72
4.07
-1.42
-7.24
-13.76
-20.99
-28.36
-35.02
-40.24
-43.80
-46.09
-47.91
-50.10
-53.14
-57.12
-61.89
-67.25
-73.04
-79.16
-85.42
-91.55
-97.33
-102.79
-108.20
-113.92
-119.91
-125.51
-129.34
-129.78
-125.51
-116.12
-102.30
-85.63
-68.03
-51.09
-35.61
-21.51
-8.20
4.89
17.79
29.86
40.02
47.28
51.33
52.88
53.38
54.55
57.66
63.02
69.90
76.99
82.93
86.86
88.62
88.59
87.32
85.16
82.10
77.75
71.57
63.20
52.66
40.55
28.07
16.77
8.16
3.20
1.94
3.54
6.68
10.13
13.16
15.54
17.12
17.40
15.42
10.13
1.10
-10.79
-23.36
-33.59
-38.80
-37.63
-30.57
-19.78
-8.14
1.77
8.48
11.86
12.81
12.76
12.89
13.91
15.75
17.77
19.03
18.65
16.15
11.62
5.72
-0.66
-6.69
-11.87
-16.08
-19.34
-21.62
-22.79
-22.80
-21.94
-20.94
-20.79
-22.31
-25.67
-30.17
-34.49
-37.25
-37.68
-36.01
-33.30
-30.91
-29.75
-29.87
-30.55
-30.88
-30.34
-29.28
-28.76
-29.87
-33.06
-37.74
-42.41
-45.29
-44.99
-40.93
-33.39
-23.26
-11.75
-0.15
10.32
18.62
24.08
26.59
26.64
25.19
23.37
22.07
21.75
22.41
23.70
25.10
26.05
26.14
25.23
23.55
21.67
20.23
19.60
19.67
19.84
19.41
18.01
15.97
14.14
13.40
14.02
15.37
16.06
14.60
10.14
2.93
-5.71
-13.94
-20.18
-23.65
-24.61
-24.17
-23.73
-24.35
-26.47
-29.55
-32.24
-32.84
-29.76
-21.98
-9.24
7.82
27.66
48.09
66.83
82.39
94.94
106.68
121.10
141.43
168.77
201.09
233.59
260.66
278.30
285.64
285.00
280.33
275.23
271.51
268.99
266.35
262.17
255.66
246.58
235.04
220.94
204.00
183.93
160.77
135.08
107.74
79.70
51.50
22.90
-7.09
-39.59
-74.96
-111.94
-147.50
-177.67
-199.00
-210.12
-212.29
-208.84
-203.55
-198.96
-195.40
-191.38
-184.76
-174.23
-160.07
-143.95
-128.06
-114.12
-102.80
-93.87
-86.61
-80.40
-74.94
-70.23
-66.25
-62.81
-59.54
-56.13
-52.54
-49.17
-46.59
-45.37
-45.72
-47.39
-49.80
-52.22
-54.03
-54.88
-54.70
-53.59
-51.82
-49.63
-47.24
-44.83
-42.54
-40.46
-38.68
-37.25
-36.27
-35.88
-36.29
-37.71
-40.34
-44.17
-48.99
-54.25
-59.15
-62.69
-63.96
-62.37
-57.84
-50.88
-42.40
-33.49
-25.10
-17.83
-11.86
-7.16
-3.63
-1.27
-0.15
-0.27
-1.44
-3.15
-4.82
-5.96
-6.42
-6.40
-6.40
-6.90
-8.15
-10.06
-12.25
-14.26
-15.73
-16.57
-16.86
-16.84
-16.75
-16.74
-16.86
-17.15
-17.70
-18.65
-20.16
-22.33
-25.06
-28.10
-31.15
-34.02
-36.70
-39.31
-41.81
-43.86
-44.71
-43.39
-39.21
-32.10
-22.81
-12.70
-3.26
4.39
9.84
13.30
15.27
16.09
15.82
14.28
11.42
7.58
3.52
0.20
-1.66
-1.85
-0.79
0.72
1.88
2.15
1.40
-0.13
-2.04
-3.94
-5.58
-6.83
-7.70
-8.27
-8.69
-9.16
-9.82
-10.73
-11.80
-12.82
-13.53
-13.77
-13.54
-13.01
-12.52
-12.42
-12.92
-14.04
-15.57
-17.08
-18.02
-17.76
-15.79
-11.77
-5.75
1.72
9.73
17.22
23.31
27.56
30.06
31.29
31.82
32.08
32.22
32.17
31.70
30.57
28.56
25.57
21.62
16.91
11.85
6.95
2.71
-0.59
-2.95
-4.66
-6.18
-7.97
-10.33
-13.36
-16.93
-20.78
-24.63
-28.31
-31.81
-35.22
-38.64
-42.02
-45.15
-47.79
-49.75
-51.13
-52.26
-53.58
-55.41
-57.80
-60.38
-62.43
-63.11
-61.64
-57.61
-51.09
-42.71
-33.46
-24.40
-16.41
-9.89
-4.83
-0.97
2.03
4.40
6.23
7.54
8.35
8.73
8.78
8.57
8.12
7.45
6.58
5.58
4.56
3.70
3.16
2.97
3.08
3.23
3.03
2.10
0.19
-2.72
-6.37
-10.35
-14.20
-17.61
-20.46
-22.84
-24.92
-26.85
-28.71
-30.43
-31.92
-33.05
-33.78
-34.22
-34.67
-35.59
-37.42
-40.31
-43.81
-46.84
-47.95
-45.81
-39.83
-30.56
-19.56
-8.93
-0.50
4.79
7.15
7.69
7.83
8.55
10.05
11.69
12.41
11.32
8.17
3.46
-1.67
-5.96
-8.39
-8.44
-6.32
-3.11
-0.80
-2.08
-9.79
-25.87
-50.38
-81.24
-114.75
-146.96
-175.18
-198.86
-219.48
-239.38
-260.49
-283.38
-307.14
-329.79
-349.05
-362.83
-369.65
-368.82
-360.57
-346.20
-328.00
-308.72
-291.12
-277.35
-268.57
-264.91
-265.58
-269.18
-273.94
-277.99
-279.68
-277.78
-271.59
-261.02
-246.33
-227.94
-206.30
-181.72
-154.51
-125.07
-94.04
-62.29
-30.85
-0.71
27.34
52.82
75.62
95.87
113.81
129.62
143.39
155.07
164.57
171.81
176.79
179.63
180.58
179.94
178.04
175.19
171.69
167.85
163.95
160.27
157.02
154.28
151.98
149.92
147.80
145.33
142.24
138.37
133.61
127.89
121.09
113.11
103.95
93.73
82.90
72.20
62.60
55.10
50.51
49.28
51.42
56.66
64.49
74.46
86.17
99.38
113.94
129.78
146.88
165.18
184.33
203.46
221.11
235.38
244.59
247.85
245.57
239.32
231.27
223.33
216.43
210.44
204.43
197.36
188.52
177.81
165.60
152.54
139.35
126.69
115.04
104.61
95.36
86.91
78.69
70.12
60.82
50.72
40.13
29.54
19.53
10.51
2.54
-4.70
-11.88
-19.73
-28.59
-38.14
-47.10
-53.44
-54.99
-50.11
-38.38
-20.76
0.63
23.27
44.88
63.99
80.03
93.00
103.12
110.58
115.42
117.67
117.56
115.59
112.45
108.83
105.29
102.10
99.26
96.61
93.98
91.30
88.72
86.48
84.79
83.55
82.29
80.26
76.70
71.30
64.41
56.98
50.07
44.28
39.42
34.64
28.92
21.81
13.65
5.30
-2.48
-9.63
-16.84
-25.17
-35.28
-47.09
-59.67
-71.75
-82.13
-89.84
-94.07
-94.02
-89.03
-78.91
-64.42
-47.33
-29.99
-14.53
-2.15
7.09
13.94
19.27
23.60
26.98
29.20
30.19
30.10
29.21
27.69
25.54
22.64
19.06
15.06
11.13
7.66
4.77
2.16
-0.63
-4.04
-8.18
-12.85
-17.65
-22.21
-26.30
-29.86
-33.00
-35.89
-38.69
-41.51
-44.28
-46.76
-48.62
-49.55
-49.50
-48.76
-47.92
-47.76
-48.83
-51.33
-54.90
-58.63
-61.09
-60.53
-55.18
-43.70
-25.78
-2.48
23.87
50.29
74.10
93.75
109.08
121.01
130.77
139.10
145.97
150.78
152.88
152.08
148.87
144.22
139.16
134.47
130.44
126.83
123.07
118.40
112.10
103.57
92.56
79.21
64.10
48.18
32.52
18.08
5.41
-5.40
-14.70
-22.99
-30.73
-38.18
-45.42
-52.47
-59.35
-66.16
-73.07
-80.30
-88.08
-96.56
-105.64
-114.86
-123.24
-129.37
-131.78
-129.42
-122.10
-110.68
-96.81
-82.46
-69.27
-58.23
-49.47
-42.60
-36.97
-31.97
-27.21
-22.50
-17.81
-13.14
-8.56
-4.09
0.27
4.58
8.94
13.28
17.40
20.96
23.68
25.53
26.94
28.67
31.50
35.73
40.89
45.79
48.94
49.20
46.28
40.86
34.27
27.78
22.10
17.04
11.76
5.30
-2.84
-12.41
-22.53
-32.21
-40.69
-47.59
-52.73
-55.74
-55.98
-52.72
-45.69
-35.52
-23.75
-12.37
-3.13
3.15
6.83
9.14
11.65
15.59
21.42
28.72
36.40
43.12
47.75
49.79
49.48
47.69
45.50
43.87
43.33
44.02
45.76
48.20
50.91
53.38
55.06
55.47
54.33
51.60
47.47
42.16
35.91
28.85
21.20
13.30
5.65
-1.21
-6.89
-11.33
-14.83
-18.01
-21.68
-26.61
-33.22
-41.35
-50.08
-57.72
-62.20
-61.67
-55.17
-43.06
-27.08
-9.78
6.12
18.58
26.58
30.25
30.69
29.54
28.54
29.09
31.76
36.12
40.78
43.84
43.55
39.06
30.85
20.76
11.39
5.26
3.92
7.47
14.61
23.17
30.88
35.99
37.60
35.49
29.92
21.23
9.90
-3.48
-17.93
-32.15
-44.86
-55.11
-62.67
-68.06
-72.29
-76.45
-81.32
-87.15
-93.66
-100.17
-105.81
-109.69
-111.05
-109.40
-104.65
-97.27
-88.15
-78.50
-69.42
-61.60
-55.14
-49.63
-44.46
-39.10
-33.41
-27.64
-22.37
-18.11
-15.13
-13.21
-11.67
-9.62
-6.16
-0.77
6.64
15.63
25.46
35.34
44.63
52.95
60.18
66.25
70.98
73.97
74.64
72.61
67.95
61.43
54.44
48.61
45.20
44.65
46.41
49.18
51.33
51.46
48.57
42.23
32.61
20.55
7.54
-4.42
-13.23
-17.35
-16.28
-10.82
-2.76
5.76
12.90
17.61
19.72
19.72
18.45
16.77
15.43
14.98
15.65
17.37
19.88
22.83
25.93
29.02
32.03
34.86
37.41
39.57
41.44
43.31
45.46
47.75
49.29
48.48
43.61
33.84
19.86
4.00
-10.70
-21.77
-28.31
-31.12
-32.00
-32.71
-34.13
-36.25
-38.66
-41.17
-44.14
-48.20
-53.71
-60.35
-66.87
-71.48
-72.32
-67.93
-57.75
-42.28
-22.89
-1.57
19.55
38.65
54.39
66.06
73.75
78.34
81.46
85.42
92.79
105.82
125.72
151.95
181.98
211.84
237.25
254.98
263.94
265.36
262.04
257.05
252.53
249.15
246.33
243.03
238.46
232.27
224.30
214.27
201.61
185.80
166.81
145.35
122.72
100.45
79.58
60.39
42.26
23.93
3.87
-19.21
-45.85
-75.48
-106.24
-135.33
-159.73
-177.06
-186.38
-188.37
-184.94
-178.31
-170.21
-161.45
-152.14
-142.27
-132.26
-123.03
-115.65
-110.88
-108.73
-108.54
-109.25
-109.92
-109.98
-109.37
-108.30
-107.05
-105.82
-104.76
-104.01
-103.71
-104.03
-105.01
-106.53
-108.37
-110.20
-111.65
-112.38
-112.04
-110.38
-107.36
-103.38
-99.13
-95.56
-93.46
-93.27
-94.85
-97.54
-100.35
-102.14
-101.86
-98.78
-92.70
-84.01
-73.72
-63.14
-53.43
-45.31
-38.84
-33.62
-29.16
-25.18
-21.65
-18.69
-16.31
-14.33
-12.46
-10.45
-8.30
-6.23
-4.59
-3.65
-3.48
-3.88
-4.49
-4.85
-4.57
-3.43
-1.52
0.75
2.79
3.96
3.94
2.80
0.94
-1.10
-2.91
-4.42
-5.79
-7.33
-9.27
-11.60
-14.24
-17.14
-20.38
-24.08
-28.19
-32.25
-35.40
-36.58
-34.89
-30.05
-22.52
-13.34
-3.78
5.08
12.66
18.85
23.85
27.88
30.98
33.03
33.85
33.43
32.07
30.38
29.15
29.05
30.40
32.92
35.83
38.10
38.82
37.56
34.39
29.81
24.45
18.80
13.16
7.68
2.49
-2.20
-6.11
-9.05
-10.98
-12.07
-12.63
-13.06
-13.74
-15.05
-17.32
-20.75
-25.37
-30.86
-36.62
-41.74
-45.23
-46.29
-44.55
-40.16
-33.82
-26.53
-19.37
-13.21
-8.55
-5.51
-3.89
-3.38
-3.71
-4.65
-6.05
-7.79
-9.66
-11.45
-12.89
-13.82
-14.24
-14.25
-14.10
-13.95
-13.87
-13.79
-13.69
-13.66
-13.99
-15.10
-17.26
-20.49
-24.40
-28.37
-31.67
-33.80
-34.64
-34.47
-33.88
-33.58
-34.19
-36.03
-38.95
-42.30
-45.00
-45.86
-43.90
-38.79
-30.97
-21.63
-12.33
-4.52
0.86
3.62
4.20
3.39
1.98
0.54
-0.73
-1.80
-2.66
-3.15
-2.94
-1.71
0.72
4.15
8.02
11.58
14.14
15.32
15.14
13.88
11.92
9.46
6.46
2.76
-1.72
-6.78
-11.96
-16.60
-20.15
-22.34
-23.31
-23.53
-23.58
-24.03
-25.19
-27.12
-29.64
-32.43
-35.10
-37.12
-37.91
-36.84
-33.41
-27.57
-19.83
-11.30
-3.39
2.74
6.55
8.30
8.86
9.13
9.66
10.40
10.83
10.37
8.63
6.02
3.26
1.19
0.39
0.95
2.33
3.64
4.00
2.78
0.27
-2.84
-5.66
-7.52
-8.37
-8.88
-10.08
-12.90
-18.03
-24.79
-32.25
-39.19
-44.52
-47.54
-48.08
-46.78
-45.22
-46.81
-53.69
-68.38
-91.59
-121.51
-154.01
-184.04
-207.53
-222.95
-233.45
-240.66
-248.25
-258.40
-270.92
-283.61
-293.47
-297.96
-295.87
-290.02
-278.47
-262.36
-242.57
-219.66
-194.14
-166.68
-138.41
-110.66
-88.29
-68.66
-52.55
-40.50
-33.04
-30.78
-34.46
-44.67
-39.43
-45.72
-57.79
-73.41
-89.99
-105.11
-116.93
-124.51
-127.77
-127.27
-127.33
-124.93
-120.60
-114.59
-107.01
-98.00
-87.91
-77.21
-66.46
-58.83
-51.57
-44.56
-37.36
-29.38
-20.11
-9.36
2.73
15.70
27.24
38.65
49.70
60.47
71.35
82.77
95.01
108.03
121.52
134.21
146.56
158.37
169.75
181.01
192.69
205.47
220.11
237.08
255.82
275.22
292.60
304.68
308.62
303.13
289.10
269.23
246.95
225.15
205.30
187.41
170.66
154.13
137.28
120.00
102.37
84.57
67.10
51.07
38.17
30.32
28.91
34.14
44.72
58.31
72.26
84.50
93.98
100.65
105.03
107.71
108.99
108.89
107.29
104.25
100.12
95.53
91.20
87.72
85.37
84.03
83.33
82.77
81.91
80.43
78.09
74.74
70.28
64.70
58.10
50.70
42.84
34.89
27.24
20.32
14.48
9.95
6.69
4.30
2.02
-1.14
-6.12
-13.47
-23.02
-33.75
-43.89
-51.30
-54.00
-50.76
-41.49
-27.35
-10.41
6.93
22.59
35.36
44.98
51.94
57.05
60.98
64.00
66.03
66.81
66.20
64.29
61.49
58.38
55.65
53.94
53.74
55.35
58.71
63.38
68.52
73.07
76.00
76.62
74.73
70.54
64.54
57.27
49.24
40.97
32.97
25.74
19.55
14.34
9.66
4.78
-1.09
-8.55
-17.91
-29.14
-41.80
-55.00
-67.37
-77.25
-82.99
-83.53
-78.74
-69.49
-57.42
-44.36
-31.89
-20.97
-11.97
-4.75
0.99
5.54
9.01
11.31
12.38
12.37
11.83
11.62
12.60
15.24
19.37
24.23
28.84
32.41
34.61
35.53
35.45
34.65
33.35
31.80
30.32
29.29
28.91
29.15
29.69
30.21
30.50
30.62
30.74
30.88
30.77
29.84
27.42
23.01
16.46
8.16
-1.01
-9.67
-16.15
-18.77
-16.41
-9.00
2.29
15.22
27.24
36.38
41.87
44.22
44.78
44.95
45.55
46.62
47.62
47.86
46.83
44.46
40.99
36.89
32.69
28.80
25.54
22.99
21.08
19.63
18.41
17.14
15.51
13.10
9.54
4.58
-1.68
-8.73
-15.85
-22.32
-27.76
-32.17
-35.84
-39.12
-42.22
-45.12
-47.69
-49.86
-51.85
-54.20
-57.64
-62.64
-68.97
-75.35
-79.66
-79.53
-73.33
-60.99
-44.20
-25.78
-8.78
4.63
13.61
18.61
20.73
21.18
20.91
20.49
20.30
20.59
21.44
22.80
24.48
26.21
27.70
28.69
28.93
28.16
26.13
22.75
18.23
13.10
8.05
3.67
0.08
-3.16
-6.88
-11.85
-18.36
-26.04
-34.08
-41.63
-48.31
-54.25
-59.98
-65.93
-72.20
-78.54
-84.50
-89.71
-93.78
-96.24
-96.35
-93.13
-85.78
-74.16
-59.08
-42.20
-25.54
-10.81
1.06
10.07
16.93
22.60
27.87
33.07
38.11
42.68
46.50
49.57
52.26
55.20
59.00
64.01
70.15
77.00
83.99
90.62
96.52
101.44
105.03
106.81
106.24
102.95
97.01
89.00
79.96
71.00
62.98
56.28
50.76
45.92
41.22
36.19
30.48
23.78
15.74
6.04
-5.31
-17.62
-29.42
-38.59
-42.97
-40.91
-31.84
-16.40
3.56
25.48
46.65
64.90
79.17
89.76
98.19
106.64
117.20
131.39
149.87
172.36
197.74
224.04
248.51
268.11
280.24
283.64
278.93
268.43
255.29
242.30
231.03
221.50
212.67
203.13
191.74
177.92
161.66
143.34
123.53
102.87
81.90
60.91
39.86
18.35
-4.43
-29.53
-57.89
-89.74
-124.03
-158.19
-188.64
-211.81
-225.49
-229.60
-226.16
-218.35
-209.21
-200.59
-192.85
-185.44
-177.67
-169.38
-160.95
-152.99
-145.85
-139.46
-133.42
-127.29
-120.87
-114.19
-107.46
-100.91
-94.71
-89.03
-84.02
-79.78
-76.31
-73.45
-70.92
-68.35
-65.51
-62.36
-59.07
-55.94
-53.23
-51.02
-49.26
-47.72
-46.24
-44.75
-43.37
-42.28
-41.68
-41.62
-42.03
-42.84
-44.04
-45.82
-48.41
-51.85
-55.72
-59.01
-60.43
-58.76
-53.40
-44.76
-34.14
-23.41
-14.29
-7.83
-4.19
-2.78
-2.57
-2.64
-2.38
-1.67
-0.69
0.14
0.45
-0.03
-1.34
-3.33
-5.68
-8.01
-10.02
-11.56
-12.62
-13.27
-13.54
-13.41
-12.88
-12.01
-11.04
-10.34
-10.32
-11.27
-13.26
-16.13
-19.52
-23.00
-26.25
-29.08
-31.48
-33.56
-35.50
-37.47
-39.56
-41.72
-43.80
-45.47
-46.27
-45.72
-43.41
-39.20
-33.28
-26.23
-18.87
-12.10
-6.69
-3.08
-1.32
-1.09
-1.83
-2.91
-3.84
-4.36
-4.48
-4.41
-4.42
-4.76
-5.59
-6.86
-8.40
-9.96
-11.22
-11.93
-11.99
-11.54
-10.83
-10.15
-9.69
-9.41
-9.18
-8.76
-7.98
-6.73
-4.97
-2.70
-0.07
2.51
4.43
4.99
3.67
0.32
-4.79
-11.06
-17.74
-24.09
-29.38
-32.86
-33.80
-31.65
-26.32
-18.44
-9.28
-0.48
6.56
11.05
12.97
12.90
11.63
9.71
7.36
4.57
1.28
-2.35
-5.93
-9.00
-11.27
-12.76
-13.78
-14.77
-16.11
-17.91
-20.10
-22.41
-24.65
-26.66
-28.41
-29.84
-30.90
-31.53
-31.70
-31.50
-31.09
-30.67
-30.41
-30.39
-30.65
-31.13
-31.79
-32.62
-33.57
-34.60
-35.73
-36.94
-38.24
-39.49
-40.40
-40.51
-39.31
-36.40
-31.74
-25.64
-18.74
-11.80
-5.46
-0.18
3.79
6.34
7.47
7.27
6.00
4.07
2.00
0.26
-0.80
-1.05
-0.56
0.46
1.76
3.15
4.48
5.63
6.48
6.90
6.79
6.09
4.84
3.16
1.23
-0.75
-2.62
-4.25
-5.59
-6.63
-7.40
-8.03
-8.60
-9.22
-9.96
-10.89
-12.15
-13.93
-16.45
-19.77
-23.62
-27.33
-29.98
-30.59
-28.54
-23.82
-17.11
-9.54
-2.34
3.59
7.90
10.75
12.56
13.72
14.41
14.62
14.33
13.69
13.08
12.98
13.75
15.48
17.93
20.66
23.19
25.22
26.54
27.08
26.80
25.72
24.01
21.91
19.79
18.00
16.66
15.62
14.40
12.45
9.37
5.13
0.13
-4.97
-9.57
-13.46
-16.86
-20.51
-25.27
-31.82
-40.32
-50.15
-59.90
-67.70
-71.76
-71.07
-66.05
-58.61
-51.81
-48.95
-52.71
-64.41
-83.78
-109.15
-137.87
-167.00
-193.79
-216.31
-233.79
-246.68
-256.41
-264.77
-273.17
-282.05
-290.63
-297.16
-299.52
-296.02
-286.07
-270.51
-251.54
-232.08
-215.12
-202.92
-196.48
-195.57
-199.06
-205.40
-213.08
-220.97
-228.29
-234.49
-239.02
-241.19
-240.13
-234.92
-224.91
-209.96
-190.65
-168.01
-143.28
-117.43
-90.89
-63.45
-34.39
-2.59
33.30
74.47
121.32
172.53
224.55
271.97
309.02
331.61
338.96
333.87
321.39
306.59
292.65
280.22
268.28
255.61
242.00
228.38
216.08
205.78
196.94
188.15
177.83
165.04
149.88
133.43
117.28
102.92
91.23
82.31
75.69
70.68
66.75
63.59
61.10
59.28
58.17
58.02
59.13
61.54
64.51
66.27
64.27
56.25
41.46
21.44
-0.18
-18.93
-31.09
-34.83
-30.46
-19.74
-4.83
12.40
30.70
49.17
66.94
82.98
96.21
105.75
111.33
113.39
113.00
111.54
110.17
109.49
109.36
109.12
108.00
105.52
101.76
97.26
92.71
88.67
85.21
81.94
78.20
73.33
67.09
59.67
51.67
43.81
36.65
30.47
25.26
20.84
16.92
13.11
8.75
3.05
-4.67
-14.54
-25.71
-36.31
-43.85
-46.06
-41.66
-30.91
-15.45
2.24
19.64
34.80
46.71
55.26
60.96
64.62
66.96
68.49
69.47
70.08
70.56
71.24
72.45
74.28
76.41
78.17
78.80
77.84
75.38
72.03
68.58
65.56
63.07
60.73
58.05
54.63
50.39
45.50
40.17
34.49
28.45
22.00
15.24
8.43
1.92
-4.08
-9.71
-15.46
-22.02
-29.92
-39.15
-49.01
-58.16
-64.97
-67.86
-65.72
-58.27
-46.05
-30.38
-13.02
4.20
19.80
32.81
42.87
50.09
54.91
57.89
59.57
60.35
60.49
60.06
59.10
57.71
56.05
54.38
52.78
50.94
48.16
43.52
36.35
26.60
15.07
3.10
-7.99
-17.44
-25.27
-31.99
-38.01
-43.21
-47.03
-49.00
-49.33
-49.02
-49.22
-50.39
-51.73
-51.66
-48.87
-43.43
-36.93
-31.59
-28.75
-27.84
-26.56
-22.18
-13.05
0.57
16.87
33.60
49.24
63.52
77.14
90.94
105.29
119.82
133.62
145.75
155.71
163.76
170.92
178.87
189.58
204.74
225.33
250.98
279.76
308.40
333.10
350.67
359.60
360.41
355.22
346.69
336.81
326.36
315.09
302.45
288.26
273.01
257.37
241.66
225.47
207.83
187.82
165.17
140.54
115.29
90.92
68.40
47.78
28.28
8.60
-12.52
-35.85
-61.63
-89.38
-118.01
-145.84
-170.80
-190.79
-204.36
-211.15
-212.11
-209.10
-204.07
-198.43
-192.60
-186.39
-179.49
-172.14
-165.11
-159.45
-155.85
-154.25
-153.86
-153.59
-152.65
-150.94
-149.08
-148.10
-148.83
-151.49
-155.56
-160.04
-163.92
-166.75
-168.90
-171.42
-175.62
-182.49
-192.18
-203.92
-216.23
-227.36
-235.92
-241.27
-243.73
-244.55
-245.68
-249.49
-258.27
-273.51
-295.17
-321.20
-347.81
-370.29
-384.52
-388.30
-381.97
-368.09
-350.24
-331.40
-312.97
-294.49
-274.42
-251.22
-224.35
-194.47
-163.07
-131.72
-101.33
-72.02
-43.43
-15.39
11.58
36.22
56.99
72.87
83.82
90.93
95.96
100.74
106.66
114.56
124.70
136.83
150.09
162.89
173.13
178.72
178.29
171.76
160.45
146.41
131.55
116.83
102.08
86.42
69.05
49.98
30.31
11.96
-2.97
-12.88
-17.11
-16.07
-11.01
-3.58
4.73
12.90
20.42
27.15
33.06
38.00
41.77
44.26
45.61
46.20
46.49
46.81
47.17
47.35
47.06
46.23
45.14
44.37
44.48
45.76
47.90
50.06
51.06
49.83
45.85
39.42
31.50
23.42
16.36
11.01
7.44
5.26
3.90
2.86
1.78
0.37
-1.70
-4.74
-8.91
-14.00
-19.22
-23.28
-24.75
-22.55
-16.37
-6.85
4.62
16.34
26.88
35.45
41.99
46.93
50.80
53.95
56.38
57.93
58.48
58.15
57.39
56.79
56.84
57.71
59.13
60.53
61.22
60.78
59.14
56.63
53.74
50.86
48.25
45.90
43.79
41.88
40.14
38.47
36.73
34.90
33.28
32.56
33.64
37.00
42.01
46.68
48.09
43.59
32.08
14.88
-4.46
-21.29
-31.33
-32.09
-23.44
-7.36
12.85
33.57
51.72
65.12
72.72
74.42
70.85
63.17
52.75
40.95
28.97
17.82
8.22
0.55
-5.16
-9.18
-11.91
-13.74
-14.82
-15.13
-14.58
-13.30
-11.65
-10.21
-9.58
-10.04
-11.46
-13.32
-15.06
-16.29
-17.04
-17.69
-18.79
-20.82
-23.90
-27.86
-32.18
-36.28
-39.69
-42.27
-44.24
-46.06
-48.25
-51.00
-54.08
-56.77
-58.09
-57.10
-53.27
-46.64
-37.78
-27.62
-17.16
-7.32
1.28
8.32
13.80
17.96
21.18
23.76
25.88
27.57
28.70
29.17
28.94
28.16
27.21
26.48
26.28
26.82
28.14
30.04
32.12
33.97
35.06
35.20
34.43
33.01
31.64
30.90
30.92
31.19
30.87
28.77
24.66
19.09
13.02
8.24
6.06
6.70
9.20
11.92
12.65
10.80
7.06
2.82
0.91
3.80
12.58
26.60
43.87
61.02
76.65
90.99
105.30
122.87
146.73
177.86
214.38
251.99
284.13
307.21
320.66
316.10
289.68
242.48
180.43
112.04
52.99
2.88
-43.17
-89.14
-135.79
-180.59
-216.41
-235.57
-233.17
-209.38
-171.28
-128.11
-89.44
-62.62
-49.68
-48.24
-54.15
-63.77
-75.04
-88.11
-101.53
-112.53
-117.93
-114.84
-102.57
-83.64
-62.92
-45.72
-36.06
-33.87
-35.74
-36.48
-30.61
-14.01
14.62
53.44
97.90
141.70
179.22
206.97
224.39
233.84
239.30
244.44
251.17
259.17
266.49
271.05
271.62
268.06
260.92
250.71
237.29
219.94
197.90
170.96
139.80
105.92
71.16
37.20
4.98
-25.35
-54.35
-82.89
-111.96
-142.30
-174.29
-207.72
-241.47
-273.51
-301.21
-321.88
-333.74
-336.56
-331.95
-322.96
-313.17
-305.73
-302.58
-304.09
-309.20
-315.81
-321.31
-323.23
-319.80
-310.41
-295.62
-276.88
-255.85
-233.76
-211.13
-187.86
-163.76
-139.12
-114.80
-92.09
-72.19
-55.68
-42.50
-32.08
-23.85
-17.43
-12.71
-9.53
-7.45
-5.68
-3.29
0.44
5.61
11.63
17.41
21.73
23.70
23.04
20.11
15.71
10.75
5.98
1.82
-1.59
-4.37
-6.75
-9.06
-11.68
-15.00
-19.30
-24.55
-30.24
-35.28
-38.23
-37.60
-32.38
-22.34
-8.28
8.16
24.92
40.03
52.11
60.63
65.84
68.51
69.46
69.36
68.60
67.25
65.41
63.21
60.97
59.15
58.15
58.21
59.24
60.83
62.44
63.58
63.96
63.58
62.56
61.04
58.90
55.85
51.53
45.73
38.64
30.76
22.78
15.34
8.79
3.14
-1.84
-6.53
-11.34
-16.64
-22.68
-29.48
-36.60
-43.16
-47.83
-49.24
-46.42
-39.28
-28.59
-15.76
-2.31
10.61
22.48
33.24
43.04
51.94
59.82
66.52
72.05
76.79
81.38
86.56
92.88
100.58
109.51
119.34
129.63
139.99
150.07
159.60
168.27
175.76
181.74
185.97
188.45
189.55
190.04
190.86
192.79
195.90
199.29
201.10
198.93
190.45
174.04
149.23
116.89
79.33
39.99
3.00
-27.70
-49.32
-60.93
-63.71
-60.33
-53.91
-46.99
-40.93
-36.09
-32.36
-29.76
-28.57
-29.00
-30.85
-33.35
-35.48
-36.49
-36.30
-35.56
-35.32
-36.51
-39.53
-44.04
-49.24
-54.24
-58.35
-61.31
-63.28
-64.63
-65.66
-66.36
-66.45
-65.48
-63.21
-59.84
-56.04
-52.75
-50.67
-50.00
-50.36
-51.02
-51.25
-50.65
-49.11
-46.68
-43.32
-38.94
-33.51
-27.25
-20.79
-14.95
-10.48
-7.76
-6.79
-7.24
-8.70
-10.90
-13.62
-16.69
-19.85
-22.68
-24.75
-25.70
-25.31
-23.65
-20.98
-17.69
-14.20
-10.90
-8.15
-6.17
-5.06
-4.71
-4.79
-4.85
-4.44
-3.44
-2.10
-1.14
-1.46
-3.77
-8.24
-14.48
-21.62
-28.59
-34.46
-38.53
-40.29
-39.43
-35.94
-30.06
-22.48
-14.22
-6.39
0.04
4.57
7.09
7.85
7.14
5.29
2.59
-0.64
-4.01
-7.17
-9.89
-12.19
-14.31
-16.62
-19.53
-23.35
-28.37
-34.90
-43.27
-53.74
-66.35
-80.73
-96.05
-111.22
-125.18
-137.35
-147.78
-157.15
-166.42
-176.44
-187.68
-200.30
-214.28
-229.57
-246.00
-263.02
-279.63
-294.50
-306.41
-314.69
-319.31
-320.30
-317.09
-308.07
-291.21
-265.39
-231.88
-194.71
-159.69
-132.05
-114.19
-104.73
-99.32
-92.89
-82.08
-66.50
-48.35
-30.91
-16.72
-6.75
-0.69
2.17
2.07
-1.53
-9.44
-21.92
-38.22
-56.45
-74.28
-89.65
-101.42
-109.55
-114.81
-118.22
-120.42
-121.40
-120.56
-117.04
-110.23
-100.07
-87.14
-72.41
-56.91
-41.35
-26.00
-10.72
4.89
21.27
38.85
57.99
78.87
101.30
124.51
147.15
167.52
184.02
195.67
202.43
205.03
204.78
203.05
200.97
199.24
198.21
197.92
198.18
198.69
199.06
198.91
197.95
196.01
193.01
188.98
184.05
178.37
172.04
165.06
157.30
148.59
138.82
128.00
116.20
103.43
89.55
74.50
58.60
42.86
29.08
19.45
15.89
19.38
29.47
44.48
61.93
79.38
94.91
107.44
116.63
122.59
125.62
126.17
124.81
122.37
119.80
118.03
117.60
118.42
119.72
120.29
118.97
115.10
108.73
100.60
91.67
82.76
74.21
65.94
57.66
49.23
40.83
32.77
25.33
18.53
12.00
5.27
-1.98
-9.72
-17.52
-24.78
-31.06
-36.22
-40.58
-44.74
-49.39
-55.03
-61.78
-69.19
-76.18
-81.29
-82.97
-80.18
-72.73
-61.49
-48.01
-33.98
-20.62
-8.38
2.93
13.69
24.01
33.43
41.18
46.54
49.29
49.88
49.33
48.79
49.14
50.74
53.35
56.41
59.20
61.17
62.07
62.03
61.45
60.76
60.44
60.57
60.76
60.11
57.53
52.12
43.48
31.77
17.81
2.99
-10.85
-21.85
-28.74
-31.36
-30.88
-29.47
-29.44
-32.24
-37.93
-45.21
-52.10
-56.70
-57.79
-54.85
-47.91
-37.24
-23.39
-7.38
9.26
24.78
37.67
46.89
52.15
53.82
52.71
49.86
46.24
42.64
39.59
37.29
35.64
34.34
33.05
31.45
29.32
26.52
23.00
18.76
13.91
8.66
3.35
-1.65
-6.01
-9.67
-12.79
-15.74
-18.93
-22.61
-26.78
-31.20
-35.48
-39.29
-42.45
-44.98
-47.06
-48.91
-50.77
-52.83
-55.20
-57.82
-60.26
-61.61
-60.60
-55.90
-46.66
-32.97
-16.00
2.37
20.16
35.83
48.64
58.50
65.66
70.40
72.91
73.36
72.08
69.64
66.84
64.49
63.19
63.18
64.18
65.55
66.53
66.52
65.34
63.22
60.70
58.30
56.30
54.67
53.15
51.50
49.58
47.40
44.99
42.17
38.45
33.16
25.74
16.11
4.89
-6.77
-17.57
-26.59
-33.68
-39.46
-45.01
-51.40
-59.33
-68.92
-79.64
-90.41
-99.67
-105.58
-106.47
-101.31
-90.18
-74.35
-55.95
-37.22
-19.90
-4.83
7.98
19.00
28.78
37.73
46.08
53.93
61.35
68.35
74.92
80.97
86.42
91.13
94.89
97.35
98.12
96.93
93.88
89.51
84.62
79.91
75.65
71.54
66.96
61.44
54.97
47.98
40.94
33.96
26.59
18.06
7.72
-4.42
-17.60
-30.52
-41.95
-51.15
-58.14
-63.62
-68.63
-74.17
-80.82
-88.60
-96.84
-104.32
-109.55
-111.23
-108.59
-101.60
-90.94
-77.77
-63.42
-49.04
-35.45
-23.03
-11.81
-1.58
7.81
16.14
22.61
26.05
25.45
20.77
13.37
5.74
0.55
-0.59
2.16
7.07
11.84
14.75
15.36
14.38
12.98
11.97
11.48
11.13
10.42
9.10
7.15
4.56
1.22
-3.11
-8.63
-15.33
-22.90
-30.74
-38.18
-44.62
-49.77
-53.69
-56.88
-60.20
-64.59
-70.82
-79.09
-88.76
-98.34
-105.74
-108.85
-106.35
-98.13
-85.40
-70.17
-54.50
-39.85
-26.82
-15.38
-5.25
3.65
11.13
16.92
20.95
23.52
25.23
26.79
28.72
31.35
34.75
38.89
43.66
48.87
54.24
59.36
63.78
66.97
68.48
67.98
65.36
60.84
54.97
48.50
42.23
36.80
32.60
29.69
27.85
26.64
25.49
23.77
21.02
17.25
13.07
9.57
7.90
8.63
11.31
14.51
16.37
15.48
11.59
5.86
0.40
-2.54
-1.35
4.49
14.40
27.07
40.87
54.13
65.33
73.21
77.05
76.94
73.86
69.46
65.53
63.39
63.52
65.71
69.54
74.93
82.34
92.77
107.15
125.85
148.35
173.01
197.49
219.23
236.13
247.10
252.34
253.14
251.26
248.31
245.20
242.02
238.35
233.58
227.15
218.55
207.24
192.62
174.28
152.32
127.52
101.22
74.95
49.90
26.50
4.35
-17.67
-41.03
-67.08
-96.48
-128.68
-161.75
-192.61
-217.85
-234.76
-242.22
-241.05
-233.56
-222.59
-210.56
-198.89
-188.06
-178.05
-168.86
-160.69
-153.82
-148.39
-144.22
-140.93
-138.15
-135.76
-133.95
-133.16
-133.76
-135.87
-139.25
-143.25
-147.01
-149.68
-150.70
-149.96
-147.86
-145.14
-142.55
-140.56
-139.16
-137.97
-136.48
-134.43
-132.03
-129.92
-128.87
-129.36
-131.24
-133.58
-134.89
-133.48
-127.96
-117.69
-102.95
-84.90
-65.22
-45.73
-27.93
-12.80
-0.76
8.22
14.46
18.40
20.54
21.37
21.35
20.91
20.45
20.29
20.74
21.97
23.99
26.56
29.26
31.55
33.05
33.56
33.11
31.73
29.39
25.86
20.97
14.74
7.62
0.39
-6.13
-11.41
-15.50
-19.01
-22.91
-28.06
-34.94
-43.39
-52.65
-61.52
-68.56
-72.38
-71.91
-66.70
-56.98
-43.70
-28.36
-12.62
2.00
14.49
24.51
32.27
38.37
43.47
47.99
52.03
55.49
58.23
60.30
62.06
64.04
66.70
70.21
74.32
78.47
82.02
84.55
86.01
86.70
87.04
87.40
87.92
88.57
89.25
89.95
90.78
91.81
92.72
92.73
90.53
84.78
74.67
60.36
42.99
24.33
6.17
-10.22
-24.08
-34.97
-42.52
-46.37
-46.40
-43.14
-37.84
-32.18
-27.55
-24.48
-22.44
-20.28
-16.96
-12.26
-6.91
-2.29
0.17
-0.37
-3.91
-9.72
-16.61
-23.34
-28.94
-32.86
-35.03
-35.82
-35.83
-35.79
-36.21
-37.26
-38.72
-40.09
-40.86
-40.70
-39.64
-37.99
-36.26
-34.85
-33.98
-33.46
-32.83
-31.40
-28.44
-23.38
-16.04
-6.83
3.16
12.30
18.76
20.97
18.24
11.01
0.80
-10.27
-20.08
-27.13
-30.86
-31.55
-30.09
-27.48
-24.63
-22.13
-20.36
-19.47
-19.47
-20.16
-21.12
-21.73
-21.41
-19.82
-17.03
-13.47
-9.88
-6.94
-5.13
-4.61
-5.26
-6.80
-8.90
-11.26
-13.59
-15.67
-17.34
-18.55
-19.35
-19.91
-20.46
-21.25
-22.42
-24.04
-25.99
-28.05
-30.04
-31.85
-33.50
-35.17
-37.06
-39.28
-41.83
-44.46
-46.71
-47.98
-47.66
-45.23
-40.45
-33.42
-24.61
-14.75
-4.66
4.93
13.46
20.52
25.85
29.24
30.59
29.96
27.65
24.15
20.04
15.85
11.98
8.62
5.81
3.65
2.33
2.27
3.95
7.79
13.84
21.66
30.32
38.61
45.38
49.90
52.04
52.23
51.23
49.70
47.99
45.94
42.98
38.48
31.98
23.47
13.38
2.37
-8.86
-19.74
-29.88
-38.90
-46.34
-51.66
-54.46
-54.63
-52.59
-49.27
-45.72
-42.79
-40.79
-39.47
-38.31
-36.79
-34.65
-31.89
-28.64
-25.03
-21.17
-17.38
-14.18
-12.27
-12.20
-14.08
-17.33
-20.87
-23.45
-24.07
-22.34
-18.57
-13.71
-9.17
-6.56
-7.33
-12.17
-20.71
-31.44
-42.23
-51.05
-56.69
-59.11
-59.24
-58.44
-58.14
-59.52
-63.58
-71.30
-83.52
-100.72
-122.61
-148.06
-175.15
-201.61
-225.18
-244.09
-257.20
-264.11
-265.08
-260.87
-252.52
-241.03
-227.09
-210.84
-191.97
-169.98
-144.76
-116.94
-88.14
-60.66
-36.81
-18.10
-4.68
4.65
11.82
18.66
26.11
34.02
41.37
46.86
49.45
48.55
44.10
36.31
25.49
12.10
-3.09
-18.94
-33.89
-46.28
-54.77
-58.76
-58.60
-55.36
-50.57
-45.60
-41.46
-38.76
-37.94
-39.52
-44.12
-52.06
-62.94
-75.23
-86.35
-93.27
-93.39
-85.43
-69.84
-48.63
-24.77
-1.33
19.30
35.89
48.38
57.62
64.83
71.14
77.24
83.32
89.23
94.73
99.71
104.27
108.61
112.81
116.69
119.82
121.70
122.03
120.81
118.42
115.36
112.00
108.41
104.35
99.59
94.29
89.23
85.76
85.30
88.65
95.51
104.44
113.26
119.76
122.32
120.23
113.56
102.95
89.43
74.53
60.32
49.33
43.93
45.59
54.22
68.16
84.77
101.61
117.29
131.83
146.12
160.84
175.60
188.73
197.96
201.53
199.25
192.88
185.74
181.71
183.90
193.62
209.63
228.20
244.02
251.67
247.20
229.09
198.50
158.67
113.74
67.82
24.39
-13.87
-45.08
-68.26
-83.64
-92.76
-98.33
-103.58
-111.38
-123.46
-140.04
-160.05
-181.65
-202.92
-222.28
-238.52
-250.61
-257.35
-257.27
-248.89
-231.36
-204.85
-170.49
-129.84
-84.16
-34.46
17.65
68.68
112.72
142.56
152.17
139.54
108.07
65.54
21.15
-17.92
-48.45
-70.85
-86.92
-97.52
-101.36
-95.76
-78.60
-50.13
-13.61
25.55
61.64
90.41
110.13
121.53
126.70
127.81
126.03
121.40
113.35
101.71
87.39
72.29
58.62
47.79
39.68
32.79
24.99
14.67
1.64
-12.67
-25.74
-34.87
-38.26
-35.56
-27.92
-17.49
-6.66
2.67
9.50
13.75
15.98
16.93
17.25
17.25
17.04
16.65
16.26
16.26
17.27
19.93
24.65
31.36
39.43
47.76
55.23
61.01
64.92
67.32
68.87
70.04
70.76
70.49
68.53
64.45
58.56
51.78
45.40
40.41
37.12
34.99
32.96
29.97
25.43
19.42
12.40
4.89
-2.85
-10.77
-18.59
-25.51
-30.09
-30.70
-26.32
-17.24
-5.18
7.19
17.31
23.60
26.01
25.70
24.30
23.11
22.63
22.62
22.48
21.71
20.22
18.35
16.64
15.55
15.29
15.72
16.43
16.98
16.98
16.30
15.08
13.60
12.19
10.97
9.88
8.65
6.98
4.70
1.75
-1.78
-5.79
-10.20
-14.94
-19.88
-24.86
-29.68
-34.23
-38.61
-43.09
-47.93
-53.19
-58.45
-62.81
-64.99
-63.83
-58.61
-49.45
-37.27
-23.51
-9.64
3.21
14.45
23.94
31.70
37.76
42.07
44.61
45.60
45.51
44.91
44.27
43.79
43.38
42.87
42.05
40.91
39.51
37.96
36.32
34.58
32.72
30.67
28.41
25.88
22.91
19.31
14.93
9.73
3.89
-2.20
-8.03
-13.16
-17.38
-20.77
-23.70
-26.70
-30.38
-35.16
-41.28
-48.61
-56.56
-64.06
-69.66
-71.86
-69.53
-62.33
-50.93
-36.88
-22.12
-8.42
3.15
12.33
19.50
25.24
29.90
33.50
35.87
36.84
36.58
35.54
34.35
33.51
33.24
33.43
33.79
34.00
33.88
33.30
32.25
30.77
29.01
27.26
25.89
25.13
24.92
24.81
24.03
21.82
17.72
11.72
4.22
-4.13
-12.65
-20.59
-27.28
-32.17
-35.05
-36.36
-37.15
-38.85
-42.54
-48.44
-55.48
-61.69
-64.91
-63.67
-57.74
-48.08
-36.35
-24.16
-12.60
-2.16
7.10
15.14
21.85
27.00
30.45
32.30
32.92
32.80
32.42
32.10
31.97
32.00
32.03
31.86
31.26
30.08
28.28
25.99
23.52
21.17
19.16
17.54
16.12
14.61
12.64
9.90
6.19
1.46
-4.15
-10.34
-16.69
-22.81
-28.42
-33.43
-37.91
-42.02
-45.99
-50.05
-54.41
-59.15
-64.19
-69.06
-72.87
-74.42
-72.51
-66.33
-55.85
-41.97
-26.26
-10.54
3.64
15.41
24.61
31.60
36.90
40.89
43.77
45.60
46.49
46.68
46.56
46.50
46.71
47.20
47.82
48.39
48.80
49.08
49.30
49.59
50.02
50.60
51.24
51.78
51.97
51.52
50.18
47.85
44.63
40.85
36.98
33.41
30.22
27.06
23.25
18.16
11.57
3.93
-3.72
-10.22
-14.89
-17.90
-20.15
-22.79
-26.38
-30.48
-33.62
-33.86
-29.61
-20.25
-6.34
10.61
28.69
46.00
61.06
73.13
82.27
89.49
96.64
106.11
120.28
140.77
167.64
199.00
231.33
260.38
282.59
296.24
301.79
301.43
297.91
293.38
288.72
283.63
277.36
269.35
259.62
248.48
236.06
222.01
205.59
186.18
163.79
139.24
113.91
89.24
66.04
44.26
23.00
0.93
-23.17
-50.19
-80.36
-113.23
-147.46
-180.80
-210.23
-232.72
-246.05
-249.75
-245.25
-235.45
-223.49
-211.77
-201.31
-192.01
-183.39
-175.29
-168.12
-162.59
-159.15
-157.57
-156.98
-156.21
-154.29
-150.77
-145.77
-139.80
-133.42
-126.98
-120.61
-114.35
-108.33
-102.90
-98.50
-95.46
-93.81
-93.20
-93.12
-93.08
-92.92
-92.75
-92.75
-92.95
-93.09
-92.69
-91.31
-88.84
-85.62
-82.34
-79.76
-78.44
-78.56
-79.80
-81.48
-82.66
-82.32
-79.63
-74.14
-66.03
-56.13
-45.78
-36.40
-29.12
-24.39
-21.89
-20.81
-20.19
-19.31
-17.87
-15.96
-13.91
-12.00
-10.36
-8.91
-7.55
-6.19
-4.91
-3.90
-3.38
-3.48
-4.20
-5.38
-6.78
-8.21
-9.54
-10.80
-12.02
-13.31
-14.69
-16.18
-17.76
-19.42
-21.21
-23.20
-25.45
-27.92
-30.47
-32.93
-35.21
-37.45
-39.97
-43.18
-47.24
-51.91
-56.38
-59.55
-60.34
-58.12
-52.89
-45.14
-35.71
-25.38
-14.83
-4.62
4.68
12.51
18.39
22.14
23.96
24.36
23.96
23.23
22.42
21.57
20.70
19.96
19.54
19.62
20.18
20.93
21.41
21.13
19.81
17.40
14.15
10.37
6.44
2.57
-1.22
-5.00
-8.82
-12.62
-16.11
-18.89
-20.64
-21.30
-21.16
-20.78
-20.83
-21.82
-24.02
-27.39
-31.55
-35.82
-39.23
-40.64
-38.95
-33.40
-23.93
-11.27
3.14
17.65
30.83
41.89
50.80
58.03
64.16
69.35
73.16
74.59
72.55
66.33
56.07
42.77
27.94
13.11
-0.59
-12.71
-23.21
-32.09
-38.89
-42.71
-42.60
-38.13
-29.96
-19.81
-9.87
-2.04
2.81
4.92
5.30
4.98
4.42
3.44
1.55
-1.56
-5.66
-10.06
-13.98
-16.86
-18.56
-19.25
-19.18
-18.52
-17.32
-15.56
-13.17
-10.09
-6.24
-1.52
4.07
10.25
16.36
21.39
24.15
23.67
19.44
11.69
1.31
-10.33
-21.69
-31.39
-38.46
-42.43
-43.38
-41.87
-38.74
-35.00
-31.58
-29.16
-28.04
-28.17
-29.19
-30.65
-32.19
-33.68
-35.12
-36.62
-38.18
-39.70
-41.07
-42.22
-43.23
-44.33
-45.87
-48.15
-51.41
-55.68
-60.68
-65.71
-69.67
-71.17
-68.86
-61.94
-50.51
-35.73
-19.45
-3.73
9.82
20.42
28.11
33.43
36.93
38.93
39.43
38.46
36.21
33.28
30.45
28.44
27.62
27.84
28.55
29.05
28.81
27.60
25.54
22.93
20.10
17.18
14.10
10.63
6.55
1.78
-3.55
-9.11
-14.51
-19.45
-23.79
-27.55
-30.84
-33.85
-36.81
-40.07
-44.01
-48.95
-54.79
-60.85
-65.77
-67.81
-65.45
-57.98
-45.89
-30.84
-15.07
-0.62
11.18
20.07
26.49
31.24
34.89
37.63
39.32
39.77
39.03
37.50
35.76
34.42
33.85
34.09
34.89
35.82
36.46
36.51
35.82
34.35
32.15
29.32
25.95
22.11
17.79
12.92
7.47
1.52
-4.70
-10.81
-16.44
-21.37
-25.67
-29.65
-33.76
-38.45
-44.02
-50.54
-57.89
-65.69
-73.23
-79.42
-82.83
-82.07
-76.18
-65.15
-50.05
-32.84
-15.76
-0.70
11.33
20.24
26.60
31.12
34.27
36.24
37.04
36.84
36.08
35.38
35.27
36.02
37.50
39.30
40.98
42.17
42.74
42.64
41.85
40.27
37.79
34.42
30.32
25.81
21.25
16.82
12.50
8.11
3.40
-1.74
-7.24
-12.83
-18.16
-23.00
-27.35
-31.49
-35.92
-41.29
-48.09
-56.43
-65.70
-74.59
-81.21
-83.68
-80.69
-71.97
-58.39
-41.68
-23.84
-6.60
8.89
22.11
32.99
41.63
48.20
52.88
55.87
57.48
58.08
58.17
58.27
58.93
60.54
63.23
66.85
70.93
74.89
78.16
80.34
81.23
80.87
79.45
77.32
74.84
72.38
70.18
68.31
66.65
65.05
63.44
61.92
60.74
60.24
60.62
61.85
63.57
65.17
66.03
65.81
64.84
64.31
66.14
72.44
84.72
103.24
126.64
152.12
176.03
194.76
205.45
206.49
197.79
180.60
157.29
130.86
104.32
80.05
59.35
42.40
28.51
16.68
6.03
-3.97
-13.58
-22.90
-32.00
-40.83
-49.13
-56.37
-62.08
-66.01
-68.49
-70.28
-72.30
-75.20
-78.97
-82.93
-86.05
-87.38
-86.56
-83.93
-80.36
-76.86
-74.16
-72.52
-71.77
-71.58
-71.67
-71.87
-72.08
-72.04
-71.31
-69.45
-66.19
-61.61
-56.11
-50.27
-44.54
-39.23
-34.46
-30.22
-26.50
-23.31
-20.70
-18.76
-17.63
-17.42
-18.12
-19.33
-20.25
-19.85
-17.15
-11.75
-4.03
4.88
13.47
20.29
24.42
25.63
24.42
21.74
18.72
16.41
15.42
15.84
17.22
18.70
19.38
18.58
16.10
12.25
7.87
4.09
2.14
2.84
6.14
10.68
13.78
12.18
3.19
-13.80
-36.71
-61.19
-82.09
-95.45
-99.85
-96.59
-88.66
-79.20
-70.29
-62.57
-55.79
-49.58
-43.96
-39.28
-35.94
-34.02
-33.27
-33.41
-34.41
-36.65
-40.71
-47.08
-55.76
-66.09
-76.89
-86.80
-94.70
-100.13
-103.34
-105.24
-106.99
-109.65
-113.81
-119.63
-126.94
-135.51
-145.18
-155.81
-167.11
-178.39
-188.58
-196.42
-200.94
-201.87
-199.90
-196.58
-193.68
-192.50
-193.13
-194.34
-194.06
-190.21
-181.65
-168.65
-152.79
-136.28
-121.31
-109.45
-101.64
-98.29
-99.53
-105.14
-114.49
-126.36
-139.01
-150.56
-159.46
-164.89
-166.72
-165.23
-160.72
-153.14
-142.07
-127.10
-108.20
-86.07
-62.04
-37.70
-14.37
7.35
27.72
47.63
68.35
91.31
117.80
148.44
182.47
217.23
248.23
270.32
279.52
274.71
258.23
234.79
209.52
186.01
165.55
147.84
132.51
120.22
112.65
111.41
116.69
126.66
138.03
147.47
152.93
154.26
152.91
150.88
149.68
149.82
150.82
151.79
151.81
150.21
146.65
141.05
133.48
124.30
114.10
103.71
93.95
85.52
78.84
74.06
71.14
69.81
69.61
69.80
69.42
67.56
63.63
57.52
49.64
40.73
31.62
23.03
15.49
9.19
4.02
-0.46
-4.90
-9.98
-16.15
-23.29
-30.59
-36.71
-40.05
-39.25
-33.67
-23.57
-10.07
5.26
20.79
35.21
47.73
58.06
66.14
71.97
75.48
76.57
75.30
72.07
67.76
63.55
60.61
59.69
60.83
63.36
66.17
68.16
68.59
67.30
64.66
61.25
57.62
54.00
50.29
46.15
41.20
35.23
28.33
20.94
13.62
6.97
1.36
-3.15
-6.84
-10.22
-13.95
-18.66
-24.77
-32.28
-40.67
-48.79
-55.13
-58.10
-56.58
-50.21
-39.65
-26.30
-12.02
1.47
12.97
21.98
28.63
33.35
36.61
38.69
39.64
39.49
38.45
37.02
35.86
35.55
36.29
37.78
39.36
40.33
40.31
39.39
37.99
36.59
35.43
34.35
32.92
30.60
27.06
22.25
16.46
10.19
3.91
-2.00
-7.48
-12.69
-18.03
-23.95
-30.77
-38.48
-46.51
-53.77
-58.86
-60.38
-57.46
-50.07
-39.01
-25.73
-11.84
1.33
12.90
22.49
29.97
35.31
38.51
39.71
39.28
37.91
36.44
35.62
35.84
37.00
38.52
39.72
40.00
39.20
37.58
35.64
33.83
32.30
30.80
28.77
25.57
20.89
14.83
7.96
1.05
-5.18
-10.33
-14.43
-17.85
-21.16
-24.98
-29.80
-35.89
-43.10
-50.72
-57.49
-61.80
-62.10
-57.48
-48.05
-35.05
-20.41
-6.19
6.08
15.71
22.82
27.97
31.79
34.65
36.62
37.62
37.63
36.87
35.79
34.87
34.52
34.77
35.34
35.81
35.77
35.07
33.81
32.27
30.66
28.93
26.80
23.85
19.86
14.91
9.43
3.92
-1.20
-5.80
-10.03
-14.13
-18.35
-22.87
-27.86
-33.55
-40.12
-47.49
-55.03
-61.52
-65.36
-65.11
-60.01
-50.34
-37.40
-23.03
-9.03
3.31
13.45
21.47
27.71
32.49
35.93
37.96
38.62
38.13
36.96
35.74
34.99
34.95
35.52
36.38
37.14
37.50
37.31
36.56
35.25
33.40
30.99
28.01
24.44
20.33
15.81
11.02
6.17
1.44
-3.01
-7.15
-10.97
-14.61
-18.16
-21.72
-25.46
-29.61
-34.50
-40.40
-47.20
-54.21
-60.16
-63.48
-62.82
-57.60
-48.24
-36.05
-22.79
-10.04
1.13
10.28
17.42
22.77
26.49
28.71
29.56
29.27
28.22
26.93
25.88
25.39
25.57
26.31
27.38
28.53
29.55
30.34
30.84
30.95
30.52
29.37
27.35
24.42
20.73
16.60
12.40
8.44
4.80
1.37
-2.13
-5.93
-10.07
-14.32
-18.24
-21.45
-23.83
-25.77
-28.03
-31.47
-36.58
-43.04
-49.55
-54.10
-54.62
-49.65
-38.99
-23.84
-6.41
10.79
25.83
37.86
47.27
55.20
62.94
71.22
79.92
88.27
95.37
100.67
104.44
107.77
112.19
119.26
130.12
145.18
163.88
184.58
204.65
220.89
230.27
230.80
222.22
205.93
184.40
160.13
134.62
107.91
78.88
46.26
9.94
-28.02
-63.40
-90.89
-106.05
-107.26
-96.69
-79.80
-63.44
-53.38
-52.57
-60.66
-75.09
-92.65
-110.76
-127.89
-143.23
-156.01
-165.31
-170.46
-171.69
-170.57
-169.69
-171.69
-178.01
-188.13
-199.80
-210.09
-216.73
-219.03
-217.74
-214.12
-208.83
-201.41
-190.52
-174.91
-154.06
-128.35
-98.63
-65.72
-30.47
5.89
41.33
73.19
98.91
116.95
127.34
131.51
131.53
129.21
125.70
121.56
117.11
112.56
107.71
101.62
92.63
78.94
59.55
34.96
7.20
-20.94
-46.79
-68.59
-85.37
-96.45
-100.94
-97.77
-86.25
-66.96
-42.16
-15.43
9.35
29.29
43.20
51.60
56.08
58.30
59.31
59.28
57.64
53.47
45.93
34.60
19.76
2.64
-14.63
-29.26
-38.54
-40.85
-36.46
-27.54
-17.63
-10.29
-7.94
-11.32
-19.59
-30.85
-42.62
-52.09
-56.36
-53.14
-41.63
-23.34
-2.04
17.41
31.05
37.38
37.80
35.47
33.41
33.10
34.28
36.04
38.12
41.47
47.49
56.68
67.57
77.00
81.60
79.48
71.13
59.12
46.50
35.26
25.55
16.02
5.09
-7.83
-21.87
-35.00
-44.95
-50.27
-50.82
-47.74
-43.01
-38.72
-36.44
-36.80
-39.50
-43.64
-48.37
-53.40
-59.24
-67.02
-78.07
-93.35
-113.20
-137.01
-163.11
-188.79
-210.57
-224.81
-228.66
-220.97
-202.71
-176.72
-146.63
-115.52
-84.91
-54.54
-23.09
10.38
45.36
79.54
109.67
132.89
148.10
156.42
160.66
164.14
169.33
177.18
187.28
198.62
210.32
221.83
232.45
240.79
244.58
241.33
229.38
208.88
181.82
151.32
120.29
90.41
61.90
34.17
6.89
-19.15
-42.07
-59.45
-69.39
-71.23
-65.85
-55.24
-41.94
-28.50
-16.97
-8.75
-4.56
-4.60
-8.58
-15.89
-25.70
-37.04
-48.99
-60.89
-72.47
-83.92
-95.71
-108.35
-121.93
-135.89
-149.02
-159.76
-166.78
-169.48
-168.41
-165.05
-161.36
-158.99
-158.78
-160.74
-164.42
-169.47
-175.63
-182.48
-188.78
-192.12
-189.29
-177.30
-154.47
-121.02
-78.91
-31.18
18.70
67.21
110.89
146.69
172.42
187.51
193.20
192.16
187.50
181.50
175.01
167.52
157.91
145.31
129.63
111.59
92.42
73.48
55.81
39.95
25.86
12.95
0.48
-12.12
-24.96
-37.62
-49.21
-58.59
-64.64
-66.43
-63.47
-55.82
-44.18
-29.85
-14.45
0.44
13.59
24.33
32.49
38.18
41.65
43.23
43.43
42.99
42.84
43.81
46.26
49.83
53.35
55.09
53.25
46.58
34.75
18.57
-0.23
-19.42
-36.82
-50.75
-60.32
-65.45
-66.76
-65.28
-62.16
-58.29
-54.12
-49.55
-44.14
-37.33
-28.84
-18.94
-8.62
0.52
6.70
8.35
4.72
-3.80
-15.50
-27.68
-37.41
-42.46
-42.19
-37.77
-31.80
-27.22
-26.16
-29.19
-35.23
-42.31
-48.51
-52.84
-55.53
-57.80
-61.35
-67.69
-77.78
-91.64
-108.11
-124.80
-138.46
-145.85
-144.66
-134.42
-116.67
-94.41
-70.94
-48.69
-28.42
-9.10
11.43
35.35
63.52
94.66
125.24
150.42
165.71
168.58
159.30
140.55
116.04
88.96
61.26
33.97
7.98
-15.10
-33.18
-44.37
-47.80
-43.74
-32.92
-15.63
8.64
40.48
79.39
122.55
164.76
199.61
221.70
228.45
220.86
202.60
178.19
151.20
123.56
96.09
69.59
45.78
27.11
15.71
12.15
14.81
20.49
25.75
28.26
27.43
24.00
19.05
13.18
6.22
-2.37
-12.87
-24.84
-37.12
-48.29
-57.21
-63.62
-68.16
-72.07
-76.69
-82.97
-91.28
-101.45
-113.08
-125.80
-139.31
-153.12
-166.31
-177.35
-184.33
-185.32
-178.88
-164.46
-142.67
-115.33
-85.28
-55.81
-29.94
-9.69
4.37
13.09
18.12
21.26
23.83
26.58
29.80
33.60
38.06
43.07
48.31
53.34
57.89
62.26
67.31
74.08
83.21
94.54
106.99
119.16
129.85
138.44
144.72
148.44
148.89
144.80
134.93
118.75
96.94
71.44
44.80
19.28
-3.87
-24.51
-43.13
-59.96
-74.34
-84.79
-89.59
-87.77
-79.91
-68.24
-56.02
-46.36
-41.09
-40.08
-41.47
-42.43
-40.46
-34.39
-24.93
-14.37
-5.56
-0.78
-0.81
-4.69
-10.30
-15.45
-18.73
-19.99
-19.98
-19.75
-19.96
-20.60
-21.08
-20.70
-18.95
-15.78
-11.67
-7.53
-4.58
-4.04
-6.71
-12.44
-19.84
-26.49
-29.74
-27.92
-21.26
-12.16
-4.40
-1.81
-6.91
-20.22
-40.35
-64.61
-89.87
-112.96
-130.92
-141.23
-142.31
-134.03
-118.19
-98.27
-78.56
-62.92
-53.65
-50.95
-53.06
-56.98
-59.10
-55.99
-44.93
-24.60
4.40
39.31
75.65
108.34
133.30
148.66
155.23
155.69
153.31
150.59
148.57
147.15
145.76
144.07
142.24
140.53
138.96
137.08
134.17
129.66
123.53
116.34
109.12
102.79
97.81
93.77
89.59
83.92
75.81
65.31
53.62
42.60
34.06
28.91
26.83
26.55
26.53
25.71
23.88
21.54
19.47
18.24
18.08
18.97
20.88
23.87
28.08
33.45
39.63
45.79
50.92
54.14
55.08
54.13
52.40
51.38
52.46
56.41
63.21
72.13
81.98
91.49
99.66
105.77
109.55
111.08
110.85
109.54
107.74
105.64
102.94
98.93
92.97
84.94
75.64
66.79
60.70
59.71
65.53
78.66
97.98
120.59
142.12
157.61
162.64
154.47
132.66
99.01
56.67
9.15
-40.28
-88.68
-133.09
-170.41
-197.83
-213.94
-219.40
-217.03
-210.79
-204.28
-199.41
-196.18
-193.39
-189.78
-184.95
-179.33
-173.65
-168.16
-162.43
-155.59
-146.90
-136.23
-124.05
-111.37
-99.63
-90.60
-86.19
-88.02
-96.83
-112.24
-132.80
-156.55
-181.72
-207.02
-231.60
-254.54
-274.63
-290.49
-301.15
-306.64
-308.19
-307.90
-307.91
-309.57
-312.90
-316.56
-318.20
-315.12
-304.98
-286.52
-259.83
-226.54
-189.39
-151.54
-115.99
-84.72
-58.48
-36.66
-17.70
0.40
19.55
41.06
65.40
92.22
120.49
148.69
175.12
198.00
215.68
226.92
231.15
228.68
220.82
209.63
197.46
186.39
177.65
171.49
167.22
163.73
160.03
155.67
150.85
146.18
142.37
139.81
138.39
137.54
136.35
133.88
129.45
123.04
115.61
109.21
106.75
111.20
124.48
146.38
173.94
201.81
223.59
233.74
229.42
211.43
183.76
152.03
121.44
95.16
73.92
56.67
41.92
28.90
17.95
10.20
6.70
7.74
12.70
20.25
29.03
37.97
46.53
54.57
62.08
68.96
74.92
79.60
82.73
84.28
84.49
83.75
82.52
81.07
79.44
77.44
74.69
70.55
64.35
55.55
44.01
30.29
15.61
1.57
-10.26
-18.82
-23.66
-24.80
-22.48
-16.97
-8.70
1.56
12.59
22.91
31.18
36.53
38.82
38.44
36.06
32.24
27.28
21.22
14.01
5.67
-3.51
-12.93
-21.75
-29.17
-34.59
-38.00
-39.97
-41.48
-43.58
-46.91
-51.48
-56.68
-61.51
-65.06
-66.82
-66.78
-65.34
-63.01
-60.27
-57.43
-54.80
-52.72
-51.65
-52.05
-54.25
-58.31
-63.96
-70.58
-77.39
-83.47
-88.01
-90.36
-90.19
-87.51
-82.70
-76.47
-69.70
-63.29
-57.95
-54.11
-51.70
-50.25
-49.01
-47.28
-44.66
-41.23
-37.42
-33.76
-30.57
-27.76
-24.94
-21.65
-17.64
-13.09
-8.51
-4.62
-2.09
-1.34
-2.49
-5.36
-9.58
-14.66
-20.07
-25.35
-30.21
-34.50
-38.14
-41.14
-43.46
-45.11
-46.12
-46.60
-46.77
-46.88
-47.20
-47.85
-48.83
-49.97
-50.91
-51.19
-50.32
-47.89
-43.73
-38.06
-31.45
-24.70
-18.64
-13.89
-10.72
-9.15
-9.00
-10.06
-12.05
-14.64
-17.34
-19.57
-20.87
-21.09
-20.53
-19.83
-19.65
-20.43
-22.16
-24.47
-26.87
-28.97
-30.65
-32.00
-33.21
-34.47
-35.86
-37.37
-38.93
-40.39
-41.62
-42.49
-42.92
-42.92
-42.57
-42.08
-41.70
-41.68
-42.13
-42.87
-43.44
-43.03
-40.83
-36.24
-29.13
-20.06
-10.04
-0.39
7.78
13.79
17.58
19.55
20.28
20.29
19.83
18.92
17.54
15.74
13.79
12.03
10.78
10.08
9.74
9.32
8.44
6.92
4.83
2.51
0.37
-1.29
-2.41
-3.17
-3.91
-4.97
-6.49
-8.35
-10.17
-11.44
-11.78
-11.03
-9.46
-7.66
-6.37
-6.30
-7.86
-11.08
-15.49
-20.20
-23.97
-25.49
-23.78
-18.45
-10.06
-0.07
9.50
16.67
20.20
19.90
16.59
11.63
6.33
1.46
-2.69
-6.14
-8.69
-9.78
-8.66
-4.78
1.70
9.75
17.74
24.03
27.53
27.95
25.68
21.46
16.09
10.16
4.15
-1.69
-7.31
-13.02
-19.40
-27.09
-36.44
-47.17
-58.43
-69.01
-77.90
-84.65
-89.53
-93.45
-97.61
-103.25
-111.40
-122.76
-137.40
-154.70
-173.41
-191.84
-208.49
-222.58
-234.48
-245.55
-257.53
-271.63
-287.90
-305.00
-320.59
-332.34
-338.64
-339.12
-334.44
-325.72
-313.93
-299.57
-282.81
-263.86
-243.35
-222.34
-202.08
-183.52
-166.98
-152.12
-138.25
-124.72
-111.32
-98.22
-85.86
-74.57
-64.38
-55.05
-46.14
-37.21
-28.03
-18.55
-8.97
0.46
9.43
17.70
25.15
31.76
37.67
43.08
48.26
53.43
58.68
63.94
69.03
73.78
78.15
82.32
86.70
91.82
98.19
106.24
116.25
128.30
142.02
156.46
170.00
180.73
187.07
188.45
185.76
181.02
176.58
174.15
174.11
175.60
177.09
177.28
175.63
172.41
168.31
163.89
159.26
154.01
147.58
139.54
129.90
119.16
108.14
97.68
88.38
80.45
73.72
67.68
61.76
55.36
47.95
39.11
28.73
17.20
5.67
-3.99
-9.52
-8.99
-1.49
12.39
30.63
50.37
68.83
84.14
95.60
103.47
108.47
111.26
112.22
111.58
109.63
106.92
104.23
102.28
101.50
101.87
102.98
104.24
105.15
105.39
104.89
103.71
101.91
99.41
96.03
91.50
85.61
78.32
69.92
60.92
52.04
43.93
37.00
31.21
26.12
20.98
14.96
7.43
-1.86
-12.52
-23.53
-33.28
-39.85
-41.45
-36.95
-26.27
-10.57
8.05
27.12
44.48
58.81
69.73
77.51
82.64
85.57
86.50
85.67
83.46
80.58
77.96
76.48
76.61
78.24
80.65
82.87
83.96
83.39
81.17
77.71
73.57
69.13
64.43
59.24
53.22
46.18
38.20
29.61
20.88
12.43
4.53
-2.73
-9.50
-16.03
-22.73
-30.05
-38.43
-48.06
-58.73
-69.55
-79.01
-85.15
-86.18
-81.00
-69.77
-53.87
-35.54
-17.20
-0.77
12.73
23.22
31.11
36.94
41.05
43.56
44.52
44.19
43.09
41.96
41.47
42.08
43.80
46.27
48.93
51.21
52.74
53.39
53.22
52.35
50.81
48.49
45.23
40.90
35.56
29.52
23.28
17.43
12.40
8.35
5.09
2.19
-0.97
-4.95
-10.33
-17.47
-26.46
-36.86
-47.55
-56.74
-62.38
-62.73
-57.02
-45.81
-30.80
-14.33
1.46
15.13
26.14
34.60
40.94
45.53
48.59
50.30
50.87
50.67
50.09
49.54
49.28
49.40
49.83
50.34
50.67
50.55
49.80
48.34
46.21
43.48
40.23
36.44
32.04
26.96
21.20
14.90
8.33
1.78
-4.46
-10.25
-15.64
-20.78
-25.96
-31.51
-37.84
-45.25
-53.86
-63.34
-72.80
-80.77
-85.54
-85.65
-80.39
-70.21
-56.53
-41.39
-26.71
-13.87
-3.39
4.85
11.24
16.16
19.71
21.77
22.25
21.28
19.34
17.24
15.89
16.06
18.04
21.60
26.07
30.57
34.31
36.84
38.04
38.14
37.47
36.41
35.25
34.25
33.57
33.24
33.15
33.09
32.81
32.07
30.76
28.82
26.20
22.82
18.61
13.64
8.13
2.45
-3.01
-7.91
-12.15
-15.84
-19.23
-22.65
-26.44
-30.94
-36.35
-42.71
-49.64
-56.24
-61.16
-62.87
-60.22
-52.85
-41.42
-27.53
-13.18
-0.16
10.42
18.31
23.92
27.85
30.54
32.16
32.69
32.23
31.10
29.85
29.06
29.10
29.97
31.33
32.66
33.56
33.81
33.44
32.55
31.19
29.30
26.69
23.15
18.56
13.02
6.85
0.53
-5.42
-10.62
-14.96
-18.64
-22.06
-25.74
-30.16
-35.66
-42.38
-50.09
-58.13
-65.37
-70.37
-71.71
-68.47
-60.63
-49.11
-35.61
-21.97
-9.68
0.52
8.57
14.89
19.95
24.01
27.10
29.13
30.05
30.05
29.52
28.91
28.58
28.62
28.88
29.02
28.71
27.73
26.09
23.92
21.47
18.87
16.16
13.24
9.96
6.22
2.00
-2.59
-7.36
-12.06
-16.45
-20.42
-23.97
-27.24
-30.44
-33.90
-37.97
-42.94
-48.89
-55.51
-61.98
-67.03
-69.24
-67.43
-61.18
-50.97
-38.12
-24.36
-11.34
-0.12
8.90
15.87
21.24
25.41
28.56
30.72
31.91
32.23
31.99
31.63
31.51
31.82
32.48
33.20
33.61
33.43
32.53
30.98
28.93
26.54
23.90
21.02
17.83
14.27
10.30
5.99
1.44
-3.15
-7.58
-11.67
-15.31
-18.51
-21.44
-24.42
-27.86
-32.17
-37.54
-43.77
-50.19
-55.67
-58.91
-58.75
-54.60
-46.68
-35.95
-23.85
-11.85
-1.12
7.70
14.52
19.52
22.99
25.20
26.31
26.51
26.06
25.31
24.66
24.41
24.69
25.39
26.25
26.96
27.20
26.83
25.80
24.25
22.33
20.21
17.95
15.51
12.72
9.41
5.50
1.06
-3.68
-8.40
-12.76
-16.58
-19.83
-22.73
-25.64
-29.00
-33.19
-38.43
-44.60
-51.22
-57.36
-61.84
-63.46
-61.39
-55.45
-46.21
-34.86
-22.83
-11.42
-1.53
6.46
12.52
16.84
19.59
20.87
20.81
19.65
17.81
15.84
14.31
13.60
13.85
14.85
16.24
17.56
18.48
18.92
18.90
18.55
17.91
16.84
15.08
12.36
8.57
3.89
-1.27
-6.43
-11.16
-15.24
-18.71
-21.79
-24.81
-28.15
-32.15
-36.96
-42.47
-48.12
-52.89
-55.51
-54.84
-50.28
-42.07
-31.24
-19.28
-7.71
2.35
10.37
16.26
20.23
22.57
23.55
23.41
22.45
21.05
19.70
18.80
18.63
19.20
20.25
21.37
22.13
22.29
21.80
20.86
19.72
18.52
17.21
15.57
13.28
10.13
6.15
1.64
-2.92
-7.05
-10.47
-13.22
-15.63
-18.16
-21.28
-25.36
-30.58
-36.86
-43.88
-50.91
-56.91
-60.63
-60.99
-57.43
-50.13
-40.04
-28.57
-17.20
-7.04
1.35
7.90
12.85
16.56
19.25
21.09
22.18
22.73
23.01
23.36
24.02
25.08
26.44
27.84
28.99
29.61
29.54
28.74
27.28
25.29
22.92
20.29
17.42
14.23
10.63
6.59
2.20
-2.30
-6.66
-10.65
-14.24
-17.51
-20.66
-23.90
-27.49
-31.66
-36.63
-42.44
-48.76
-54.84
-59.49
-61.43
-59.69
-54.02
-44.97
-33.81
-22.09
-11.18
-1.95
5.33
10.88
15.14
18.47
21.05
22.89
23.96
24.33
24.26
24.15
24.33
25.01
26.13
27.49
28.81
29.83
30.40
30.42
29.78
28.42
26.32
23.58
20.48
17.30
14.25
11.38
8.52
5.46
2.05
-1.71
-5.66
-9.60
-13.38
-17.02
-20.62
-24.43
-28.67
-33.52
-39.05
-45.04
-50.95
-55.84
-58.57
-58.09
-53.82
-45.91
-35.30
-23.46
-11.94
-1.95
5.94
11.68
15.63
18.19
19.72
20.45
20.61
20.49
20.41
20.67
21.42
22.61
24.01
25.44
26.75
27.89
28.84
29.53
29.78
29.34
28.04
25.82
22.86
19.47
16.00
12.69
9.60
6.58
3.40
-0.12
-4.01
-8.09
-12.06
-15.64
-18.70
-21.34
-23.87
-26.77
-30.46
-35.22
-40.99
-47.24
-53.02
-57.09
-58.21
-55.51
-48.86
-38.97
-27.21
-15.29
-4.69
3.69
9.70
13.73
16.42
18.32
19.67
20.50
20.72
20.39
19.78
19.27
19.26
19.95
21.25
22.85
24.35
25.41
25.84
25.61
24.78
23.41
21.51
19.12
16.34
13.34
10.33
7.47
4.76
2.07
-0.80
-3.98
-7.44
-10.97
-14.27
-17.15
-19.59
-21.84
-24.35
-27.61
-31.90
-37.20
-42.94
-48.16
-51.65
-52.28
-49.35
-42.83
-33.38
-22.21
-10.75
-0.27
8.36
14.79
19.09
21.60
22.78
23.07
22.85
22.43
21.99
21.66
21.47
21.48
21.73
22.32
23.28
24.56
25.94
27.04
27.45
26.83
25.04
22.25
18.89
15.54
12.73
10.65
9.15
7.67
5.54
2.30
-2.03
-6.90
-11.36
-14.57
-16.18
-16.59
-16.88
-18.34
-21.96
-27.94
-35.55
-43.18
-48.72
-49.96
-45.04
-33.18
-15.39
5.20
23.69
34.87
35.08
23.88
4.37
-17.89
-37.12
-49.29
-53.19
-50.03
-42.09
-31.40
-19.22
-6.29
6.56
18.09
26.93
32.19
33.96
33.28
31.65
30.36
29.90
29.92
29.53
27.84
24.51
19.84
14.61
9.71
5.75
2.82
0.62
-1.32
-3.37
-5.67
-8.19
-10.79
-13.43
-16.19
-19.26
-22.94
-27.48
-32.96
-39.10
-45.16
-50.01
-52.37
-51.23
-46.22
-37.83
-27.29
-16.20
-6.03
2.22
8.21
12.15
14.53
15.93
16.74
17.20
17.39
17.36
17.19
17.03
17.10
17.56
18.50
19.86
21.50
23.22
24.82
26.10
26.90
27.07
26.47
25.03
22.79
19.91
16.62
13.18
9.75
6.31
2.72
-1.20
-5.49
-10.04
-14.55
-18.67
-22.23
-25.27
-28.15
-31.33
-35.29
-40.21
-45.90
-51.62
-56.29
-58.64
-57.62
-52.77
-44.39
-33.51
-21.61
-10.15
-0.20
7.72
13.57
17.67
20.39
22.07
23.00
23.46
23.72
24.07
24.74
25.82
27.25
28.87
30.44
31.75
32.70
33.24
33.41
33.20
32.55
31.32
29.37
26.65
23.26
19.43
15.46
11.64
8.07
4.75
1.55
-1.66
-4.95
-8.31
-11.69
-15.04
-18.35
-21.71
-25.30
-29.39
-34.21
-39.82
-45.92
-51.76
-56.21
-58.04
-56.37
-50.96
-42.37
-31.78
-20.62
-10.21
-1.43
5.34
10.12
13.19
14.94
15.76
15.97
15.79
15.38
14.95
14.71
14.90
15.72
17.16
19.02
20.91
22.39
23.14
23.06
22.26
20.92
19.23
17.26
15.03
12.55
9.83
6.93
3.88
0.72
-2.52
-5.74
-8.85
-11.80
-14.57
-17.29
-20.21
-23.59
-27.66
-32.52
-37.99
-43.60
-48.49
-51.58
-51.81
-48.46
-41.50
-31.68
-20.32
-8.95
1.12
9.15
15.02
19.00
21.55
23.03
23.65
23.51
22.75
21.63
20.56
20.03
20.35
21.58
23.48
25.56
27.34
28.45
28.71
28.11
26.78
24.87
22.51
19.77
16.70
13.27
9.47
5.27
0.76
-3.87
-8.36
-12.53
-16.33
-19.85
-23.28
-26.86
-30.77
-35.14
-40.04
-45.38
-50.74
-55.39
-58.26
-58.30
-54.80
-47.78
-38.02
-26.87
-15.80
-5.99
1.98
8.10
12.71
16.27
19.10
21.33
22.95
23.98
24.53
24.83
25.15
25.74
26.67
27.82
28.97
29.89
30.38
30.35
29.75
28.54
26.71
24.26
21.25
17.78
14.01
10.06
6.04
2.00
-1.96
-5.77
-9.29
-12.39
-15.04
-17.38
-19.72
-22.51
-26.16
-30.98
-36.87
-43.29
-49.19
-53.30
-54.41
-51.78
-45.41
-36.07
-25.11
-14.00
-3.93
4.40
10.87
15.69
19.23
21.75
23.44
24.39
24.77
24.81
24.85
25.21
26.06
27.40
29.08
30.81
32.34
33.43
33.89
33.56
32.38
30.33
27.50
24.07
20.29
16.32
12.29
8.20
4.04
-0.18
-4.40
-8.52
-12.43
-16.07
-19.43
-22.61
-25.77
-29.19
-33.16
-37.93
-43.40
-49.06
-53.92
-56.69
-56.20
-51.80
-43.68
-32.83
-20.78
-9.12
0.95
8.85
14.61
18.71
21.69
23.98
25.76
27.03
27.74
27.93
27.81
27.69
27.86
28.48
29.47
30.61
31.62
32.21
32.21
31.54
30.18
28.19
25.65
22.68
19.38
15.83
12.07
8.13
4.06
-0.01
-3.93
-7.55
-10.81
-13.74
-16.51
-19.38
-22.65
-26.57
-31.27
-36.67
-42.35
-47.54
-51.23
-52.35
-50.17
-44.57
-36.11
-25.95
-15.42
-5.68
2.56
9.10
14.04
17.58
19.87
21.00
21.13
20.60
19.90
19.56
19.95
21.18
23.03
25.14
27.04
28.40
29.04
28.98
28.31
27.17
25.67
23.80
21.46
18.49
14.82
10.58
6.08
1.79
-1.94
-4.97
-7.47
-9.86
-12.62
-16.13
-20.57
-25.86
-31.66
-37.35
-42.12
-45.03
-45.20
-42.17
-36.02
-27.48
-17.74
-8.04
0.66
7.84
13.50
17.90
21.34
23.95
25.71
26.57
26.59
26.05
25.44
25.25
25.81
27.10
28.80
30.37
31.33
31.40
30.60
29.15
27.32
25.27
22.97
20.29
17.04
13.12
8.58
3.62
-1.44
-6.28
-10.65
-14.48
-17.90
-21.16
-24.62
-28.62
-33.38
-38.93
-44.94
-50.74
-55.31
-57.55
-56.56
-51.97
-44.13
-33.99
-22.86
-11.98
-2.21
6.05
12.76
18.08
22.19
25.20
27.21
28.39
28.96
29.21
29.38
29.64
30.01
30.50
31.02
31.50
31.84
31.93
31.63
30.78
29.29
27.11
24.33
21.07
17.53
13.86
10.16
6.40
2.55
-1.40
-5.39
-9.27
-12.84
-16.01
-18.78
-21.37
-24.12
-27.44
-31.68
-36.92
-42.87
-48.77
-53.49
-55.80
-54.72
-49.86
-41.61
-31.07
-19.69
-8.88
0.37
7.64
13.05
16.99
19.93
22.19
23.90
25.08
25.77
26.14
26.41
26.82
27.45
28.22
28.94
29.45
29.68
29.62
29.29
28.63
27.54
25.91
23.70
20.99
17.96
14.78
11.55
8.33
5.09
1.80
-1.56
-4.97
-8.37
-11.64
-14.65
-17.36
-19.91
-22.63
-25.98
-30.38
-35.93
-42.26
-48.45
-53.23
-55.32
-53.83
-48.54
-40.07
-29.60
-18.60
-8.38
0.24
7.00
12.14
16.09
19.23
21.75
23.66
24.85
25.32
25.26
24.98
24.89
25.17
25.84
26.63
27.24
27.45
27.18
26.55
25.66
24.58
23.24
21.48
19.16
16.31
13.02
9.51
6.01
2.63
-0.62
-3.79
-6.95
-10.14
-13.36
-16.57
-19.81
-23.23
-27.05
-31.48
-36.57
-42.02
-47.12
-50.88
-52.23
-50.36
-45.10
-36.91
-26.93
-16.51
-6.89
1.14
7.38
12.07
15.59
18.23
20.07
21.07
21.23
20.74
20.00
19.50
19.62
20.43
21.70
23.01
23.98
24.40
24.28
23.75
22.94
21.90
20.56
18.84
16.72
14.20
11.28
8.02
4.41
0.56
-3.43
-7.36
-11.03
-14.31
-17.22
-20.00
-22.99
-26.61
-31.12
-36.40
-41.83
-46.33
-48.66
-47.81
-43.41
-35.86
-26.17
-15.68
-5.64
3.08
10.03
15.11
18.53
20.61
21.72
22.16
22.18
21.95
21.59
21.26
21.10
21.24
21.74
22.48
23.30
23.98
24.35
24.25
23.66
22.55
20.94
18.88
16.45
13.82
11.08
8.26
5.29
2.07
-1.48
-5.32
-9.29
-13.18
-16.77
-19.96
-22.79
-25.44
-28.24
-31.58
-35.80
-40.93
-46.63
-52.00
-55.82
-56.81
-54.15
-47.74
-38.39
-27.46
-16.44
-6.51
1.74
8.28
13.36
17.29
20.21
22.14
23.10
23.26
22.91
22.43
22.14
22.14
22.41
22.80
23.22
23.69
24.23
24.84
25.37
25.55
25.05
23.68
21.45
18.58
15.43
12.32
9.40
6.64
3.88
0.92
-2.32
-5.79
-9.32
-12.77
-16.00
-19.08
-22.11
-25.30
-28.95
-33.28
-38.38
-44.00
-49.40
-53.43
-54.81
-52.62
-46.62
-37.50
-26.60
-15.45
-5.36
2.99
9.47
14.30
17.76
20.09
21.44
21.99
21.96
21.61
21.23
20.99
21.01
21.30
21.86
22.67
23.68
24.75
25.68
26.17
25.98
24.96
23.12
20.60
17.61
14.32
10.79
7.04
3.11
-0.91
-4.86
-8.55
-11.83
-14.66
-17.06
-19.10
-20.86
-22.51
-24.32
-26.66
-29.89
-34.11
-38.95
-43.56
-46.70
-47.23
-44.45
-38.41
-29.89
-20.13
-10.43
-1.81
5.21
10.52
14.31
16.87
18.49
19.41
19.82
19.91
19.88
19.87
20.00
20.34
20.83
21.42
21.98
22.36
22.47
22.24
21.63
20.63
19.21
17.38
15.17
12.64
9.84
6.85
3.70
0.43
-2.94
-6.34
-9.71
-12.98
-16.12
-19.10
-21.89
-24.50
-27.05
-29.75
-32.93
-36.79
-41.22
-45.60
-48.91
-49.96
-47.85
-42.34
-33.94
-23.82
-13.39
-3.86
3.99
9.92
14.05
16.69
18.13
18.63
18.42
17.76
17.00
16.51
16.59
17.35
18.64
20.13
21.40
22.11
22.13
21.51
20.43
19.10
17.61
15.86
13.65
10.78
7.16
2.98
-1.39
-5.48
-8.93
-11.64
-13.79
-15.79
-18.14
-21.24
-25.27
-30.17
-35.54
-40.67
-44.62
-46.41
-45.25
-40.77
-33.26
-23.58
-13.04
-2.95
5.63
12.16
16.63
19.38
20.86
21.41
21.29
20.64
19.68
18.73
18.13
18.10
18.63
19.49
20.30
20.76
20.72
20.27
19.58
18.83
18.06
17.15
15.84
13.82
10.89
7.05
2.59
-2.06
-6.38
-10.05
-13.01
-15.57
-18.25
-21.60
-26.00
-31.54
-37.85
-44.17
-49.40
-52.37
-52.15
-48.31
-41.12
-31.54
-20.91
-10.60
-1.66
5.40
10.61
14.26
16.77
18.42
19.39
19.77
19.67
19.31
19.00
19.05
19.63
20.72
22.02
23.12
23.69
23.63
23.10
22.40
21.73
21.03
19.97
18.09
15.11
11.09
6.43
1.72
-2.52
-6.03
-8.90
-11.44
-14.05
-17.14
-20.96
-25.65
-31.09
-36.85
-42.16
-46.01
-47.36
-45.52
-40.39
-32.55
-23.17
-13.54
-4.74
2.67
8.60
13.28
16.93
19.66
21.41
22.18
22.12
21.66
21.28
21.42
22.21
23.47
24.77
25.70
25.96
25.47
24.45
23.15
21.81
20.53
19.20
17.58
15.43
12.61
9.18
5.38
1.55
-1.96
-5.03
-7.75
-10.44
-13.49
-17.28
-21.96
-27.45
-33.33
-38.84
-42.99
-44.79
-43.46
-38.70
-30.93
-21.13
-10.68
-0.93
7.21
13.36
17.71
20.68
22.73
24.11
24.93
25.27
25.24
25.12
25.22
25.78
26.82
28.13
29.36
30.14
30.26
29.72
28.68
27.37
25.88
24.12
21.81
18.64
14.47
9.42
3.94
-1.40
-6.11
-9.94
-12.95
-15.45
-17.81
-20.41
-23.55
-27.37
-31.87
-36.78
-41.53
-45.23
-46.91
-45.77
-41.52
-34.50
-25.61
-16.01
-6.77
1.40
8.20
13.67
17.95
21.18
23.34
24.40
24.39
23.57
22.38
21.36
20.91
21.17
21.96
22.85
23.47
23.63
23.37
22.89
22.37
21.79
20.94
19.54
17.39
14.48
10.97
7.16
3.34
-0.25
-3.49
-6.40
-9.13
-12.02
-15.42
-19.64
-24.78
-30.52
-36.19
-40.75
-43.21
-42.78
-39.24
-32.95
-24.83
-15.97
-7.41
0.10
6.19
10.75
13.84
15.54
16.02
15.63
14.85
14.27
14.41
15.50
17.41
19.71
21.82
23.30
23.95
23.89
23.32
22.38
21.06
19.13
16.37
12.76
8.50
4.08
0.02
-3.32
-5.94
-8.15
-10.52
-13.60
-17.70
-22.75
-28.29
-33.52
-37.50
-39.38
-38.58
-34.94
-28.76
-20.76
-11.89
-3.16
4.63
11.00
15.78
19.06
21.04
21.91
21.88
21.18
20.11
19.04
18.31
18.09
18.35
18.88
19.35
19.57
19.48
19.19
18.79
18.25
17.33
15.68
12.99
9.13
4.32
-0.95
-6.06
-10.49
-13.95
-16.59
-18.86
-21.39
-24.80
-29.42
-35.11
-41.20
-46.60
-50.10
-50.64
-47.75
-41.62
-33.06
-23.24
-13.31
-4.11
3.88
10.57
15.97
20.11
22.99
24.59
25.06
24.76
24.18
23.80
23.94
24.63
25.62
26.53
26.96
26.74
25.91
24.67
23.27
21.83
20.23
18.15
15.26
11.31
6.43
1.04
-4.26
-8.99
-12.93
-16.22
-19.27
-22.56
-26.52
-31.32
-36.90
-42.86
-48.47
-52.68
-54.35
-52.59
-47.10
-38.40
-27.70
-16.52
-6.16
2.74
10.17
16.59
22.50
28.16
33.39
37.72
40.62
41.75
41.14
39.14
36.37
33.46
30.88
28.87
27.38
26.26
25.32
24.47
23.70
22.97
22.17
21.07
19.43
17.04
13.92
10.24
6.34
2.52
-1.00
-4.22
-7.24
-10.31
-13.66
-17.46
-21.84
-26.83
-32.37
-38.20
-43.82
-48.45
-51.18
-51.22
-48.17
-42.16
-33.84
-24.20
-14.30
-4.97
3.26
10.18
15.80
20.24
23.59
25.97
27.47
28.24
28.45
28.33
28.14
28.13
28.48
29.18
30.08
30.84
31.09
30.54
29.10
26.85
24.01
20.83
17.52
14.18
10.90
7.73
4.70
1.82
-0.93
-3.62
-6.31
-9.06
-11.84
-14.63
-17.35
-20.01
-22.75
-25.83
-29.59
-34.22
-39.50
-44.73
-48.74
-50.26
-48.37
-42.88
-34.42
-24.25
-13.84
-4.37
3.51
9.72
14.51
18.20
21.04
23.08
24.31
24.83
24.84
24.68
24.67
24.97
25.57
26.27
26.92
27.40
27.71
27.86
27.80
27.34
26.22
24.23
21.30
17.62
13.62
9.80
6.53
3.93
1.82
-0.17
-2.44
-5.17
-8.27
-11.41
-14.19
-16.40
-18.13
-19.74
-21.74
-24.56
-28.48
-33.44
-39.03
-44.49
-48.75
-50.69
-49.45
-44.70
-36.88
-27.06
-16.61
-6.82
1.49
8.03
12.97
16.64
19.36
21.30
22.51
23.08
23.10
22.82
22.58
22.69
23.34
24.53
26.03
27.53
28.75
29.53
29.88
29.88
29.61
28.98
27.77
25.76
22.82
19.09
14.95
10.84
7.18
4.10
1.47
-1.02
-3.67
-6.68
-9.94
-13.21
-16.18
-18.66
-20.65
-22.37
-24.14
-26.34
-29.28
-33.15
-37.89
-43.10
-47.96
-51.35
-52.09
-49.37
-43.02
-33.68
-22.62
-11.36
-1.24
6.98
13.11
17.44
20.42
22.48
23.85
24.66
24.98
24.98
24.91
25.00
25.40
26.03
26.64
26.95
26.76
26.04
25.00
23.87
22.82
21.84
20.74
19.22
17.09
14.31
11.08
7.73
4.63
2.04
0.04
-1.50
-2.82
-4.22
-5.97
-8.21
-10.90
-13.83
-16.73
-19.33
-21.52
-23.43
-25.34
-27.64
-30.65
-34.48
-38.94
-43.52
-47.40
-49.57
-49.09
-45.37
-38.38
-28.82
-17.92
-7.11
2.36
9.78
15.02
18.36
20.27
21.15
21.25
20.76
19.89
18.98
18.40
18.44
19.13
20.26
21.43
22.35
22.89
23.20
23.56
24.17
24.95
25.55
25.41
24.07
21.36
17.55
13.32
9.41
6.47
4.67
3.72
3.00
1.85
-0.11
-2.81
-5.76
-8.27
-9.76
-9.99
-9.18
-8.03
-7.60
-9.07
-13.49
-21.33
-32.23
-44.76
-56.69
-65.50
-69.17
-66.77
-58.79
-46.85
-33.14
-19.68
-7.85
1.75
9.11
14.45
17.97
19.84
20.21
19.46
18.16
17.02
16.52
16.82
17.62
18.43
18.78
18.54
17.95
17.44
17.34
17.68
18.11
18.12
17.24
15.30
12.48
9.21
6.00
3.22
0.99
-0.82
-2.49
-4.29
-6.35
-8.63
-10.90
-12.89
-14.43
-15.48
-16.24
-17.11
-18.59
-21.14
-24.97
-29.94
-35.45
-40.51
-43.93
-44.70
-42.24
-36.66
-28.73
-19.61
-10.52
-2.43
4.17
9.19
12.80
15.18
16.47
16.78
16.27
15.23
14.05
13.15
12.79
13.04
13.78
14.80
15.88
16.91
17.86
18.67
19.23
19.33
18.72
17.25
14.97
12.13
9.08
6.18
3.65
1.52
-0.33
-2.10
-3.97
-6.00
-8.20
-10.47
-12.68
-14.69
-16.49
-18.20
-20.09
-22.55
-25.86
-30.11
-34.97
-39.74
-43.41
-44.97
-43.68
-39.29
-32.17
-23.18
-13.49
-4.25
3.66
9.75
13.96
16.47
17.58
17.60
16.83
15.57
14.17
12.96
12.21
12.06
12.48
13.29
14.30
15.34
16.28
17.05
17.59
17.79
17.52
16.67
15.21
13.20
10.78
8.13
5.46
2.89
0.46
-1.89
-4.25
-6.66
-9.09
-11.43
-13.55
-15.39
-17.10
-18.94
-21.30
-24.47
-28.60
-33.47
-38.54
-42.96
-45.71
-45.90
-42.98
-37.01
-28.68
-19.13
-9.65
-1.34
5.22
9.92
13.03
14.94
15.93
16.12
15.56
14.36
12.86
11.54
10.90
11.22
12.50
14.39
16.37
17.93
18.74
18.74
18.06
16.94
15.61
14.21
12.78
11.25
9.52
7.45
4.98
2.16
-0.82
-3.61
-5.84
-7.27
-7.93
-8.17
-8.56
-9.73
-12.08
-15.56
-19.55
-22.96
-24.50
-23.07
-18.13
-9.91
0.75
12.75
25.10
37.21
48.94
60.28
71.15
81.14
89.75
96.51
101.42
105.04
108.46
113.13
120.63
132.53
150.06
173.59
202.06
232.80
261.96
285.62
301.29
308.73
309.98
308.20
306.25
305.57
305.96
306.20
305.06
301.91
296.66
289.35
279.67
266.91
250.47
230.36
207.46
183.36
159.81
137.96
118.00
99.16
80.11
59.71
37.52
14.05
-9.58
-32.07
-52.65
-71.30
-88.76
-106.14
-124.54
-144.71
-166.85
-190.40
-213.93
-235.19
-251.58
-260.83
-261.97
-255.77
-244.60
-231.53
-219.14
-208.72
-200.11
-192.40
-184.68
-176.72
-168.96
-162.06
-156.37
-151.66
-147.25
-142.44
-136.86
-130.62
-124.20
-118.13
-112.71
-107.76
-102.67
-96.57
-88.81
-79.20
-68.36
-57.46
-47.88
-40.59
-35.85
-33.16
-31.67
-30.70
-30.01
-29.91
-30.78
-32.74
-35.38
-37.87
-39.39
-39.55
-38.51
-36.94
-35.64
-35.09
-35.34
-36.00
-36.53
-36.49
-35.74
-34.44
-32.92
-31.49
-30.31
-29.32
-28.36
-27.33
-26.28
-25.50
-25.48
-26.70
-29.48
-33.72
-38.88
-44.06
-48.20
-50.42
-50.30
-47.93
-43.94
-39.28
-34.98
-31.89
-30.56
-31.04
-32.99
-35.68
-38.24
-39.95
-40.43
-39.71
-38.18
-36.27
-34.34
-32.52
-30.76
-29.08
-27.53
-26.21
-25.20
-24.54
-24.28
-24.75
-26.54
-30.34
-36.58
-45.08
-54.92
-64.79
-73.42
-80.15
-84.95
-88.36
-91.06
-93.51
-95.80
-97.68
-98.69
-98.27
-95.94
-91.48
-85.06
-77.25
-68.95
-61.04
-54.16
-48.51
-44.11
-41.01
-39.59
-40.52
-44.37
-51.20
-60.15
-69.58
-77.51
-82.20
-82.66
-78.88
-71.62
-62.09
-51.54
-41.06
-31.50
-23.48
-17.41
-13.51
-11.77
-12.02
-13.88
-16.64
-19.12
-19.62
-16.26
-7.70
5.91
22.52
38.49
49.82
53.83
50.58
43.24
37.27
38.99
53.62
83.58
127.41
179.40
230.49
270.33
290.25
286.19
260.34
220.60
177.70
141.37
117.13
105.24
102.01
102.53
103.19
102.66
101.26
99.52
96.99
92.28
83.99
71.84
57.20
42.54
30.12
20.83
13.81
7.07
-1.41
-12.47
-25.39
-38.27
-48.97
-56.12
-59.65
-60.65
-60.74
-61.32
-63.05
-65.76
-68.80
-71.54
-73.75
-75.69
-77.80
-80.32
-82.91
-84.61
-84.13
-80.34
-72.82
-62.09
-49.49
-36.71
-25.24
-15.90
-8.66
-2.88
2.40
7.86
13.75
19.76
25.31
29.85
33.12
35.18
36.20
36.24
35.13
32.54
28.32
22.70
16.30
9.81
3.70
-2.10
-8.05
-14.71
-22.34
-30.64
-38.97
-46.61
-53.17
-58.77
-63.90
-69.17
-74.95
-81.29
-87.85
-94.15
-99.71
-104.21
-107.56
-109.93
-111.75
-113.71
-116.72
-121.62
-128.70
-137.22
-145.16
-149.64
-147.95
-138.65
-122.42
-101.97
-81.04
-63.06
-49.96
-41.82
-37.31
-34.58
-32.11
-28.99
-24.79
-19.28
-12.22
-3.49
6.79
18.13
29.85
41.35
52.38
63.06
73.75
84.75
96.12
107.58
118.62
128.63
137.06
143.53
147.88
150.19
150.72
149.87
148.14
145.99
143.83
141.90
140.16
138.27
135.59
131.42
125.29
117.29
108.09
98.80
90.52
83.81
78.46
73.52
67.72
59.92
49.52
36.58
21.81
6.37
-8.29
-20.60
-29.05
-32.57
-30.88
-24.68
-15.62
-5.75
3.08
9.90
14.85
18.88
23.14
28.29
34.25
40.44
46.49
52.76
60.41
70.68
83.95
98.97
113.04
123.17
127.36
125.73
120.34
114.07
109.07
105.67
102.44
97.29
88.80
77.21
64.31
52.59
44.01
39.35
38.06
38.86
40.38
41.72
42.51
42.73
42.41
41.31
39.02
35.00
28.93
20.79
10.97
0.13
-11.07
-22.21
-33.29
-44.70
-56.90
-70.11
-83.96
-97.43
-109.13
-117.62
-122.02
-122.21
-118.95
-113.59
-107.68
-102.46
-98.61
-96.19
-94.80
-93.86
-92.99
-92.14
-91.55
-91.56
-92.29
-93.44
-94.34
-94.12
-92.10
-87.98
-81.97
-74.59
-66.51
-58.32
-50.50
-43.35
-37.10
-31.87
-27.74
-24.75
-22.98
-22.54
-23.48
-25.72
-28.90
-32.49
-35.92
-38.77
-40.89
-42.26
-42.91
-42.81
-41.91
-40.28
-38.26
-36.40
-35.31
-35.47
-37.04
-39.96
-44.04
-49.07
-54.72
-60.56
-66.04
-70.61
-73.80
-75.35
-75.15
-73.08
-69.03
-62.94
-54.98
-45.70
-35.83
-26.17
-17.17
-8.91
-1.17
6.22
13.18
19.41
24.49
28.34
31.27
34.02
37.34
41.74
47.14
52.90
58.09
61.89
63.91
64.39
64.06
63.80
64.24
65.47
67.06
68.50
69.58
70.65
72.62
76.46
82.66
90.94
100.33
109.52
117.37
123.01
125.81
125.05
120.00
110.20
96.00
78.82
60.77
43.99
29.71
17.95
7.77
-1.85
-11.26
-19.67
-25.52
-27.20
-23.84
-15.77
-4.40
8.27
20.35
30.54
38.39
44.07
47.89
49.88
49.61
46.47
40.24
31.47
21.49
12.02
4.42
-0.88
-4.36
-7.07
-9.96
-13.41
-17.14
-20.50
-22.95
-24.32
-25.00
-25.67
-27.08
-29.76
-33.89
-39.28
-45.45
-51.80
-57.87
-63.43
-68.53
-73.34
-77.93
-82.02
-84.94
-85.92
-84.38
-80.32
-74.37
-67.63
-61.27
-56.24
-53.08
-51.93
-52.56
-54.38
-56.47
-57.62
-56.57
-52.45
-45.11
-35.29
-24.46
-14.35
-6.34
-1.07
1.61
2.36
2.03
1.32
0.61
0.02
-0.48
-0.89
-1.25
-1.67
-2.36
-3.56
-5.47
-8.09
-11.22
-14.53
-17.77
-20.84
-23.92
-27.26
-31.12
-35.56
-40.38
-45.08
-49.06
-51.73
-52.85
-52.64
-51.77
-51.15
-51.48
-52.92
-54.88
-56.34
-56.21
-53.85
-49.33
-43.38
-37.10
-31.58
-27.50
-25.03
-23.80
-23.04
-21.77
-19.06
-14.29
-7.29
1.65
11.91
22.73
33.51
43.80
53.36
61.93
69.25
75.02
78.95
80.93
80.99
79.40
76.54
72.93
69.13
65.75
63.31
62.07
61.92
62.35
62.61
61.97
59.94
56.36
51.33
45.09
37.84
29.77
21.20
12.60
4.61
-2.19
-7.49
-11.33
-14.12
-16.33
-18.17
-19.53
-19.97
-19.10
-16.79
-13.49
-10.00
-7.12
-5.21
-3.90
-2.19
1.11
6.88
15.32
25.87
37.39
48.47
57.84
64.63
68.53
69.82
69.13
67.20
64.66
61.89
59.05
56.37
54.27
53.54
55.29
60.52
69.67
81.89
94.74
104.39
106.63
98.30
78.54
49.34
14.86
-20.09
-51.52
-77.24
-96.81
-110.74
-119.76
-124.53
-125.80
-124.70
-122.81
-121.71
-122.43
-125.11
-129.02
-133.09
-136.37
-138.41
-139.30
-139.50
-139.48
-139.35
-138.70
-136.68
-132.34
-124.97
-114.46
-101.33
-86.47
-70.83
-55.14
-39.95
-25.60
-12.31
-0.27
10.52
20.06
28.34
35.24
40.55
44.15
46.27
47.52
48.77
50.70
53.52
56.75
59.60
61.24
61.19
59.52
56.58
52.80
48.59
44.20
39.84
35.63
31.66
27.89
24.21
20.41
16.28
11.59
6.08
-0.57
-8.70
-18.50
-29.74
-41.52
-52.31
-60.27
-63.75
-61.77
-54.40
-42.55
-27.77
-11.56
4.91
20.92
36.01
49.70
61.36
70.26
75.90
78.22
77.73
75.38
72.14
68.79
65.55
62.21
58.21
53.04
46.46
38.64
30.18
21.84
14.27
7.81
2.39
-2.24
-6.33
-9.88
-12.68
-14.50
-15.29
-15.30
-14.90
-14.45
-14.15
-13.96
-13.79
-13.66
-13.79
-14.53
-16.09
-18.35
-20.69
-22.10
-21.54
-18.25
-12.15
-3.90
5.30
14.04
21.15
26.03
28.70
29.63
29.39
28.52
27.31
25.97
24.70
23.79
23.53
24.08
25.35
27.01
28.55
29.56
29.79
29.18
27.81
25.76
23.03
19.65
15.60
10.98
5.92
0.54
-5.02
-10.62
-16.04
-20.99
-25.08
-28.03
-29.73
-30.33
-30.12
-29.44
-28.66
-28.12
-28.19
-29.14
-30.98
-33.25
-34.98
-34.92
-32.03
-26.01
-17.55
-8.06
0.79
7.75
12.28
14.62
15.44
15.41
14.97
14.32
13.52
12.67
11.93
11.57
11.78
12.59
13.80
15.03
15.86
16.00
15.40
14.26
12.92
11.64
10.45
9.14
7.34
4.82
1.63
-1.94
-5.42
-8.37
-10.55
-11.97
-12.79
-13.19
-13.26
-13.01
-12.44
-11.66
-10.91
-10.58
-11.01
-12.26
-13.87
-14.88
-14.07
-10.32
-2.98
7.92
21.73
37.37
53.55
68.94
82.33
92.79
99.80
103.43
104.29
103.24
101.09
98.33
95.07
91.25
86.74
81.34
74.70
66.33
55.81
43.10
28.81
14.16
0.48
-11.32
-21.09
-29.30
-36.64
-43.57
-50.17
-56.30
-61.92
-67.17
-72.24
-76.99
-80.78
-82.72
-82.20
-79.33
-75.13
-71.28
-69.60
-71.33
-76.74
-84.89
-93.90
-101.25
-104.45
-101.65
-92.23
-77.05
-58.42
-39.38
-22.91
-11.00
-4.09
-1.17
-0.44
-0.16
0.66
1.95
3.07
3.23
2.17
0.32
-1.48
-2.50
-2.56
-2.10
-2.01
-3.13
-5.93
-10.36
-15.93
-22.00
-27.95
-33.38
-38.08
-42.06
-45.42
-48.24
-50.56
-52.32
-53.39
-53.66
-53.10
-51.78
-49.97
-48.13
-46.89
-47.05
-49.41
-54.48
-62.09
-71.13
-79.41
-84.14
-82.74
-73.69
-57.17
-35.17
-10.76
12.90
33.46
49.90
62.41
71.84
79.11
84.71
88.73
91.03
91.55
90.54
88.57
86.40
84.83
84.47
85.60
88.08
91.35
94.57
96.74
97.04
95.03
90.81
85.00
78.47
72.07
66.29
61.06
55.79
49.64
41.83
32.09
20.81
9.06
-1.74
-10.32
-16.00
-19.08
-20.78
-22.91
-27.20
-34.64
-44.98
-56.58
-66.74
-72.51
-71.61
-63.17
-48.14
-28.89
-8.55
10.02
24.97
35.75
42.92
47.63
50.96
53.53
55.31
55.85
54.61
51.41
46.62
41.08
35.81
31.66
29.03
27.73
27.22
26.77
25.65
23.30
19.39
13.82
6.72
-1.53
-10.32
-18.86
-26.37
-32.22
-36.17
-38.40
-39.60
-40.67
-42.43
-45.25
-48.81
-52.22
-54.43
-54.66
-52.86
-49.80
-46.84
-45.56
-47.26
-52.53
-60.96
-70.93
-79.81
-84.50
-82.36
-72.11
-54.49
-32.16
-8.83
12.06
28.49
40.40
49.21
56.98
65.38
75.31
87.00
100.39
115.42
131.98
149.67
167.60
184.52
199.21
210.79
218.85
223.08
222.99
217.73
206.38
188.44
164.40
135.83
104.99
74.30
45.77
20.57
-0.90
-18.90
-34.13
-47.50
-59.77
-71.39
-82.29
-92.08
-100.22
-106.51
-111.13
-114.62
-117.66
-120.87
-124.75
-129.74
-136.16
-143.95
-152.29
-159.51
-163.39
-161.99
-154.57
-142.05
-126.77
-111.58
-98.81
-89.55
-83.66
-80.15
-77.84
-75.83
-73.72
-71.51
-69.41
-67.68
-66.45
-65.70
-65.29
-65.07
-64.92
-64.79
-64.49
-63.58
-61.36
-57.12
-50.49
-41.78
-32.01
-22.52
-14.48
-8.38
-4.08
-1.12
0.86
1.84
1.53
-0.20
-2.96
-5.83
-7.57
-7.31
-4.94
-1.29
2.06
3.24
0.66
-6.41
-17.50
-30.71
-42.97
-50.70
-50.80
-41.59
-23.41
1.44
29.48
57.00
81.12
100.35
114.61
124.73
131.80
136.58
139.29
139.69
137.53
133.03
127.03
120.86
115.89
112.88
111.79
111.74
111.59
110.35
107.58
103.31
97.82
91.34
83.87
75.39
66.03
56.15
46.28
36.82
27.87
19.11
10.07
0.45
-9.61
-19.53
-28.48
-35.92
-41.79
-46.74
-51.88
-58.54
-67.68
-79.57
-93.51
-107.67
-119.39
-125.68
-124.06
-113.34
-94.19
-69.05
-41.61
-15.69
5.78
21.43
31.61
37.78
41.68
44.72
47.60
50.44
53.03
55.11
56.49
56.94
56.16
53.85
49.87
44.55
38.70
33.39
29.47
27.09
25.53
23.49
19.69
13.62
5.80
-2.37
-9.26
-13.83
-16.10
-17.13
-18.51
-21.52
-26.52
-32.83
-39.16
-44.28
-47.70
-49.97
-52.43
-56.65
-63.90
-74.63
-88.33
-103.65
-118.54
-130.47
-136.91
-135.82
-126.32
-109.07
-86.34
-61.39
-37.55
-17.29
-1.71
9.50
17.45
23.53
28.82
33.91
38.97
44.02
49.25
55.26
63.04
73.62
87.61
104.81
124.07
143.50
161.12
175.36
185.39
191.10
192.98
191.82
188.61
184.51
180.74
178.39
178.19
180.25
184.09
188.69
193.07
196.76
200.23
204.87
212.28
223.14
236.36
248.89
256.73
256.61
247.56
231.52
212.58
195.16
182.17
174.24
169.97
167.26
164.49
161.10
157.25
153.04
147.92
140.63
129.68
114.00
93.29
67.92
38.46
5.47
-30.31
-67.46
-103.48
-135.09
-159.18
-174.07
-180.20
-179.86
-176.06
-171.13
-166.03
-160.67
-154.77
-148.62
-143.14
-139.10
-136.34
-133.55
-128.89
-121.15
-110.54
-98.71
-87.96
-80.12
-75.78
-74.16
-73.74
-73.05
-71.25
-68.30
-64.70
-61.14
-58.17
-56.17
-55.21
-55.06
-55.12
-54.54
-52.44
-48.24
-42.00
-34.46
-26.64
-19.42
-13.08
-7.31
-1.51
4.60
10.64
15.63
18.48
18.51
15.82
11.19
5.56
-0.28
-6.00
-11.54
-16.84
-21.73
-25.91
-29.20
-31.73
-33.96
-36.43
-39.48
-43.02
-46.60
-49.59
-51.58
-52.50
-52.70
-52.71
-53.03
-53.90
-55.17
-56.46
-57.29
-57.32
-56.54
-55.28
-54.16
-53.84
-54.70
-56.57
-58.57
-59.28
-57.21
-51.33
-41.56
-28.82
-14.88
-1.73
8.99
16.37
20.39
21.58
20.74
18.59
15.69
12.49
9.42
7.01
5.78
6.03
7.63
9.98
12.18
13.36
13.07
11.41
9.00
6.64
4.96
4.15
3.95
3.82
3.14
1.47
-1.33
-5.04
-9.10
-12.83
-15.61
-17.14
-17.52
-17.27
-17.14
-17.80
-19.63
-22.66
-26.48
-30.32
-33.19
-34.02
-32.01
-26.82
-18.85
-9.17
0.77
9.54
16.13
20.19
21.94
21.95
20.75
18.69
15.88
12.34
8.26
4.08
0.45
-1.93
-2.72
-2.06
-0.52
1.11
2.19
2.37
1.69
0.34
-1.42
-3.46
-5.77
-8.39
-11.36
-14.67
-18.24
-21.86
-25.23
-27.96
-29.81
-30.80
-31.30
-31.92
-33.36
-36.10
-40.26
-45.57
-51.28
-56.39
-59.73
-60.27
-57.39
-51.12
-42.22
-31.94
-21.65
-12.41
-4.78
1.20
5.79
9.29
11.93
13.81
15.06
15.83
16.39
16.98
17.79
18.89
20.28
21.90
23.73
25.70
27.76
29.88
32.01
34.15
36.27
38.30
40.01
41.02
40.85
39.08
35.54
30.38
24.12
17.45
11.04
5.35
0.51
-3.61
-7.29
-10.88
-14.71
-19.14
-24.49
-30.92
-38.19
-45.48
-51.44
-54.46
-53.27
-47.40
-37.51
-25.20
-12.52
-1.21
7.71
14.13
18.50
21.44
23.36
24.29
24.10
22.75
20.55
18.09
16.10
15.11
15.15
15.83
16.43
16.30
15.12
12.95
10.15
7.07
3.85
0.32
-3.84
-8.93
-14.90
-21.31
-27.36
-32.21
-35.30
-36.55
-36.43
-35.72
-35.28
-35.72
-37.32
-39.97
-43.18
-46.23
-48.13
-47.85
-44.49
-37.63
-27.55
-15.13
-1.71
11.39
23.26
33.50
42.09
49.10
54.37
57.63
58.62
57.39
54.50
50.87
47.53
45.23
44.17
43.83
43.23
41.26
37.12
30.64
22.30
12.98
3.61
-5.29
-13.55
-21.37
-29.00
-36.56
-43.93
-50.87
-57.04
-62.21
-66.23
-69.21
-71.39
-73.14
-74.73
-76.24
-77.49
-78.11
-77.69
-75.92
-72.61
-67.63
-60.89
-52.43
-42.56
-31.92
-21.50
-12.34
-5.33
-0.94
0.67
-0.25
-3.24
-7.62
-12.60
-17.42
-21.47
-24.38
-26.06
-26.53
-25.88
-24.13
-21.25
-17.26
-12.36
-6.92
-1.43
3.63
7.88
11.24
13.80
15.86
17.74
19.61
21.41
22.80
23.29
22.45
20.12
16.55
12.34
8.24
4.82
2.25
0.15
-2.33
-6.25
-12.51
-21.55
-32.94
-45.36
-56.59
-63.95
-64.99
-58.34
-44.23
-24.68
-2.97
17.34
33.40
43.85
48.93
50.03
48.95
47.21
45.65
44.54
43.82
43.48
43.69
44.67
46.48
48.88
51.34
53.33
54.51
55.00
55.17
55.51
56.26
57.32
58.32
58.81
58.43
57.10
55.00
52.51
50.00
47.60
45.03
41.61
36.45
28.74
18.26
5.47
-8.54
-22.55
-35.75
-48.03
-59.97
-72.36
-85.77
-100.06
-114.49
-127.92
-139.17
-147.29
-151.58
-151.57
-146.96
-137.64
-123.82
-106.24
-86.08
-64.86
-44.18
-25.34
-9.24
3.84
14.08
22.01
28.26
33.41
37.89
41.96
45.75
49.37
52.91
56.49
60.16
63.85
67.31
70.15
71.86
72.05
70.45
67.08
62.25
56.45
50.28
44.26
38.72
33.68
28.93
24.08
18.72
12.60
5.74
-1.57
-8.94
-16.04
-22.70
-29.02
-35.31
-41.99
-49.51
-58.18
-68.00
-78.55
-88.82
-97.35
-102.45
-102.60
-96.92
-85.47
-69.34
-50.28
-30.29
-11.20
5.80
20.09
31.61
40.58
47.30
52.08
55.22
57.10
58.16
58.93
59.81
61.03
62.56
64.17
65.54
66.35
66.39
65.52
63.65
60.72
56.71
51.70
45.92
39.69
33.37
27.20
21.23
15.32
9.23
2.77
-4.03
-10.99
-17.81
-24.27
-30.35
-36.29
-42.59
-49.80
-58.48
-68.91
-80.93
-93.79
-106.03
-115.66
-120.55
-118.98
-110.21
-94.78
-74.33
-51.19
-27.66
-5.47
14.42
31.72
46.51
58.93
69.06
76.88
82.45
85.98
87.87
88.65
88.83
88.78
88.72
88.66
88.56
88.38
88.09
87.69
87.14
86.30
84.88
82.56
79.05
74.32
68.64
62.59
56.90
52.19
48.67
46.09
43.77
40.89
36.79
31.25
24.53
17.16
9.58
1.84
-6.46
-16.06
-27.62
-41.46
-57.34
-74.35
-91.05
-105.57
-115.84
-119.90
-116.40
-105.08
-87.01
-64.58
-40.84
-18.71
-0.09
14.41
25.34
33.72
40.43
45.80
49.70
51.95
52.71
52.58
52.46
53.05
54.61
56.88
59.26
61.23
62.51
63.17
63.39
63.26
62.61
61.03
58.11
53.69
48.04
41.86
36.10
31.56
28.59
26.99
26.06
24.89
22.72
19.23
14.53
9.10
3.56
-1.61
-6.20
-10.36
-14.53
-19.32
-25.33
-32.83
-41.48
-50.09
-56.60
-58.57
-53.90
-41.64
-22.55
0.99
25.68
48.32
66.79
80.51
90.26
97.68
104.52
112.07
120.71
129.76
137.48
141.50
139.48
130.05
113.36
91.09
65.89
40.34
16.22
-5.77
-25.68
-43.91
-60.95
-77.54
-94.87
-114.64
-138.62
-167.94
-202.65
-241.71
-283.35
-325.57
-366.29
-403.21
-433.67
-454.95
-464.94
-463.15
-451.14
-432.27
-410.78
-390.47
-373.89
-362.01
-354.64
-350.89
-349.57
-349.34
-348.69
-346.00
-339.90
-329.56
-314.96
-296.89
-276.50
-254.90
-232.68
-209.86
-186.06
-160.92
-134.32
-106.51
-77.98
-49.17
-20.16
9.41
40.34
73.79
111.09
153.31
200.58
251.38
302.27
348.45
385.12
408.97
419.21
417.53
407.10
391.16
372.02
350.95
328.74
306.30
284.83
265.46
248.63
233.77
219.55
204.46
187.51
168.41
147.51
125.68
104.08
84.10
67.43
55.78
50.43
51.77
58.96
70.06
82.61
94.24
103.30
109.02
111.54
111.58
110.25
108.66
107.60
107.21
106.91
105.51
101.76
94.89
85.00
73.11
60.79
49.66
40.96
35.25
32.29
31.03
29.97
27.73
23.86
19.39
16.80
19.12
28.51
45.02
66.20
87.82
105.38
115.73
117.89
112.99
103.33
91.25
78.31
65.06
51.35
36.83
21.46
5.71
-9.39
-22.44
-31.92
-36.47
-35.25
-28.12
-15.81
0.14
17.62
34.41
48.74
59.73
67.52
72.98
77.20
80.93
84.32
86.94
88.32
88.38
87.77
87.78
89.88
95.11
103.62
114.68
126.92
138.92
149.69
159.08
167.90
177.87
191.12
209.49
233.49
261.57
290.06
314.11
329.25
333.07
326.02
311.07
292.22
272.94
255.11
239.02
224.08
209.68
195.63
182.01
168.75
155.29
140.69
124.01
104.79
83.33
60.50
37.54
15.54
-4.83
-23.51
-40.80
-57.25
-73.21
-88.79
-103.94
-118.58
-133.08
-148.08
-164.15
-181.19
-197.99
-212.40
-222.07
-225.50
-222.81
-215.64
-206.49
-197.56
-189.99
-183.78
-178.33
-173.17
-168.31
-164.15
-161.02
-158.76
-156.68
-153.90
-149.80
-144.32
-138.02
-131.79
-126.51
-122.71
-120.52
-119.69
-119.76
-120.15
-120.17
-119.01
-115.74
-109.44
-99.57
-86.36
-71.03
-55.63
-42.45
-33.25
-28.55
-27.56
-28.60
-29.88
-30.20
-29.21
-27.27
-24.95
-22.70
-20.84
-19.63
-19.47
-20.84
-24.02
-28.82
-34.41
-39.58
-43.13
-44.38
-43.42
-41.13
-38.71
-37.34
-37.65
-39.57
-42.44
-45.38
-47.70
-49.15
-49.89
-50.29
-50.62
-51.02
-51.54
-52.35
-53.70
-55.81
-58.53
-61.27
-63.05
-62.95
-60.50
-55.90
-49.94
-43.62
-37.86
-33.27
-30.15
-28.62
-28.61
-29.85
-31.87
-34.01
-35.68
-36.48
-36.36
-35.55
-34.36
-32.99
-31.47
-29.73
-27.77
-25.76
-24.02
-22.85
-22.31
-22.18
-22.00
-21.23
-19.57
-17.08
-14.17
-11.39
-9.21
-7.93
-7.66
-8.39
-10.05
-12.52
-15.62
-19.20
-23.16
-27.61
-32.91
-39.39
-47.07
-55.37
-63.05
-68.51
-70.41
-68.21
-62.44
-54.48
-45.95
-38.10
-31.44
-25.81
-20.78
-16.22
-12.50
-10.34
-10.48
-13.25
-18.34
-24.96
-32.07
-38.71
-44.33
-48.79
-52.39
-55.70
-59.40
-64.06
-70.06
-77.55
-86.55
-97.07
-109.11
-122.68
-137.68
-153.85
-170.64
-187.26
-202.63
-215.55
-224.98
-230.33
-231.83
-230.57
-228.31
-226.92
-227.81
-231.42
-237.04
-243.06
-247.34
-247.81
-242.88
-231.84
-214.98
-193.47
-169.12
-143.92
-119.68
-97.65
-78.52
-62.55
-49.67
-39.77
-32.73
-28.48
-26.86
-27.61
-30.35
-34.49
-39.34
-44.13
-48.15
-50.77
-51.43
-49.63
-44.94
-37.01
-25.68
-11.04
6.67
27.25
50.62
76.67
104.67
132.83
158.19
177.19
186.84
185.87
175.28
157.99
137.74
118.00
101.23
88.92
82.00
81.21
87.06
99.32
116.61
136.36
155.37
170.79
180.96
185.80
186.53
184.86
182.08
178.56
173.92
167.61
159.66
150.94
142.77
136.17
131.13
126.55
120.76
112.53
101.67
89.18
76.85
66.43
59.12
55.34
54.77
56.71
60.21
64.17
67.64
69.87
70.50
69.53
67.16
63.53
58.66
52.40
44.62
35.30
24.51
12.43
-0.64
-14.16
-27.06
-37.83
-44.64
-46.02
-41.42
-31.52
-18.16
-3.66
9.92
21.34
30.43
37.71
43.99
49.83
55.45
60.80
65.82
70.59
75.33
80.32
85.51
90.55
94.80
97.62
98.70
98.16
96.53
94.44
92.25
89.95
87.15
83.39
78.44
72.52
66.16
60.00
54.38
49.20
44.02
38.30
31.81
24.73
17.63
11.15
5.64
1.05
-3.13
-7.66
-13.28
-20.49
-29.33
-39.23
-48.91
-56.54
-60.10
-57.97
-49.55
-35.60
-18.09
0.33
17.14
30.68
40.48
47.06
51.43
54.52
56.78
58.27
58.86
58.60
57.82
57.04
56.71
56.94
57.50
57.99
58.08
57.68
56.93
55.98
54.77
53.03
50.36
46.50
41.46
35.58
29.36
23.27
17.57
12.28
7.29
2.49
-2.15
-6.60
-10.79
-14.75
-18.68
-22.93
-27.98
-34.29
-41.98
-50.68
-59.28
-66.05
-69.03
-66.65
-58.35
-44.87
-28.07
-10.38
5.95
19.46
29.56
36.46
40.76
43.05
43.85
43.59
42.66
41.55
40.73
40.56
41.14
42.36
43.92
45.43
46.58
47.13
46.99
46.11
44.44
41.99
38.78
34.95
30.70
26.24
21.71
17.11
12.31
7.13
1.54
-4.33
-10.16
-15.54
-20.15
-23.90
-27.01
-29.99
-33.51
-38.20
-44.45
-52.13
-60.44
-67.97
-72.90
-73.57
-68.92
-58.96
-44.79
-28.39
-11.93
2.70
14.40
22.92
28.70
32.42
34.73
36.04
36.54
36.36
35.71
34.97
34.56
34.79
35.71
37.07
38.41
39.30
39.48
38.94
37.77
36.09
33.91
31.19
27.92
24.19
20.23
16.29
12.50
8.77
4.81
0.34
-4.75
-10.28
-15.87
-21.07
-25.58
-29.35
-32.66
-36.00
-39.97
-45.13
-51.65
-59.17
-66.62
-72.40
-74.71
-72.17
-64.31
-51.88
-36.66
-20.85
-6.50
5.16
13.79
19.76
23.77
26.41
28.02
28.76
28.69
28.08
27.31
26.88
27.13
28.19
29.89
31.90
33.85
35.44
36.50
36.91
36.67
35.75
34.20
32.11
29.61
26.86
23.95
20.94
17.88
14.84
11.94
9.35
7.21
5.53
4.22
3.11
2.04
0.96
-0.17
-1.34
-2.60
-3.98
-5.30
-5.95
-4.92
-0.90
7.27
20.13
37.34
57.71
79.48
100.82
120.33
137.26
151.60
163.94
175.20
186.42
198.59
212.53
228.75
247.21
266.99
286.05
301.42
309.91
309.07
298.08
277.97
251.22
220.75
188.97
157.35
126.60
97.18
69.65
44.60
22.31
2.40
-16.09
-34.24
-52.58
-70.71
-87.52
-101.68
-112.42
-119.97
-125.63
-131.41
-139.64
-152.38
-170.84
-194.57
-220.89
-244.90
-260.50
-262.43
-248.35
-220.14
-183.46
-145.78
-113.75
-91.21
-78.68
-74.20
-74.89
-78.04
-81.57
-83.86
-83.50
-79.39
-71.06
-59.10
-45.02
-30.93
-18.72
-9.36
-2.53
3.25
10.04
19.52
32.08
46.37
59.60
68.57
71.04
66.70
57.44
46.58
37.62
32.94
32.99
36.32
40.28
42.01
39.33
31.30
18.33
1.94
-15.62
-31.89
-44.62
-52.29
-54.46
-51.86
-46.22
-39.86
-34.85
-32.50
-32.96
-35.43
-38.59
-41.29
-42.92
-43.51
-43.52
-43.50
-43.75
-44.25
-44.69
-44.62
-43.68
-41.63
-38.50
-34.51
-30.02
-25.42
-20.97
-16.67
-12.29
-7.48
-2.06
3.55
8.20
10.10
7.35
-1.45
-16.49
-36.68
-59.93
-83.80
-106.33
-126.34
-143.55
-158.28
-171.16
-182.79
-193.58
-203.46
-211.71
-216.90
-217.28
-211.45
-199.19
-181.82
-161.85
-142.11
-124.63
-110.03
-97.64
-86.31
-75.27
-64.51
-54.67
-46.37
-39.74
-34.23
-28.96
-23.29
-17.09
-10.83
-5.20
-0.66
2.80
5.65
8.54
11.91
15.82
20.00
24.03
27.59
30.62
33.15
35.19
36.54
36.70
35.09
31.16
24.69
15.89
5.48
-5.49
-15.89
-24.87
-32.09
-37.65
-41.85
-44.73
-45.91
-44.70
-40.49
-33.23
-23.65
-13.04
-2.77
6.25
13.65
19.56
24.19
27.65
29.97
31.31
32.21
33.65
36.78
42.47
50.81
60.71
70.12
76.60
78.15
73.96
64.61
51.65
36.82
21.20
4.92
-12.43
-31.18
-50.86
-70.11
-87.21
-100.82
-110.56
-117.11
-121.77
-125.95
-130.73
-136.75
-144.29
-153.33
-163.52
-174.00
-183.46
-190.35
-193.42
-192.31
-187.76
-181.42
-175.32
-171.18
-169.83
-171.14
-174.14
-177.52
-180.00
-180.52
-178.37
-173.05
-164.28
-151.97
-136.43
-118.58
-100.02
-82.86
-69.18
-60.40
-56.72
-57.07
-59.41
-61.48
-61.37
-57.99
-51.26
-41.89
-31.20
-20.62
-11.22
-3.08
4.80
14.22
26.71
42.49
59.74
74.90
83.97
84.23
75.56
60.60
43.80
29.69
21.42
19.94
24.33
32.66
42.96
53.94
64.93
75.61
85.50
93.83
99.69
102.44
102.10
99.47
95.85
92.56
90.55
90.18
91.20
93.00
94.80
96.00
96.27
95.59
94.17
92.27
89.92
86.92
82.86
77.35
70.32
62.09
53.32
44.67
36.67
29.48
23.00
17.08
11.64
6.67
2.09
-2.37
-7.15
-12.52
-18.27
-23.46
-26.58
-26.00
-20.67
-10.61
2.98
18.17
32.92
45.84
56.43
64.91
71.80
77.43
81.78
84.65
85.93
85.90
85.16
84.44
84.29
84.84
85.86
86.97
87.85
88.33
88.41
88.09
87.22
85.58
82.93
79.15
74.33
68.70
62.51
55.96
49.15
42.18
35.24
28.57
22.39
16.75
11.56
6.53
1.40
-4.05
-9.96
-16.48
-23.68
-31.36
-38.85
-44.86
-47.69
-45.79
-38.34
-25.80
-9.78
7.39
23.43
36.81
46.98
54.27
59.46
63.33
66.35
68.68
70.32
71.24
71.59
71.65
71.69
71.84
72.12
72.42
72.63
72.69
72.57
72.17
71.27
69.55
66.74
62.78
57.88
52.52
47.30
42.65
38.72
35.28
31.94
28.30
24.27
20.03
15.99
12.53
9.87
7.89
6.24
4.36
1.71
-2.10
-7.05
-12.56
-17.30
-19.45
-17.07
-8.81
5.50
24.64
46.30
67.85
87.17
103.21
116.08
126.59
135.69
143.96
151.55
158.28
164.13
169.36
174.50
180.02
186.03
192.15
197.67
202.01
204.98
206.90
208.22
209.06
208.94
206.92
202.22
194.78
185.53
176.10
168.06
162.36
158.86
156.54
153.90
149.28
141.18
128.40
110.28
86.91
59.26
29.06
-1.61
-31.01
-58.14
-82.97
-106.21
-128.99
-152.29
-176.48
-200.93
-223.86
-242.67
-254.68
-258.17
-253.09
-241.32
-225.91
-210.14
-196.42
-185.87
-178.47
-173.59
-170.47
-168.42
-166.73
-164.55
-161.03
-155.61
-148.29
-139.69
-130.85
-122.78
-116.14
-111.01
-106.96
-103.35
-99.56
-95.27
-90.59
-86.03
-82.28
-79.98
-79.45
-80.58
-82.78
-85.19
-86.97
-87.65
-87.38
-86.88
-87.26
-89.43
-93.69
-99.25
-104.35
-106.68
-104.14
-95.65
-81.49
-63.24
-43.19
-23.61
-6.29
7.79
18.21
24.99
28.36
28.81
27.06
24.02
20.70
17.95
16.32
15.99
16.82
18.39
20.06
21.14
20.96
19.16
15.76
11.23
6.30
1.68
-2.20
-5.26
-7.75
-9.97
-12.16
-14.40
-16.65
-18.97
-21.42
-24.20
-27.46
-31.18
-35.19
-39.15
-42.76
-45.80
-48.19
-49.75
-50.10
-48.47
-43.98
-36.08
-24.91
-11.57
2.20
14.49
23.98
30.24
33.75
35.43
36.17
36.45
36.35
35.80
34.83
33.70
32.82
32.50
32.86
33.80
35.18
36.99
39.43
42.81
47.35
52.95
59.14
65.22
70.46
74.41
76.92
78.21
78.73
79.00
79.46
80.45
82.16
84.62
87.67
90.82
93.28
94.04
92.07
86.59
77.32
64.65
49.66
34.04
19.70
8.36
1.08
-1.97
-1.51
1.14
4.42
7.00
7.93
6.72
3.30
-2.11
-9.08
-17.00
-25.26
-33.47
-41.47
-49.36
-57.33
-65.47
-73.69
-81.65
-88.94
-95.16
-100.06
-103.57
-105.86
-107.26
-108.20
-109.13
-110.47
-112.46
-115.14
-118.38
-121.84
-125.11
-127.73
-129.27
-129.39
-127.81
-124.34
-118.92
-111.59
-102.67
-92.64
-82.06
-71.23
-59.91
-47.21
-31.90
-12.87
10.30
36.95
65.49
93.76
119.57
141.14
157.33
167.68
172.37
172.13
168.19
162.06
155.39
149.66
146.03
145.34
148.08
154.30
163.34
173.59
182.47
186.88
183.96
172.02
151.17
123.25
91.35
58.79
28.20
1.07
-22.29
-42.17
-58.96
-72.68
-83.08
-89.91
-93.35
-94.24
-93.97
-94.07
-95.77
-99.71
-105.74
-113.10
-120.52
-126.47
-129.43
-128.18
-122.15
-111.61
-97.67
-82.03
-66.48
-52.56
-41.19
-32.79
-27.33
-24.59
-24.14
-25.38
-27.41
-29.21
-29.82
-28.71
-25.93
-22.19
-18.60
-16.14
-15.31
-15.85
-16.95
-17.58
-17.01
-15.12
-12.46
-10.06
-9.03
-10.19
-13.78
-19.39
-26.06
-32.62
-38.00
-41.60
-43.48
-44.41
-45.63
-48.36
-53.32
-60.37
-68.38
-75.59
-80.16
-80.78
-77.15
-70.02
-60.85
-51.33
-42.89
-36.39
-32.18
-30.24
-30.45
-32.71
-36.92
-42.95
-50.39
-58.35
-65.40
-69.78
-69.81
-64.48
-53.93
-39.60
-23.97
-9.85
0.43
5.62
5.71
1.65
-5.22
-13.63
-22.57
-31.21
-38.67
-43.96
-46.20
-44.94
-40.51
-34.06
-27.24
-21.70
-18.59
-18.36
-20.82
-25.28
-30.71
-35.69
-38.54
-37.54
-31.44
-19.97
-4.14
14.00
31.97
47.72
60.15
69.16
75.35
79.40
81.71
82.31
81.07
78.04
73.71
68.97
64.84
62.05
60.74
60.44
60.26
59.40
57.47
54.60
51.28
47.91
44.56
40.83
36.17
30.23
23.13
15.52
8.29
2.21
-2.36
-5.59
-8.05
-10.50
-13.59
-17.79
-23.29
-30.08
-37.86
-45.96
-53.23
-58.14
-59.03
-54.71
-44.95
-30.70
-13.91
3.14
18.54
31.27
41.26
48.92
54.71
58.70
60.69
60.50
58.38
55.07
51.61
48.94
47.51
47.20
47.42
47.52
47.04
45.89
44.28
42.58
41.03
39.63
38.13
36.14
33.28
29.33
24.36
18.70
12.85
7.36
2.55
-1.45
-4.79
-7.83
-11.03
-14.88
-19.80
-26.03
-33.46
-41.48
-48.87
-54.00
-55.23
-51.47
-42.70
-30.04
-15.47
-1.15
11.18
20.68
27.38
31.85
34.78
36.66
37.68
37.85
37.23
36.03
34.73
33.90
34.03
35.36
37.67
40.36
42.66
43.88
43.65
42.01
39.31
35.92
32.06
27.74
22.88
17.56
12.12
7.16
3.30
0.86
-0.34
-0.95
-1.87
-3.92
-7.58
-12.92
-19.71
-27.48
-35.54
-42.86
-48.14
-49.93
-47.07
-39.25
-27.26
-12.92
1.50
13.96
23.31
29.45
33.06
35.07
36.13
36.40
35.70
33.90
31.24
28.38
26.20
25.41
26.13
27.88
29.77
30.85
30.53
28.78
26.02
22.92
20.04
17.67
15.70
13.77
11.40
8.23
4.19
-0.52
-5.48
-10.25
-14.52
-18.23
-21.52
-24.65
-27.91
-31.57
-35.87
-40.93
-46.61
-52.34
-56.95
-58.93
-56.82
-49.79
-38.09
-23.11
-6.95
8.21
20.85
30.36
36.97
41.38
44.25
45.96
46.64
46.37
45.37
44.04
42.86
42.16
41.90
41.80
41.41
40.47
38.99
37.25
35.64
34.31
33.15
31.77
29.79
26.93
23.26
19.06
14.69
10.42
6.33
2.31
-1.79
-6.02
-10.26
-14.24
-17.71
-20.57
-23.03
-25.64
-29.09
-33.93
-40.17
-47.15
-53.47
-57.35
-57.15
-51.97
-41.97
-28.45
-13.45
0.90
12.99
22.09
28.28
32.15
34.38
35.44
35.56
34.87
33.64
32.24
31.13
30.62
30.70
31.11
31.49
31.60
31.45
31.22
31.07
31.02
30.79
29.97
28.20
25.40
21.79
17.83
14.09
10.93
8.43
6.34
4.21
1.61
-1.65
-5.43
-9.33
-12.85
-15.67
-17.83
-19.72
-22.01
-25.38
-30.27
-36.70
-44.04
-51.08
-56.21
-57.76
-54.63
-46.66
-34.82
-20.96
-7.24
4.50
13.22
18.84
21.92
23.32
23.71
23.46
22.70
21.52
20.17
19.06
18.61
19.02
20.17
21.66
23.08
24.16
24.87
25.33
25.63
25.66
25.06
23.45
20.62
16.71
12.26
7.97
4.45
1.94
0.25
-1.13
-2.78
-5.07
-7.98
-11.21
-14.30
-16.92
-19.00
-20.79
-22.71
-25.28
-28.88
-33.69
-39.47
-45.44
-50.33
-52.61
-51.01
-44.98
-35.10
-22.88
-10.29
0.91
9.65
15.67
19.30
21.06
21.37
20.54
18.79
16.46
13.98
11.86
10.47
9.97
10.28
11.16
12.34
13.54
14.65
15.60
16.35
16.78
16.72
15.93
14.27
11.75
8.59
5.13
1.71
-1.47
-4.40
-7.15
-9.81
-12.33
-14.54
-16.18
-17.05
-17.14
-16.71
-16.35
-16.73
-18.53
-22.16
-27.55
-34.10
-40.65
-45.69
-47.73
-45.73
-39.51
-29.89
-18.52
-7.40
1.74
7.95
11.24
12.38
12.40
12.17
12.09
12.18
12.31
12.45
12.78
13.54
14.92
16.77
18.65
19.99
20.38
19.66
18.06
15.96
13.76
11.73
9.88
8.04
5.93
3.26
-0.09
-3.99
-8.07
-11.84
-14.89
-17.01
-18.35
-19.29
-20.32
-21.84
-24.07
-27.01
-30.57
-34.55
-38.52
-41.75
-43.26
-42.01
-37.32
-29.24
-18.76
-7.47
2.87
10.97
16.32
19.20
20.24
20.04
18.95
17.00
14.26
10.96
7.68
5.16
4.04
4.59
6.55
9.26
11.83
13.53
13.96
13.13
11.38
9.20
7.03
5.10
3.43
1.87
0.20
-1.81
-4.33
-7.38
-10.84
-14.46
-17.97
-21.11
-23.81
-26.11
-28.27
-30.67
-33.72
-37.75
-42.69
-47.93
-52.22
-53.96
-51.73
-44.86
-33.86
-20.33
-6.48
5.71
15.05
21.32
25.00
26.81
27.28
26.65
25.00
22.52
19.65
17.05
15.33
14.86
15.57
17.06
18.69
19.83
20.09
19.36
17.80
15.72
13.47
11.25
9.15
7.12
5.02
2.71
0.11
-2.81
-5.88
-8.91
-11.63
-13.86
-15.62
-17.12
-18.78
-21.08
-24.42
-28.97
-34.52
-40.35
-45.33
-48.09
-47.43
-42.76
-34.40
-23.57
-11.96
-1.23
7.55
14.03
18.49
21.46
23.36
24.40
24.65
24.21
23.35
22.45
21.92
22.02
22.79
24.09
25.66
27.12
28.12
28.38
27.78
26.37
24.37
22.08
19.69
17.25
14.68
11.83
8.66
5.29
1.96
-1.05
-3.47
-5.21
-6.25
-6.75
-6.92
-7.06
-7.54
-8.79
-11.15
-14.64
-18.72
-22.21
-23.40
-20.65
-13.07
-0.94
14.17
29.90
44.02
55.19
63.29
69.26
74.41
79.72
85.37
90.75
94.66
95.74
92.83
85.26
73.06
57.06
38.78
20.12
3.03
-10.94
-20.81
-26.22
-27.23
-24.31
-18.21
-10.10
-1.47
6.05
11.20
13.58
13.88
13.63
14.62
18.07
24.16
31.94
39.80
46.18
50.28
52.32
53.51
55.61
60.42
69.36
82.96
100.51
119.87
137.73
150.31
154.66
149.75
137.13
120.48
104.20
91.70
84.05
79.79
75.83
69.14
58.18
43.48
27.04
11.11
-3.10
-15.92
-28.81
-43.25
-59.71
-77.19
-93.71
-107.51
-118.03
-126.43
-135.10
-146.58
-162.37
-182.36
-204.87
-227.38
-247.45
-263.43
-274.68
-281.41
-284.19
-283.54
-279.73
-272.90
-263.34
