1680511167.00
64.000000
-0.00
-0.00
-0.00
-0.00
-0.00
-0.00
-0.00
-0.00
-0.00
-0.00
0.00
0.01
0.01
-0.00
-0.03
-0.05
-0.05
0.00
0.13
0.36
0.66
1.01
1.37
1.72
2.06
2.40
2.79
3.24
3.80
4.42
5.06
5.66
6.20
6.68
7.15
7.68
8.31
9.14
10.09
11.04
11.88
12.56
13.14
13.76
14.65
15.96
17.91
20.32
22.90
25.38
27.58
29.57
31.68
34.32
37.81
42.54
48.15
54.10
59.83
64.97
69.58
74.14
79.34
85.71
93.76
103.00
112.62
121.73
129.77
136.75
143.30
150.75
157.77
166.64
177.95
191.79
206.97
220.57
228.25
225.36
208.53
176.87
132.76
80.05
23.07
-34.94
-92.44
-149.16
-205.23
-260.37
-313.74
-363.87
-409.83
-450.91
-486.50
-515.74
-537.23
-549.22
-549.96
-538.37
-514.21
-478.67
-433.88
-382.45
-327.02
-269.84
-212.63
-156.66
-102.96
-52.38
-5.91
35.59
71.45
101.39
125.54
144.38
158.61
168.96
176.07
180.36
182.14
181.64
179.11
174.86
169.28
162.74
155.61
148.15
140.55
132.92
125.28
117.64
110.03
102.44
94.91
87.53
80.40
73.62
67.27
61.35
55.80
50.47
45.22
39.99
34.84
29.94
25.52
21.76
18.65
15.99
13.46
10.72
7.61
4.25
0.99
-1.72
-3.54
-4.45
-4.81
-5.20
-6.20
-8.10
-10.73
-13.53
-15.81
-17.04
-17.16
-16.56
-15.88
-15.82
-16.87
-19.31
-23.09
-27.68
-31.93
-34.03
-31.92
-24.15
-10.81
6.11
23.16
36.69
44.29
45.73
42.66
37.64
32.81
29.12
26.43
24.13
21.92
19.99
18.82
18.61
19.03
19.34
18.70
16.75
13.76
10.41
7.58
5.83
5.26
5.48
5.88
5.86
5.17
3.84
2.22
0.76
-0.19
-0.53
-0.41
-0.16
-0.05
-0.16
-0.25
0.09
1.24
3.33
6.11
9.07
11.61
13.34
14.16
14.23
13.85
13.34
12.92
12.76
12.93
13.40
14.03
14.58
14.74
14.30
13.21
11.60
9.69
7.74
5.77
3.68
1.37
-1.27
-4.27
-7.50
-10.74
-13.71
-16.16
-17.97
-19.07
-19.55
-19.55
-19.19
-18.59
-17.84
-16.98
-16.06
-15.13
-14.19
-13.21
-12.14
-11.03
-9.96
-9.13
-8.70
-8.72
-9.09
-9.50
-9.57
-8.90
-7.23
-4.54
-1.07
2.70
6.17
8.84
10.37
10.75
10.19
9.03
7.62
6.15
4.75
3.45
2.26
1.24
0.45
-0.07
-0.30
-0.24
0.07
0.60
1.31
2.19
3.23
4.44
5.79
7.18
8.50
9.64
10.56
11.29
11.83
12.10
12.01
11.36
9.97
7.84
5.08
1.99
-1.15
-4.15
-6.93
-9.53
-12.01
-14.39
-16.70
-18.94
-21.15
-23.37
-25.69
-28.13
-30.64
-33.05
-35.07
-36.27
-36.15
-34.30
-30.49
-24.76
-17.48
-9.23
-0.78
7.17
14.03
19.43
23.20
25.39
26.16
25.73
24.36
22.29
19.82
17.28
14.94
13.06
11.76
11.05
10.88
11.16
11.78
12.63
13.57
14.43
15.06
15.35
15.22
14.64
13.58
12.04
10.00
7.53
4.72
1.77
-1.11
-3.72
-5.92
-7.70
-9.15
-10.37
-11.53
-12.67
-13.80
-14.86
-15.88
-16.91
-18.12
-19.69
-21.74
-24.21
-26.88
-29.37
-31.18
-31.81
-30.84
-28.05
-23.50
-17.50
-10.51
-3.10
4.21
10.96
16.79
21.43
24.73
26.71
27.51
27.41
26.70
25.55
24.00
22.04
19.66
16.96
14.20
11.66
9.57
8.09
7.22
6.91
7.01
7.37
7.85
8.26
8.49
8.48
8.24
7.83
7.28
6.53
5.48
4.01
2.09
-0.18
-2.58
-4.85
-6.84
-8.57
-10.21
-12.00
-14.21
-16.97
-20.31
-24.02
-27.66
-30.63
-32.24
-31.89
-29.34
-24.71
-18.48
-11.30
-3.83
3.41
10.00
15.62
20.02
23.02
24.63
25.06
24.61
23.62
22.28
20.64
18.70
16.53
14.33
12.34
10.84
9.92
9.54
9.56
9.79
10.12
10.45
10.71
10.80
10.62
10.13
9.34
8.36
7.31
6.26
5.16
3.84
2.13
-0.10
-2.83
-5.89
-9.04
-12.11
-15.00
-17.73
-20.35
-22.96
-25.62
-28.40
-31.30
-34.24
-36.95
-39.03
-39.90
-39.01
-36.07
-31.10
-24.47
-16.77
-8.73
-1.00
5.86
11.44
15.52
18.05
19.22
19.33
18.71
17.68
16.47
15.20
13.89
12.55
11.20
9.87
8.68
7.77
7.29
7.34
7.87
8.73
9.65
10.40
10.82
10.86
10.56
9.96
9.11
8.04
6.80
5.48
4.18
2.94
1.74
0.42
-1.17
-3.15
-5.48
-7.98
-10.44
-12.69
-14.66
-16.41
-18.09
-19.87
-21.88
-24.19
-26.72
-29.25
-31.37
-32.58
-32.34
-30.28
-26.30
-20.62
-13.75
-6.34
0.96
7.57
13.12
17.40
20.35
22.03
22.56
22.14
21.01
19.41
17.57
15.66
13.80
12.11
10.66
9.57
8.93
8.75
9.01
9.54
10.13
10.50
10.38
9.62
8.17
6.13
3.74
1.29
-0.95
-2.87
-4.45
-5.81
-7.06
-8.25
-9.34
-10.30
-11.11
-11.87
-12.72
-13.82
-15.31
-17.24
-19.54
-21.97
-24.12
-25.39
-25.19
-23.07
-18.98
-13.25
-6.58
0.21
6.43
11.61
15.58
18.40
20.23
21.27
21.69
21.59
21.10
20.27
19.16
17.81
16.22
14.45
12.58
10.75
9.13
7.89
7.14
6.91
7.14
7.68
8.34
8.91
9.27
9.32
9.06
8.57
7.94
7.25
6.48
5.57
4.41
2.96
1.32
-0.40
-2.09
-3.77
-5.57
-7.65
-10.08
-12.76
-15.43
-17.71
-19.23
-19.69
-18.89
-16.78
-13.42
-9.03
-3.95
1.38
6.49
10.96
14.50
17.02
18.56
19.25
19.26
18.74
17.83
16.60
15.12
13.50
11.81
10.14
8.59
7.23
6.13
5.37
5.00
5.08
5.59
6.41
7.30
7.96
8.10
7.60
6.53
5.09
3.57
2.13
0.77
-0.68
-2.38
-4.38
-6.51
-8.51
-10.11
-11.19
-11.83
-12.30
-12.90
-13.88
-15.35
-17.31
-19.55
-21.76
-23.54
-24.45
-24.14
-22.45
-19.43
-15.35
-10.64
-5.79
-1.23
2.75
5.99
8.46
10.20
11.21
11.55
11.26
10.44
9.23
7.86
6.51
5.35
4.52
4.05
3.94
4.13
4.55
5.12
5.78
6.47
7.11
7.60
7.80
7.58
6.91
5.85
4.54
3.13
1.72
0.33
-1.08
-2.56
-4.06
-5.46
-6.66
-7.57
-8.21
-8.72
-9.26
-10.01
-11.05
-12.38
-13.94
-15.64
-17.42
-19.14
-20.65
-21.67
-21.91
-21.13
-19.24
-16.38
-12.87
-9.13
-5.53
-2.30
0.48
2.79
4.61
5.94
6.76
7.10
7.05
6.71
6.20
5.62
5.01
4.43
3.92
3.52
3.23
2.99
2.71
2.28
1.62
0.76
-0.22
-1.19
-2.05
-2.73
-3.22
-3.52
-3.64
-3.59
-3.38
-3.09
-2.82
-2.69
-2.78
-3.08
-3.51
-3.94
-4.34
-4.78
-5.50
-6.69
-8.47
-10.67
-12.89
-14.57
-15.24
-14.67
-12.90
-10.18
-6.87
-3.30
0.25
3.56
6.44
8.76
10.43
11.48
11.97
12.02
11.74
11.26
10.71
10.18
9.76
9.45
9.19
8.87
8.45
7.97
7.55
7.32
7.31
7.42
7.41
7.07
6.24
4.91
3.24
1.39
-0.47
-2.20
-3.79
-5.18
-6.37
-7.31
-7.98
-8.36
-8.48
-8.44
-8.29
-8.18
-8.22
-8.52
-9.15
-10.14
-11.43
-12.87
-14.21
-15.13
-15.26
-14.35
-12.29
-9.21
-5.44
-1.44
2.29
5.37
7.56
8.84
9.30
9.16
8.64
8.00
7.43
7.05
6.94
7.09
7.43
7.82
8.16
8.36
8.44
8.49
8.60
8.85
9.21
9.60
9.89
9.92
9.59
8.80
7.58
5.99
4.15
2.19
0.25
-1.56
-3.19
-4.59
-5.75
-6.63
-7.26
-7.68
-7.96
-8.25
-8.61
-9.06
-9.57
-10.07
-10.52
-10.95
-11.50
-12.27
-13.30
-14.44
-15.36
-15.63
-14.87
-12.92
-9.89
-6.19
-2.33
1.15
3.88
5.75
6.87
7.47
7.80
8.02
8.14
8.08
7.74
7.12
6.35
5.64
5.20
5.13
5.41
5.88
6.41
6.84
7.17
7.45
7.71
7.91
7.94
7.64
6.94
5.88
4.65
3.48
2.54
1.92
1.51
1.14
0.62
-0.12
-1.02
-1.91
-2.64
-3.17
-3.57
-3.99
-4.60
-5.44
-6.46
-7.57
-8.66
-9.68
-10.62
-11.47
-12.12
-12.37
-11.95
-10.70
-8.61
-5.88
-2.84
0.11
2.71
4.83
6.45
7.61
8.37
8.75
8.77
8.46
7.87
7.03
5.98
4.81
3.62
2.55
1.77
1.34
1.25
1.47
1.91
2.53
3.22
3.87
4.30
4.38
4.05
3.40
2.63
1.99
1.62
1.47
1.34
0.95
0.07
-1.34
-3.15
-5.18
-7.25
-9.31
-11.37
-13.43
-15.38
-17.01
-18.09
-18.39
-17.82
-16.43
-14.34
-11.65
-8.44
-4.84
-1.02
2.75
6.12
8.82
10.72
11.83
12.23
12.06
11.44
10.45
9.21
7.84
6.45
5.14
3.94
2.89
2.04
1.48
1.34
1.69
2.47
3.48
4.45
5.19
5.56
5.65
5.56
5.39
5.19
4.94
4.64
4.31
3.99
3.71
3.43
3.09
2.68
2.25
1.91
1.78
1.96
2.47
3.25
4.25
5.41
6.63
7.75
8.50
8.53
7.61
5.69
3.02
0.10
-2.46
-4.16
-4.70
-4.16
-2.81
-1.07
0.68
2.17
3.31
4.15
4.80
5.33
5.79
6.15
6.38
6.49
6.55
6.70
7.02
7.49
8.04
8.56
9.05
9.62
10.39
11.48
12.82
14.14
15.13
15.49
15.11
14.05
12.49
10.64
8.66
6.64
4.62
2.60
0.57
-1.47
-3.52
-5.54
-7.47
-9.27
-10.94
-12.52
-14.07
-15.65
-17.29
-18.98
-20.64
-22.19
-23.55
-24.67
-25.59
-26.38
-27.14
-27.90
-28.58
-28.93
-28.62
-27.32
-24.84
-21.20
-16.66
-11.63
-6.63
-2.07
1.74
4.72
6.90
8.38
9.28
9.67
9.59
9.14
8.41
7.54
6.65
5.82
5.05
4.33
3.66
3.08
2.66
2.46
2.51
2.76
3.13
3.46
3.61
3.44
2.89
1.99
0.84
-0.44
-1.73
-2.92
-3.98
-4.89
-5.66
-6.31
-6.86
-7.37
-7.85
-8.28
-8.64
-8.89
-9.08
-9.31
-9.72
-10.45
-11.54
-12.98
-14.65
-16.36
-17.89
-18.95
-19.28
-18.65
-16.90
-14.03
-10.16
-5.56
-0.54
4.52
9.33
13.64
17.31
20.23
22.42
23.87
24.64
24.77
24.32
23.30
21.82
19.98
17.97
15.96
14.12
12.54
11.31
10.46
9.96
9.74
9.66
9.51
9.13
8.42
7.42
6.26
5.10
4.05
3.06
1.97
0.60
-1.16
-3.25
-5.53
-7.80
-9.94
-11.89
-13.71
-15.47
-17.22
-18.94
-20.64
-22.31
-23.96
-25.56
-26.95
-27.84
-27.87
-26.72
-24.28
-20.66
-16.15
-11.11
-5.87
-0.70
4.19
8.60
12.33
15.27
17.40
18.79
19.58
19.84
19.59
18.85
17.67
16.19
14.63
13.20
12.07
11.27
10.76
10.52
10.50
10.70
11.08
11.56
11.99
12.25
12.28
12.07
11.67
11.14
10.51
9.80
8.99
8.09
7.12
6.11
5.03
3.82
2.38
0.59
-1.61
-4.14
-6.85
-9.58
-12.17
-14.62
-17.04
-19.63
-22.55
-25.76
-29.04
-31.93
-33.87
-34.36
-33.07
-29.95
-25.18
-19.18
-12.49
-5.69
0.64
6.07
10.35
13.42
15.43
16.59
17.13
17.21
16.94
16.33
15.44
14.37
13.24
12.21
11.40
10.93
10.85
11.13
11.71
12.43
13.08
13.44
13.38
12.85
11.94
10.81
9.61
8.42
7.19
5.81
4.20
2.35
0.34
-1.66
-3.55
-5.25
-6.76
-8.10
-9.27
-10.25
-11.01
-11.54
-11.92
-12.21
-12.53
-13.00
-13.74
-14.93
-16.68
-18.98
-21.68
-24.36
-26.45
-27.34
-26.60
-24.04
-19.81
-14.35
-8.26
-2.15
3.48
8.28
12.08
14.83
16.54
17.28
17.14
16.29
14.96
13.42
11.89
10.53
9.36
8.37
7.57
7.06
7.00
7.52
8.64
10.23
12.01
13.70
15.07
15.97
16.35
16.17
15.45
14.21
12.56
10.61
8.48
6.22
3.86
1.40
-1.17
-3.77
-6.33
-8.71
-10.88
-12.88
-14.81
-16.77
-18.85
-21.07
-23.42
-25.84
-28.16
-30.14
-31.34
-31.35
-29.77
-26.42
-21.41
-15.11
-8.06
-0.88
5.90
11.89
16.84
20.69
23.51
25.39
26.43
26.69
26.17
24.92
23.10
20.96
18.76
16.75
15.08
13.81
12.90
12.34
12.04
11.97
12.03
12.12
12.09
11.80
11.16
10.15
8.87
7.48
6.11
4.82
3.53
2.09
0.38
-1.67
-4.01
-6.52
-9.09
-11.64
-14.12
-16.47
-18.62
-20.56
-22.35
-24.21
-26.38
-28.98
-31.75
-34.10
-35.24
-34.42
-31.29
-25.98
-18.99
-11.06
-2.92
4.86
11.84
17.69
22.18
25.20
26.79
27.15
26.61
25.48
24.00
22.29
20.42
18.47
16.54
14.79
13.40
12.44
11.92
11.74
11.77
11.93
12.15
12.40
12.59
12.60
12.31
11.61
10.51
9.12
7.60
6.11
4.72
3.41
2.06
0.54
-1.24
-3.31
-5.67
-8.26
-10.98
-13.68
-16.22
-18.49
-20.48
-22.28
-24.10
-26.16
-28.66
-31.63
-34.85
-37.92
-40.21
-41.12
-40.09
-36.84
-31.42
-24.21
-15.83
-7.04
1.44
9.02
15.34
20.17
23.48
25.34
25.93
25.53
24.45
23.00
21.40
19.74
18.01
16.14
14.16
12.19
10.49
9.37
9.05
9.59
10.78
12.26
13.59
14.39
14.47
13.84
12.67
11.19
9.56
7.87
6.15
4.36
2.50
0.58
-1.42
-3.56
-5.88
-8.46
-11.23
-14.04
-16.64
-18.78
-20.33
-21.33
-21.94
-22.40
-22.91
-23.59
-24.52
-25.75
-27.33
-29.26
-31.32
-32.99
-33.54
-32.25
-28.66
-22.82
-15.30
-7.00
1.13
8.40
14.45
19.19
22.64
24.80
25.62
25.07
23.34
20.79
17.89
15.07
12.60
10.53
8.84
7.51
6.65
6.44
7.05
8.52
10.65
13.10
15.44
17.28
18.35
18.61
18.13
17.10
15.73
14.18
12.56
10.89
9.10
7.12
4.91
2.49
-0.08
-2.68
-5.21
-7.66
-10.06
-12.52
-15.17
-18.12
-21.42
-24.93
-28.34
-31.13
-32.63
-32.24
-29.54
-24.50
-17.50
-9.25
-0.61
7.64
14.90
20.87
25.41
28.62
30.63
31.64
31.77
31.14
29.84
27.98
25.74
23.41
21.29
19.66
18.72
18.53
18.98
19.87
20.91
21.85
22.51
22.76
22.50
21.65
20.16
18.04
15.39
12.40
9.34
6.44
3.84
1.56
-0.42
-2.16
-3.72
-5.12
-6.47
-7.86
-9.39
-11.06
-12.86
-14.68
-16.50
-18.36
-20.37
-22.65
-25.29
-28.27
-31.45
-34.50
-36.90
-38.06
-37.39
-34.48
-29.36
-22.44
-14.43
-6.20
1.44
7.91
12.84
16.15
17.97
18.54
18.21
17.28
16.00
14.54
12.97
11.35
9.79
8.40
7.32
6.60
6.27
6.32
6.69
7.37
8.30
9.39
10.48
11.36
11.85
11.83
11.30
10.39
9.29
8.21
7.32
6.66
6.18
5.76
5.23
4.45
3.37
2.05
0.61
-0.76
-1.91
-2.83
-3.61
-4.43
-5.44
-6.71
-8.16
-9.69
-11.16
-12.53
-13.80
-15.07
-16.42
-17.97
-19.85
-22.16
-24.92
-27.90
-30.61
-32.33
-32.31
-30.02
-25.40
-18.92
-11.39
-3.74
3.24
9.07
13.59
16.83
18.94
20.06
20.32
19.84
18.77
17.27
15.52
13.67
11.86
10.18
8.67
7.41
6.43
5.83
5.69
6.13
7.13
8.57
10.14
11.45
12.12
11.96
10.95
9.35
7.47
5.61
3.88
2.30
0.77
-0.75
-2.24
-3.63
-4.88
-5.98
-6.97
-7.90
-8.78
-9.58
-10.27
-10.82
-11.25
-11.59
-11.84
-12.04
-12.21
-12.43
-12.87
-13.73
-15.16
-17.22
-19.76
-22.41
-24.64
-25.89
-25.67
-23.74
-20.13
-15.16
-9.33
-3.20
2.70
7.99
12.42
15.81
18.08
19.28
19.53
19.05
18.10
16.88
15.48
13.91
12.14
10.22
8.24
6.40
4.91
3.92
3.49
3.59
4.13
4.95
5.86
6.62
7.01
6.92
6.35
5.37
4.18
2.92
1.65
0.37
-0.96
-2.39
-3.97
-5.72
-7.63
-9.62
-11.58
-13.35
-14.79
-15.88
-16.68
-17.42
-18.30
-19.40
-20.64
-21.75
-22.33
-21.98
-20.42
-17.52
-13.36
-8.24
-2.60
3.02
8.09
12.19
15.16
16.97
17.80
17.92
17.56
16.92
16.15
15.32
14.51
13.79
13.21
12.86
12.78
13.02
13.56
14.30
15.14
15.93
16.58
16.99
17.10
16.89
16.35
15.51
14.40
13.12
11.77
10.47
9.28
8.14
6.95
5.55
3.91
2.08
0.21
-1.59
-3.31
-5.11
-7.20
-9.71
-12.57
-15.51
-18.19
-20.31
-21.78
-22.70
-23.32
-23.94
-24.79
-26.03
-27.61
-29.31
-30.70
-31.26
-30.48
-28.04
-23.94
-18.52
-12.35
-6.07
-0.24
4.77
8.71
11.51
13.16
13.78
13.54
12.69
11.44
9.94
8.29
6.56
4.81
3.13
1.64
0.50
-0.14
-0.18
0.45
1.71
3.51
5.65
7.93
10.12
12.04
13.53
14.47
14.77
14.44
13.57
12.38
11.07
9.75
8.43
7.00
5.37
3.53
1.57
-0.38
-2.20
-3.86
-5.40
-6.88
-8.32
-9.70
-10.92
-11.92
-12.65
-13.14
-13.50
-13.88
-14.50
-15.51
-17.01
-19.00
-21.43
-24.18
-27.12
-30.05
-32.67
-34.52
-35.10
-34.00
-31.08
-26.50
-20.73
-14.41
-8.13
-2.31
2.82
7.22
10.95
14.05
16.51
18.30
19.43
19.97
20.07
19.86
19.48
18.99
18.42
17.85
17.39
17.16
17.24
17.55
17.93
18.14
18.04
17.61
16.98
16.32
15.77
15.36
15.00
14.51
13.71
12.40
10.50
8.02
5.13
2.04
-0.99
-3.75
-6.15
-8.20
-9.97
-11.56
-13.07
-14.50
-15.85
-17.07
-18.11
-18.90
-19.46
-19.87
-20.30
-20.92
-21.82
-22.93
-23.96
-24.49
-24.05
-22.27
-19.04
-14.51
-9.10
-3.36
2.17
7.05
11.05
14.11
16.28
17.69
18.43
18.53
18.06
17.10
15.80
14.31
12.76
11.23
9.76
8.40
7.25
6.49
6.24
6.57
7.39
8.49
9.62
10.55
11.13
11.34
11.21
10.77
10.04
9.01
7.67
6.05
4.21
2.28
0.36
-1.43
-3.07
-4.59
-6.05
-7.48
-8.90
-10.26
-11.47
-12.48
-13.33
-14.15
-15.11
-16.45
-18.34
-20.80
-23.65
-26.57
-29.03
-30.46
-30.37
-28.45
-24.67
-19.37
-13.13
-6.67
-0.66
4.44
8.38
11.23
13.15
14.38
15.11
15.41
15.32
14.89
14.19
13.34
12.46
11.65
10.96
10.44
10.15
10.16
10.55
11.34
12.43
13.65
14.78
15.60
16.01
15.99
15.62
15.00
14.22
13.29
12.21
10.98
9.58
8.02
6.31
4.55
2.87
1.38
0.13
-0.95
-2.04
-3.37
-5.10
-7.20
-9.50
-11.76
-13.80
-15.60
-17.33
-19.20
-21.43
-24.08
-27.10
-30.37
-33.67
-36.74
-39.19
-40.52
-40.22
-37.87
-33.38
-27.06
-19.57
-11.75
-4.38
2.03
7.28
11.38
14.48
16.68
18.07
18.70
18.66
18.08
17.08
15.78
14.32
12.75
11.18
9.70
8.41
7.41
6.74
6.44
6.53
6.99
7.77
8.76
9.83
10.88
11.89
12.93
14.11
15.51
17.07
18.63
19.93
20.74
20.89
20.38
19.27
17.71
15.85
13.79
11.61
9.34
7.00
4.58
2.11
-0.34
-2.69
-4.89
-6.93
-8.90
-10.89
-12.96
-15.11
-17.28
-19.45
-21.66
-24.04
-26.70
-29.54
-32.21
-34.11
-34.52
-32.94
-29.24
-23.75
-17.17
-10.31
-3.89
1.64
6.12
9.61
12.26
14.16
15.36
15.88
15.81
15.26
14.41
13.38
12.28
11.19
10.18
9.34
8.81
8.67
8.99
9.75
10.86
12.16
13.45
14.50
15.09
15.05
14.31
12.91
10.95
8.59
6.01
3.40
0.96
-1.16
-2.87
-4.19
-5.21
-6.08
-6.95
-7.89
-8.88
-9.89
-10.90
-11.93
-13.02
-14.24
-15.60
-17.15
-18.95
-21.07
-23.47
-25.96
-28.15
-29.48
-29.39
-27.50
-23.78
-18.51
-12.29
-5.83
0.20
5.36
9.42
12.37
14.32
15.43
15.82
15.61
14.92
13.92
12.81
11.78
11.00
10.54
10.44
10.68
11.28
12.23
13.52
15.10
16.85
18.57
20.07
21.10
21.51
21.22
20.29
18.92
17.35
15.76
14.25
12.79
11.30
9.70
8.02
6.33
4.76
3.37
2.22
1.26
0.39
-0.51
-1.58
-2.92
-4.61
-6.60
-8.74
-10.87
-12.82
-14.55
-16.11
-17.70
-19.51
-21.74
-24.47
-27.59
-30.80
-33.59
-35.30
-35.29
-33.15
-28.81
-22.62
-15.29
-7.69
-0.62
5.35
9.97
13.22
15.26
16.34
16.68
16.44
15.75
14.71
13.42
11.98
10.51
9.16
8.07
7.38
7.25
7.79
9.06
10.98
13.30
15.62
17.47
18.53
18.72
18.24
17.45
16.65
15.93
15.22
14.32
13.14
11.72
10.27
8.94
7.74
6.58
5.31
3.87
2.36
0.91
-0.34
-1.41
-2.45
-3.64
-5.11
-6.86
-8.83
-10.87
-12.87
-14.81
-16.72
-18.66
-20.73
-23.01
-25.55
-28.30
-31.04
-33.42
-34.94
-35.15
-33.70
-30.54
-25.82
-19.90
-13.25
-6.31
0.44
6.55
11.65
15.49
18.01
19.38
19.88
19.79
19.27
18.40
17.18
15.72
14.20
12.87
11.95
11.50
11.50
11.83
12.38
13.06
13.81
14.56
15.22
15.68
15.84
15.66
15.12
14.23
13.00
11.48
9.73
7.80
5.72
3.54
1.23
-1.21
-3.73
-6.23
-8.56
-10.62
-12.33
-13.75
-14.95
-16.03
-17.02
-17.92
-18.69
-19.39
-20.15
-21.13
-22.33
-23.52
-24.23
-23.90
-22.05
-18.54
-13.62
-7.86
-1.94
3.58
8.34
12.18
15.10
17.16
18.40
18.91
18.79
18.19
17.30
16.25
15.18
14.12
13.08
12.05
11.07
10.26
9.73
9.55
9.70
10.02
10.33
10.43
10.28
9.88
9.31
8.60
7.70
6.54
5.10
3.41
1.60
-0.18
-1.86
-3.41
-4.88
-6.32
-7.78
-9.23
-10.64
-11.91
-12.96
-13.72
-14.22
-14.57
-15.00
-15.74
-16.97
-18.70
-20.76
-22.78
-24.33
-24.97
-24.35
-22.30
-18.90
-14.45
-9.38
-4.21
0.63
4.85
8.29
10.89
12.67
13.67
13.98
13.68
12.90
11.80
10.59
9.46
8.56
7.99
7.76
7.87
8.28
8.97
9.93
11.10
12.37
13.58
14.58
15.20
15.36
15.11
14.48
13.61
12.60
11.50
10.35
9.06
7.54
5.73
3.63
1.31
-1.11
-3.53
-5.90
-8.22
-10.46
-12.64
-14.76
-16.83
-18.89
-20.95
-22.98
-24.87
-26.58
-28.05
-29.33
-30.41
-31.19
-31.43
-30.78
-28.96
-25.86
-21.60
-16.49
-10.91
-5.20
0.35
5.45
9.83
13.23
15.46
16.49
16.47
15.68
14.44
13.01
11.54
10.08
8.67
7.37
6.28
5.54
5.24
5.37
5.86
6.58
7.40
8.24
9.04
9.71
10.16
10.27
9.98
9.34
8.46
7.47
6.49
5.53
4.53
3.38
2.02
0.36
-1.59
-3.80
-6.13
-8.44
-10.58
-12.46
-14.09
-15.56
-17.02
-18.59
-20.32
-22.16
-23.99
-25.58
-26.61
-26.73
-25.60
-23.02
-19.00
-13.82
-7.90
-1.79
4.04
9.27
13.63
17.02
19.33
20.59
20.91
20.51
19.66
18.59
17.38
16.01
14.47
12.82
11.29
10.15
9.57
9.55
9.86
10.18
10.24
9.97
9.42
8.73
8.05
7.40
6.77
6.16
5.55
4.94
4.30
3.57
2.69
1.67
0.51
-0.72
-1.97
-3.23
-4.53
-5.94
-7.46
-9.10
-10.77
-12.42
-14.00
-15.55
-17.14
-18.85
-20.76
-22.82
-24.85
-26.50
-27.30
-26.82
-24.75
-21.06
-16.00
-10.01
-3.68
2.44
7.92
12.48
15.95
18.32
19.65
20.12
19.88
19.13
18.02
16.70
15.32
14.03
13.03
12.46
12.40
12.81
13.63
14.77
16.15
17.75
19.48
21.20
22.63
23.48
23.47
22.51
20.70
18.38
15.90
13.54
11.38
9.28
6.98
4.28
1.14
-2.21
-5.45
-8.25
-10.45
-12.08
-13.37
-14.56
-15.84
-17.26
-18.83
-20.48
-22.19
-23.98
-25.85
-27.73
-29.56
-31.25
-32.78
-34.17
-35.35
-36.11
-36.04
-34.65
-31.54
-26.63
-20.20
-12.89
-5.43
1.50
7.43
12.12
15.46
17.51
18.40
18.34
17.61
16.47
15.17
13.90
12.75
11.81
11.11
10.67
10.48
10.58
10.99
11.70
12.68
13.84
15.05
16.11
16.85
17.12
16.83
15.98
14.69
13.15
11.54
10.04
8.75
7.61
6.54
5.41
4.16
2.82
1.50
0.37
-0.48
-1.07
-1.57
-2.28
-3.47
-5.27
-7.58
-10.10
-12.53
-14.69
-16.58
-18.38
-20.32
-22.55
-25.09
-27.81
-30.41
-32.52
-33.68
-33.45
-31.53
-27.83
-22.55
-16.20
-9.44
-2.96
2.72
7.31
10.77
13.18
14.75
15.63
15.92
15.64
14.85
13.58
12.00
10.35
8.91
7.93
7.59
7.94
8.91
10.34
12.03
13.73
15.22
16.30
16.87
16.95
16.65
16.11
15.46
14.65
13.59
12.12
10.20
7.93
5.51
3.19
1.17
-0.49
-1.86
-3.10
-4.35
-5.72
-7.26
-8.96
-10.73
-12.57
-14.47
-16.54
-18.88
-21.60
-24.62
-27.72
-30.43
-32.17
-32.36
-30.60
-26.82
-21.22
-14.36
-6.94
0.34
6.89
12.39
16.69
19.81
21.82
22.81
22.86
22.08
20.66
18.86
16.93
15.15
13.68
12.61
11.97
11.75
11.93
12.51
13.42
14.57
15.85
17.11
18.14
18.77
18.87
18.40
17.42
16.05
14.50
12.92
11.43
10.10
8.92
7.84
6.84
5.86
4.89
3.92
2.92
1.79
0.40
-1.39
-3.65
-6.36
-9.40
-12.52
-15.46
-18.04
-20.22
-22.12
-23.98
-26.14
-28.83
-32.16
-36.02
-40.04
-43.65
-46.17
-46.93
-45.45
-41.60
-35.59
-28.03
-19.70
-11.47
-3.97
2.37
7.40
11.14
13.67
15.08
15.48
15.02
13.89
12.38
10.75
9.22
7.91
6.85
6.02
5.42
5.09
5.12
5.54
6.28
7.07
7.55
7.40
6.44
4.76
2.60
0.22
-2.19
-4.64
-7.24
-10.05
-13.06
-16.07
-18.85
-21.19
-22.96
-24.06
-24.43
-23.95
-22.42
-19.74
-15.91
-11.17
-5.93
-0.66
4.23
8.46
11.93
14.59
16.38
17.21
16.98
15.69
13.45
10.49
7.04
3.26
-0.81
-5.12
-9.55
-13.75
-17.16
-19.18
-19.32
-17.40
-13.57
-8.30
-2.19
4.15
10.23
15.64
20.09
23.38
25.36
25.93
25.15
23.20
20.42
17.24
14.08
11.29
9.09
7.57
6.72
6.45
6.67
7.32
8.39
9.89
11.85
14.20
16.74
19.24
21.36
22.86
23.57
23.47
22.63
21.17
19.21
16.94
14.54
12.16
9.90
7.74
5.58
3.35
1.05
-1.23
-3.35
-5.24
-6.91
-8.48
-10.04
-11.65
-13.26
-14.81
-16.30
-17.80
-19.46
-21.39
-23.62
-26.02
-28.31
-30.08
-30.90
-30.30
-27.97
-23.84
-18.11
-11.30
-4.08
2.88
9.07
14.20
18.17
21.01
22.78
23.60
23.63
23.07
22.06
20.68
18.93
16.77
14.27
11.65
9.25
7.45
6.47
6.29
6.64
7.20
7.66
7.86
7.78
7.52
7.15
6.72
6.23
5.68
5.08
4.44
3.77
3.01
2.08
0.88
-0.65
-2.51
-4.60
-6.80
-8.98
-11.05
-12.97
-14.73
-16.23
-17.38
-18.04
-18.17
-17.89
-17.48
-17.31
-17.70
-18.84
-20.68
-22.91
-25.03
-26.43
-26.55
-24.99
-21.65
-16.77
-10.81
-4.36
1.99
7.78
12.62
16.30
18.69
19.85
19.96
19.29
18.19
16.93
15.71
14.61
13.70
12.99
12.52
12.32
12.39
12.75
13.37
14.24
15.36
16.67
18.06
19.35
20.32
20.77
20.58
19.80
18.62
17.30
16.11
15.21
14.58
14.04
13.36
12.36
10.98
9.28
7.38
5.34
3.15
0.70
-2.06
-5.09
-8.15
-10.98
-13.34
-15.11
-16.37
-17.31
-18.12
-18.97
-19.92
-21.03
-22.34
-23.92
-25.71
-27.51
-28.89
-29.27
-28.12
-25.17
-20.55
-14.72
-8.36
-2.15
3.43
8.10
11.78
14.43
16.06
16.72
16.50
15.64
14.41
13.11
11.93
10.94
10.09
9.35
8.73
8.32
8.31
8.90
10.23
12.27
14.81
17.49
19.88
21.59
22.36
22.08
20.86
18.93
16.55
13.99
11.47
9.09
6.89
4.83
2.84
0.79
-1.41
-3.80
-6.35
-8.98
-11.62
-14.18
-16.64
-18.99
-21.28
-23.51
-25.73
-27.89
-29.98
-31.95
-33.78
-35.51
-37.22
-38.96
-40.62
-41.91
-42.38
-41.54
-39.05
-34.83
-29.10
-22.31
-15.01
-7.75
-1.00
4.87
9.60
13.04
15.20
16.20
16.28
15.73
14.82
13.75
12.66
11.60
10.63
9.78
9.11
8.72
8.66
8.99
9.65
10.56
11.60
12.60
13.44
13.95
14.00
13.51
12.48
11.03
9.36
7.64
6.00
4.43
2.76
0.84
-1.41
-3.95
-6.62
-9.21
-11.56
-13.61
-15.42
-17.11
-18.81
-20.65
-22.68
-24.82
-26.79
-28.16
-28.43
-27.10
-23.92
-18.94
-12.51
-5.20
2.31
9.46
15.77
20.95
24.87
27.47
28.84
29.18
28.70
27.64
26.15
24.33
22.24
19.94
17.57
15.33
13.48
12.25
11.73
11.86
12.43
13.16
13.74
13.95
13.70
13.06
12.16
11.15
10.15
9.19
8.20
7.06
5.70
4.06
2.22
0.28
-1.62
-3.38
-4.98
-6.47
-7.96
-9.53
-11.23
-13.01
-14.77
-16.42
-17.96
-19.54
-21.37
-23.72
-26.67
-30.06
-33.41
-36.02
-37.09
-36.04
-32.64
-27.13
-20.10
-12.33
-4.52
2.79
9.28
14.73
18.98
21.93
23.52
23.86
23.23
22.02
20.60
19.26
18.07
17.03
16.05
15.15
14.43
14.04
14.14
14.78
15.89
17.32
18.81
20.15
21.16
21.75
21.86
21.48
20.68
19.53
18.18
16.72
15.24
13.74
12.21
10.60
8.88
7.02
5.01
2.82
0.47
-2.00
-4.50
-6.86
-8.95
-10.69
-12.10
-13.32
-14.53
-15.88
-17.38
-18.98
-20.55
-22.00
-23.32
-24.58
-25.92
-27.43
-29.16
-31.05
-32.94
-34.48
-35.20
-34.55
-32.08
-27.56
-21.23
-13.67
-5.77
1.63
7.89
12.75
16.23
18.49
19.73
20.07
19.62
18.53
17.04
15.47
14.11
13.12
12.53
12.25
12.22
12.41
12.85
13.61
14.66
15.92
17.18
18.21
18.86
19.04
18.80
18.22
17.38
16.36
15.17
13.84
12.42
10.98
9.57
8.22
6.89
5.50
3.98
2.32
0.59
-1.08
-2.56
-3.78
-4.78
-5.64
-6.54
-7.63
-9.02
-10.75
-12.75
-14.86
-16.86
-18.58
-19.94
-21.08
-22.30
-23.96
-26.28
-29.25
-32.54
-35.52
-37.47
-37.78
-36.06
-32.27
-26.67
-19.77
-12.22
-4.76
2.00
7.59
11.78
14.59
16.15
16.67
16.31
15.24
13.62
11.68
9.68
7.91
6.59
5.81
5.63
6.04
7.01
8.50
10.39
12.45
14.44
16.08
17.21
17.79
17.90
17.67
17.21
16.57
15.74
14.68
13.29
11.54
9.45
7.10
4.63
2.24
0.07
-1.80
-3.35
-4.65
-5.76
-6.75
-7.72
-8.76
-9.96
-11.39
-13.06
-14.89
-16.79
-18.71
-20.65
-22.75
-25.13
-27.81
-30.53
-32.76
-33.79
-32.96
-29.89
-24.62
-17.65
-9.75
-1.77
5.54
11.65
16.30
19.51
21.42
22.31
22.42
21.93
20.90
19.42
17.62
15.73
14.05
12.84
12.25
12.24
12.66
13.33
14.18
15.22
16.42
17.74
18.97
19.84
20.16
19.82
18.88
17.49
15.81
14.00
12.15
10.35
8.68
7.18
5.84
4.56
3.23
1.74
0.05
-1.75
-3.59
-5.38
-7.10
-8.75
-10.38
-12.00
-13.64
-15.34
-17.11
-18.95
-20.84
-22.68
-24.45
-26.14
-27.91
-29.94
-32.29
-34.73
-36.75
-37.63
-36.74
-33.75
-28.77
-22.28
-14.97
-7.53
-0.50
5.77
11.09
15.38
18.57
20.61
21.52
21.39
20.46
19.02
17.38
15.79
14.38
13.19
12.23
11.56
11.25
11.43
12.13
13.28
14.72
16.21
17.50
18.38
18.69
18.39
17.46
16.04
14.32
12.50
10.76
9.15
7.66
6.23
4.85
3.54
2.34
1.25
0.21
-0.88
-2.08
-3.42
-4.89
-6.47
-8.20
-10.11
-12.23
-14.51
-16.81
-18.96
-20.80
-22.26
-23.37
-24.31
-25.30
-26.57
-28.34
-30.59
-33.12
-35.43
-36.86
-36.71
-34.52
-30.21
-24.09
-16.79
-9.11
-1.75
4.80
10.27
14.54
17.58
19.44
20.20
20.05
19.25
18.06
16.68
15.18
13.58
11.89
10.23
8.79
7.83
7.46
7.65
8.24
9.01
9.80
10.51
11.15
11.68
12.00
11.99
11.56
10.69
9.51
8.22
7.02
6.02
5.23
4.58
3.99
3.40
2.78
2.14
1.48
0.75
-0.12
-1.16
-2.44
-4.02
-5.95
-8.19
-10.64
-13.11
-15.34
-17.16
-18.55
-19.65
-20.66
-21.79
-23.18
-24.85
-26.76
-28.75
-30.57
-31.81
-31.99
-30.63
-27.45
-22.49
-16.08
-8.83
-1.44
5.48
11.47
16.25
19.71
21.86
22.80
22.71
21.78
20.20
18.15
15.81
13.39
11.14
9.30
8.06
7.56
7.79
8.66
10.02
11.72
13.60
15.50
17.24
18.57
19.29
19.27
18.52
17.21
15.59
13.86
12.17
10.52
8.87
7.16
5.35
3.47
1.57
-0.31
-2.08
-3.68
-5.00
-6.00
-6.66
-7.03
-7.19
-7.25
-7.31
-7.48
-7.82
-8.40
-9.20
-10.18
-11.24
-12.29
-13.27
-14.18
-15.04
-15.88
-16.73
-17.60
-18.58
-19.76
-21.26
-23.12
-25.20
-27.12
-28.32
-28.20
-26.25
-22.28
-16.51
-9.53
-2.14
4.88
10.91
15.60
18.89
20.83
21.60
21.40
20.41
18.87
17.00
15.04
13.20
11.59
10.32
9.40
8.89
8.85
9.35
10.45
12.13
14.30
16.74
19.12
21.12
22.46
22.99
22.71
21.78
20.42
18.79
17.07
15.33
13.61
11.92
10.18
8.31
6.17
3.73
1.04
-1.70
-4.23
-6.35
-8.00
-9.26
-10.32
-11.39
-12.61
-14.01
-15.55
-17.09
-18.52
-19.78
-20.88
-21.90
-23.00
-24.37
-26.12
-28.26
-30.63
-32.81
-34.25
-34.30
-32.46
-28.49
-22.57
-15.24
-7.27
0.51
7.44
13.14
17.52
20.68
22.78
23.99
24.39
24.08
23.18
21.86
20.34
18.80
17.38
16.13
15.06
14.22
13.67
13.48
13.70
14.31
15.15
15.94
16.40
16.32
15.63
14.43
12.90
11.27
9.73
8.36
7.14
6.03
4.95
3.90
2.88
1.90
0.95
-0.07
-1.23
-2.59
-4.16
-5.89
-7.74
-9.70
-11.80
-14.05
-16.42
-18.80
-21.01
-22.86
-24.22
-25.07
-25.51
-25.78
-26.12
-26.77
-27.82
-29.24
-30.80
-32.09
-32.61
-31.88
-29.57
-25.61
-20.22
-13.84
-7.04
-0.38
5.72
10.97
15.20
18.33
20.31
21.20
21.15
20.40
19.19
17.77
16.27
14.72
13.10
11.41
9.72
8.16
6.92
6.17
6.03
6.47
7.35
8.39
9.33
9.97
10.21
10.08
9.70
9.14
8.48
7.72
6.87
5.99
5.08
4.17
3.20
2.07
0.69
-0.90
-2.54
-3.99
-5.09
-5.80
-6.30
-6.87
-7.75
-9.01
-10.47
-11.91
-13.09
-13.97
-14.68
-15.41
-16.39
-17.70
-19.35
-21.33
-23.53
-25.80
-27.83
-29.15
-29.25
-27.75
-24.57
-20.03
-14.69
-9.19
-4.04
0.53
4.47
7.78
10.46
12.45
13.72
14.31
14.35
14.02
13.42
12.56
11.41
10.00
8.50
7.18
6.27
5.93
6.08
6.60
7.31
8.07
8.82
9.52
10.13
10.57
10.79
10.77
10.53
10.12
9.55
8.83
7.92
6.85
5.66
4.41
3.11
1.73
0.18
-1.64
-3.76
-6.13
-8.62
-11.07
-13.34
-15.39
-17.24
-18.98
-20.69
-22.44
-24.20
-25.86
-27.20
-27.94
-27.74
-26.32
-23.51
-19.36
-14.18
-8.40
-2.55
2.89
7.61
11.45
14.43
16.61
18.09
18.91
19.09
18.64
17.60
16.14
14.46
12.80
11.35
10.20
9.35
8.75
8.38
8.22
8.28
8.54
8.93
9.32
9.60
9.68
9.54
9.22
8.78
8.27
7.72
7.09
6.32
5.33
4.06
2.53
0.85
-0.81
-2.31
-3.56
-4.55
-5.40
-6.25
-7.24
-8.45
-9.87
-11.47
-13.19
-14.94
-16.66
-18.29
-19.81
-21.28
-22.76
-24.36
-26.07
-27.73
-29.03
-29.47
-28.57
-25.99
-21.67
-15.92
-9.28
-2.41
4.09
9.80
14.48
18.02
20.43
21.76
22.14
21.74
20.80
19.51
18.09
16.64
15.23
13.86
12.53
11.28
10.17
9.26
8.58
8.12
7.80
7.51
7.23
6.94
6.66
6.45
6.28
6.12
5.96
5.73
5.45
5.07
4.57
3.91
3.07
2.12
1.14
0.24
-0.56
-1.29
-2.01
-2.78
-3.64
-4.56
-5.56
-6.62
-7.71
-8.82
-9.90
-10.91
-11.90
-12.97
-14.26
-15.91
-17.90
-20.09
-22.18
-23.76
-24.44
-23.87
-21.89
-18.52
-14.01
-8.80
-3.41
1.68
6.09
9.64
12.28
14.06
15.09
15.54
15.57
15.36
15.07
14.79
14.51
14.18
13.76
13.28
12.85
12.66
12.82
13.37
14.20
15.06
15.74
16.05
15.94
15.42
14.56
13.42
12.05
10.50
8.83
7.11
5.42
3.78
2.15
0.48
-1.27
-3.06
-4.83
-6.50
-8.01
-9.38
-10.67
-11.97
-13.28
-14.61
-15.90
-17.13
-18.33
-19.58
-20.89
-22.14
-23.06
-23.30
-22.46
-20.29
-16.75
-12.07
-6.64
-1.01
4.34
9.07
12.98
15.98
18.07
19.28
19.63
19.19
18.12
16.63
14.94
13.30
11.85
10.65
9.70
8.91
8.26
7.74
7.37
7.21
7.27
7.52
7.91
8.33
8.76
9.14
9.45
9.64
9.63
9.38
8.86
8.11
7.23
6.30
5.35
4.34
3.21
1.90
0.41
-1.21
-2.85
-4.41
-5.85
-7.20
-8.50
-9.81
-11.17
-12.56
-13.93
-15.30
-16.70
-18.27
-20.13
-22.29
-24.55
-26.50
-27.60
-27.37
-25.50
-22.02
-17.27
-11.78
-6.18
-0.98
3.48
7.10
9.89
11.95
13.36
14.16
14.39
14.15
13.58
12.90
12.29
11.85
11.61
11.54
11.63
11.91
12.43
13.20
14.21
15.34
16.38
17.14
17.49
17.34
16.78
15.91
14.90
13.86
12.81
11.72
10.51
9.12
7.56
5.85
4.04
2.17
0.29
-1.59
-3.39
-5.03
-6.40
-7.45
-8.23
-8.87
-9.53
-10.36
-11.43
-12.66
-13.92
-15.06
-16.01
-16.80
-17.54
-18.40
-19.48
-20.82
-22.32
-23.71
-24.61
-24.61
-23.35
-20.68
-16.71
-11.87
-6.71
-1.81
2.47
5.98
8.72
10.76
12.12
12.76
12.68
11.94
10.76
9.42
8.17
7.20
6.53
6.11
5.92
5.98
6.31
6.96
7.88
8.95
10.05
11.06
11.95
12.70
13.32
13.77
13.95
13.74
13.08
11.97
10.57
9.07
7.70
6.57
5.63
4.75
3.71
2.36
0.67
-1.25
-3.21
-5.04
-6.65
-8.04
-9.26
-10.38
-11.44
-12.47
-13.52
-14.60
-15.74
-16.91
-18.08
-19.24
-20.43
-21.75
-23.30
-25.09
-26.99
-28.72
-29.89
-30.10
-29.03
-26.51
-22.54
-17.37
-11.38
-5.09
0.94
6.22
10.40
13.28
14.86
15.28
14.76
13.54
11.84
9.85
7.71
5.52
3.39
1.43
-0.20
-1.34
-1.83
-1.58
-0.58
1.06
3.15
5.44
7.70
9.73
11.33
12.35
12.72
12.48
11.82
11.00
10.23
9.60
9.04
8.37
7.42
6.11
4.50
2.69
0.76
-1.28
-3.50
-5.92
-8.50
-11.09
-13.51
-15.61
-17.39
-18.99
-20.64
-22.55
-24.80
-27.24
-29.48
-31.00
-31.23
-29.76
-26.43
-21.39
-15.06
-8.04
-0.97
5.57
11.14
15.49
18.53
20.32
21.01
20.83
20.04
18.87
17.55
16.28
15.18
14.31
13.69
13.31
13.16
13.29
13.74
14.54
15.64
16.85
17.92
18.61
18.77
18.38
17.57
16.48
15.28
14.07
12.88
11.72
10.60
9.49
8.37
7.20
5.94
4.58
3.17
1.77
0.48
-0.68
-1.70
-2.70
-3.80
-5.17
-6.87
-8.87
-10.98
-13.02
-14.85
-16.47
-18.07
-19.90
-22.20
-25.02
-28.20
-31.39
-34.07
-35.74
-35.94
-34.36
-30.88
-25.62
-18.95
-11.51
-4.05
2.68
8.13
12.06
14.52
15.83
16.37
16.44
16.17
15.61
14.74
13.58
12.23
10.87
9.72
8.98
8.79
9.21
10.20
11.64
13.36
15.21
17.03
18.70
20.08
21.10
21.70
21.89
21.78
21.45
20.97
20.35
19.52
18.45
17.19
15.84
14.50
13.26
12.09
10.94
9.73
8.38
6.88
5.21
3.42
1.57
-0.23
-1.85
-3.20
-4.30
-5.25
-6.22
-7.37
-8.73
-10.25
-11.84
-13.37
-14.82
-16.18
-17.49
-18.74
-19.95
-21.15
-22.45
-24.03
-26.09
-28.73
-31.77
-34.72
-36.87
-37.42
-35.79
-31.75
-25.62
-18.00
-9.73
-1.63
5.64
11.66
16.25
19.37
21.17
21.92
21.95
21.58
21.00
20.29
19.37
18.17
16.74
15.25
14.00
13.28
13.23
13.81
14.78
15.87
16.80
17.43
17.64
17.41
16.75
15.75
14.56
13.38
12.34
11.48
10.72
9.88
8.83
7.55
6.14
4.75
3.51
2.43
1.45
0.50
-0.49
-1.47
-2.37
-3.15
-3.79
-4.36
-4.96
-5.73
-6.73
-7.96
-9.37
-10.87
-12.32
-13.62
-14.70
-15.57
-16.27
-16.93
-17.66
-18.61
-19.86
-21.39
-22.97
-24.18
-24.47
-23.34
-20.48
-15.99
-10.29
-4.06
2.00
7.36
11.73
15.04
17.34
18.72
19.25
19.05
18.26
17.04
15.62
14.20
12.94
11.92
11.13
10.51
9.99
9.54
9.19
9.07
9.25
9.74
10.41
11.05
11.43
11.43
11.07
10.43
9.63
8.68
7.61
6.41
5.17
4.04
3.13
2.41
1.73
0.87
-0.41
-2.14
-4.23
-6.52
-8.84
-11.09
-13.23
-15.24
-17.09
-18.73
-20.12
-21.32
-22.40
-23.49
-24.70
-26.05
-27.50
-28.88
-29.93
-30.32
-29.70
-27.76
-24.34
-19.54
-13.64
-7.17
-0.68
5.32
10.42
14.41
17.17
18.72
19.16
18.65
17.42
15.72
13.74
11.68
9.65
7.79
6.18
4.94
4.16
3.91
4.22
5.08
6.38
7.99
9.67
11.19
12.33
12.93
12.94
12.40
11.45
10.21
8.77
7.16
5.37
3.36
1.15
-1.16
-3.38
-5.33
-6.86
-7.99
-8.82
-9.52
-10.25
-11.08
-12.01
-13.01
-14.01
-14.94
-15.72
-16.32
-16.72
-17.00
-17.31
-17.90
-18.96
-20.63
-22.77
-24.99
-26.64
-26.98
-25.43
-21.75
-16.19
-9.42
-2.30
4.31
9.85
14.04
16.89
18.53
19.12
18.83
17.81
16.25
14.40
12.45
10.54
8.72
7.00
5.40
3.98
2.90
2.31
2.28
2.76
3.60
4.55
5.37
5.92
6.17
6.18
6.07
5.96
5.97
6.17
6.52
6.90
7.11
6.96
6.29
5.07
3.38
1.34
-0.92
-3.32
-5.81
-8.33
-10.77
-13.02
-14.96
-16.52
-17.75
-18.77
-19.72
-20.70
-21.80
-23.09
-24.61
-26.36
-28.23
-29.89
-30.87
-30.60
-28.65
-24.91
-19.64
-13.34
-6.62
-0.06
5.92
11.05
15.09
17.92
19.52
19.98
19.54
18.49
17.11
15.60
14.09
12.61
11.24
10.11
9.33
9.05
9.33
10.10
11.26
12.59
13.95
15.19
16.24
17.07
17.64
17.84
17.53
16.59
14.98
12.76
10.14
7.37
4.67
2.18
-0.05
-2.11
-4.12
-6.18
-8.34
-10.57
-12.72
-14.66
-16.27
-17.56
-18.68
-19.87
-21.34
-23.14
-25.09
-26.83
-27.90
-27.87
-26.46
-23.53
-19.12
-13.42
-6.80
0.19
6.92
12.84
17.55
20.93
23.13
24.38
24.87
24.69
23.89
22.53
20.75
18.76
16.76
14.92
13.30
11.96
10.99
10.50
10.58
11.19
12.12
13.01
13.54
13.50
12.94
12.04
11.10
10.30
9.67
9.08
8.34
7.31
5.95
4.34
2.65
0.96
-0.66
-2.24
-3.83
-5.44
-7.07
-8.66
-10.20
-11.66
-13.03
-14.36
-15.69
-17.08
-18.64
-20.51
-22.79
-25.46
-28.27
-30.71
-32.12
-31.83
-29.41
-24.83
-18.44
-10.92
-3.06
4.38
10.83
15.94
19.58
21.80
22.81
22.89
22.37
21.53
20.60
19.67
18.78
17.93
17.10
16.32
15.68
15.28
15.23
15.60
16.35
17.34
18.35
19.10
19.40
19.14
18.34
17.19
15.91
14.71
13.70
12.86
12.06
11.15
9.97
8.45
6.63
4.60
2.49
0.46
-1.38
-3.04
-4.55
-6.07
-7.74
-9.66
-11.79
-14.02
-16.16
-18.06
-19.66
-21.00
-22.16
-23.29
-24.53
-26.02
-27.81
-29.83
-31.81
-33.28
-33.66
-32.46
-29.43
-24.69
-18.67
-12.04
-5.47
0.48
5.44
9.24
11.88
13.52
14.41
14.84
15.00
15.02
14.83
14.36
13.58
12.58
11.58
10.86
10.65
11.05
12.01
13.33
14.79
16.17
17.26
17.96
18.26
18.21
17.90
17.39
16.69
15.74
14.50
12.97
11.22
9.37
7.56
5.85
4.26
2.75
1.31
-0.11
-1.49
-2.80
-3.99
-5.02
-5.84
-6.48
-7.01
-7.56
-8.23
-9.11
-10.25
-11.66
-13.38
-15.39
-17.70
-20.25
-22.97
-25.77
-28.50
-30.95
-32.82
-33.71
-33.17
-30.87
-26.77
-21.16
-14.60
-7.78
-1.30
4.48
9.40
13.46
16.65
18.96
20.31
20.67
20.12
18.83
17.08
15.18
13.38
11.83
10.62
9.82
9.49
9.66
10.34
11.44
12.77
14.10
15.18
15.89
16.17
16.11
15.85
15.46
14.97
14.29
13.29
11.87
10.00
7.76
5.34
2.94
0.77
-1.09
-2.63
-4.02
-5.44
-7.07
-9.03
-11.31
-13.78
-16.22
-18.40
-20.20
-21.61
-22.78
-23.98
-25.45
-27.34
-29.57
-31.82
-33.58
-34.23
-33.23
-30.23
-25.27
-18.67
-11.09
-3.28
4.05
10.34
15.26
18.77
20.97
22.12
22.47
22.23
21.54
20.48
19.10
17.44
15.61
13.74
12.01
10.59
9.67
9.38
9.76
10.69
11.97
13.34
14.55
15.43
15.88
15.91
15.57
14.92
14.08
13.14
12.15
11.14
10.07
8.88
7.53
6.01
4.39
2.71
0.98
-0.84
-2.79
-4.89
-7.02
-9.09
-11.01
-12.80
-14.54
-16.36
-18.35
-20.46
-22.57
-24.53
-26.21
-27.53
-28.55
-29.39
-30.22
-31.26
-32.63
-34.37
-36.29
-37.98
-38.84
-38.25
-35.73
-31.12
-24.65
-16.91
-8.69
-0.77
6.25
12.01
16.35
19.26
20.81
21.13
20.44
19.06
17.37
15.72
14.29
13.13
12.19
11.40
10.78
10.42
10.42
10.83
11.61
12.60
13.60
14.40
14.88
14.97
14.70
14.14
13.34
12.31
11.06
9.61
8.01
6.38
4.82
3.35
1.95
0.49
-1.10
-2.84
-4.63
-6.33
-7.77
-8.89
-9.71
-10.33
-10.87
-11.39
-11.93
-12.49
-13.08
-13.67
-14.26
-14.83
-15.37
-15.87
-16.41
-17.11
-18.09
-19.45
-21.11
-22.79
-24.04
-24.29
-23.07
-20.15
-15.59
-9.76
-3.24
3.36
9.51
14.83
19.11
22.22
24.16
25.05
25.03
24.30
23.05
21.44
19.57
17.59
15.62
13.86
12.46
11.56
11.18
11.31
11.88
12.81
14.02
15.39
16.74
17.86
18.57
18.74
18.38
17.58
16.47
15.16
13.70
12.07
10.21
8.14
5.92
3.63
1.38
-0.80
-2.92
-4.99
-7.01
-8.90
-10.60
-12.03
-13.20
-14.22
-15.28
-16.60
-18.34
-20.53
-23.04
-25.54
-27.51
-28.44
-27.84
-25.50
-21.52
-16.29
-10.38
-4.39
1.22
6.15
10.28
13.55
15.97
17.52
18.27
18.29
17.73
16.70
15.29
13.57
11.65
9.72
8.02
6.86
6.45
6.86
8.01
9.65
11.52
13.31
14.77
15.74
16.15
16.05
15.58
14.94
14.29
13.68
13.03
12.22
11.11
9.66
7.90
5.97
4.05
2.24
0.63
-0.81
-2.16
-3.56
-5.11
-6.84
-8.71
-10.60
-12.38
-13.91
-15.14
-16.09
-16.89
-17.77
-18.97
-20.69
-23.00
-25.70
-28.31
-30.17
-30.54
-28.89
-24.99
-19.06
-11.79
-4.04
3.28
9.51
14.32
17.74
20.00
21.35
21.95
21.88
21.16
19.83
18.04
16.00
14.01
12.28
11.01
10.30
10.19
10.62
11.54
12.81
14.29
15.83
17.25
18.41
19.19
19.50
19.34
18.73
17.72
16.36
14.73
12.87
10.87
8.78
6.66
4.51
2.32
0.07
-2.21
-4.42
-6.47
-8.23
-9.65
-10.78
-11.72
-12.57
-13.43
-14.29
-15.11
-15.80
-16.30
-16.66
-16.99
-17.49
-18.36
-19.74
-21.60
-23.73
-25.78
-27.29
-27.80
-27.00
-24.75
-21.10
-16.30
-10.75
-4.86
0.90
6.14
10.52
13.81
15.96
17.01
17.12
16.50
15.34
13.85
12.17
10.48
8.88
7.50
6.41
5.68
5.31
5.28
5.51
5.90
6.29
6.57
6.67
6.58
6.32
5.92
5.36
4.58
3.56
2.27
0.78
-0.78
-2.27
-3.60
-4.73
-5.71
-6.62
-7.53
-8.51
-9.59
-10.81
-12.13
-13.52
-14.90
-16.18
-17.33
-18.37
-19.40
-20.56
-21.92
-23.44
-24.90
-25.96
-26.20
-25.26
-22.89
-19.10
-14.10
-8.30
-2.24
3.55
8.61
12.62
15.44
17.11
17.83
17.87
17.52
17.01
16.40
15.63
14.59
13.24
11.66
10.04
8.62
7.67
7.29
7.51
8.29
9.49
10.93
12.37
13.53
14.17
14.15
13.48
12.34
10.96
9.57
8.30
7.17
6.07
4.90
3.58
2.11
0.59
-0.84
-2.10
-3.17
-4.13
-5.06
-6.08
-7.27
-8.67
-10.30
-12.09
-13.94
-15.71
-17.28
-18.64
-19.91
-21.35
-23.17
-25.43
-27.87
-29.98
-31.12
-30.76
-28.67
-24.97
-20.08
-14.52
-8.83
-3.44
1.33
5.26
8.22
10.19
11.25
11.55
11.30
10.68
9.85
8.90
7.91
6.99
6.23
5.72
5.52
5.64
6.10
6.89
8.00
9.37
10.87
12.30
13.47
14.21
14.42
14.15
13.55
12.81
12.14
11.65
11.39
11.24
11.05
10.70
10.08
9.20
8.11
6.92
5.70
4.47
3.22
1.94
0.63
-0.70
-2.04
-3.44
-4.95
-6.60
-8.38
-10.18
-11.88
-13.37
-14.61
-15.62
-16.53
-17.45
-18.47
-19.65
-21.00
-22.56
-24.30
-26.13
-27.79
-28.86
-28.84
-27.31
-24.07
-19.26
-13.32
-6.85
-0.48
5.29
10.11
13.83
16.38
17.81
18.20
17.73
16.63
15.13
13.42
11.62
9.81
8.05
6.47
5.22
4.43
4.22
4.59
5.45
6.66
8.03
9.41
10.65
11.68
12.52
13.15
13.59
13.83
13.81
13.48
12.84
11.91
10.75
9.34
7.66
5.65
3.33
0.84
-1.58
-3.70
-5.36
-6.52
-7.30
-7.84
-8.29
-8.76
-9.29
-9.92
-10.67
-11.52
-12.50
-13.62
-14.88
-16.31
-17.93
-19.74
-21.72
-23.74
-25.59
-26.94
-27.42
-26.66
-24.46
-20.84
-16.08
-10.70
-5.35
-0.62
3.04
5.43
6.63
6.87
6.44
5.60
4.47
3.13
1.61
-0.03
-1.68
-3.19
-4.39
-5.19
-5.55
-5.47
-4.98
-4.11
-2.84
-1.21
0.68
2.64
4.39
5.68
6.37
6.49
6.22
5.76
5.24
4.73
4.18
3.47
2.57
1.48
0.26
-0.99
-2.21
-3.34
-4.36
-5.24
-5.96
-6.51
-6.93
-7.33
-7.87
-8.77
-10.19
-12.15
-14.44
-16.64
-18.20
-18.58
-17.43
-14.72
-10.73
-5.93
-0.90
3.85
7.94
11.20
13.61
15.23
16.17
16.51
16.29
15.53
14.31
12.70
10.86
8.95
7.09
5.45
4.15
3.35
3.26
3.97
5.48
7.56
9.83
11.89
13.42
14.33
14.71
14.75
14.63
14.44
14.14
13.63
12.82
11.64
10.09
8.22
6.09
3.79
1.46
-0.78
-2.79
-4.48
-5.88
-7.05
-8.12
-9.22
-10.39
-11.60
-12.75
-13.80
-14.71
-15.55
-16.39
-17.34
-18.45
-19.78
-21.31
-22.96
-24.46
-25.41
-25.30
-23.71
-20.47
-15.75
-10.06
-4.03
1.73
6.83
11.07
14.42
16.90
18.56
19.44
19.64
19.33
18.66
17.83
16.95
16.07
15.18
14.25
13.34
12.53
11.92
11.59
11.56
11.77
12.13
12.58
13.05
13.49
13.83
14.00
13.87
13.39
12.54
11.38
10.06
8.70
7.42
6.26
5.22
4.28
3.39
2.45
1.41
0.22
-1.13
-2.52
-3.85
-4.98
-5.89
-6.64
-7.37
-8.20
-9.18
-10.28
-11.35
-12.27
-12.98
-13.58
-14.22
-15.11
-16.40
-18.19
-20.44
-23.02
-25.63
-27.87
-29.25
-29.30
-27.70
-24.37
-19.54
-13.65
-7.30
-1.04
4.69
9.61
13.56
16.43
18.15
18.72
18.24
16.97
15.23
13.37
11.63
10.13
8.89
7.87
7.12
6.73
6.84
7.49
8.62
10.04
11.45
12.62
13.42
13.83
13.94
13.84
13.62
13.32
12.89
12.31
11.55
10.61
9.47
8.08
6.40
4.40
2.17
-0.13
-2.26
-4.01
-5.31
-6.23
-6.98
-7.83
-8.94
-10.37
-12.04
-13.79
-15.44
-16.91
-18.17
-19.29
-20.36
-21.51
-22.80
-24.26
-25.77
-27.10
-27.90
-27.77
-26.37
-23.53
-19.34
-14.11
-8.33
-2.55
2.77
7.27
10.76
13.21
14.67
15.24
15.10
14.42
13.37
12.13
10.84
9.65
8.68
8.03
7.78
7.94
8.44
9.20
10.16
11.26
12.46
13.73
14.96
16.03
16.79
17.13
17.03
16.51
15.62
14.39
12.81
10.91
8.69
6.18
3.44
0.55
-2.39
-5.26
-7.91
-10.23
-12.17
-13.68
-14.84
-15.73
-16.48
-17.29
-18.39
-19.96
-22.07
-24.56
-27.03
-28.94
-29.74
-29.06
-26.81
-23.12
-18.28
-12.66
-6.66
-0.68
4.89
9.67
13.37
15.89
17.29
17.79
17.65
17.13
16.44
15.69
14.98
14.36
13.92
13.73
13.90
14.49
15.53
16.94
18.54
20.13
21.50
22.54
23.24
23.58
23.53
23.01
21.98
20.44
18.57
16.57
14.63
12.73
10.75
8.43
5.63
2.41
-0.95
-4.12
-6.86
-9.09
-10.98
-12.73
-14.49
-16.25
-17.86
-19.13
-19.98
-20.51
-20.97
-21.75
-23.17
-25.39
-28.28
-31.41
-34.10
-35.60
-35.28
-32.81
-28.25
-22.02
-14.73
-7.09
0.29
6.87
12.35
16.51
19.39
21.12
21.96
22.17
21.94
21.38
20.53
19.42
18.11
16.73
15.48
14.58
14.19
14.37
15.01
15.91
16.80
17.52
18.01
18.27
18.38
18.31
17.97
17.24
16.11
14.70
13.26
12.05
11.18
10.54
9.92
9.08
7.92
6.48
4.92
3.33
1.74
0.05
-1.82
-3.90
-6.12
-8.36
-10.49
-12.48
-14.33
-16.06
-17.65
-19.07
-20.30
-21.39
-22.50
-23.82
-25.53
-27.59
-29.81
-31.79
-32.99
-32.93
-31.25
-27.83
-22.80
-16.53
-9.56
-2.45
4.27
10.20
15.10
18.83
21.37
22.73
22.97
22.20
20.60
18.42
15.94
13.45
11.21
9.43
8.26
7.81
8.10
9.06
10.51
12.20
13.82
15.15
16.09
16.63
16.83
16.70
16.23
15.36
14.10
12.54
10.80
9.02
7.26
5.49
3.60
1.49
-0.85
-3.28
-5.59
-7.52
-8.89
-9.66
-9.94
-9.93
-9.93
-10.16
-10.77
-11.75
-13.00
-14.32
-15.55
-16.61
-17.49
-18.30
-19.16
-20.26
-21.74
-23.70
-26.11
-28.74
-31.10
-32.59
-32.56
-30.58
-26.63
-21.07
-14.55
-7.81
-1.45
4.15
8.80
12.45
15.10
16.78
17.55
17.53
16.91
15.92
14.72
13.42
12.06
10.67
9.33
8.19
7.48
7.39
7.99
9.15
10.59
12.01
13.16
13.90
14.26
14.29
14.04
13.56
12.85
11.93
10.83
9.60
8.27
6.89
5.50
4.07
2.55
0.88
-0.96
-2.93
-4.91
-6.78
-8.45
-9.95
-11.38
-12.83
-14.42
-16.18
-18.13
-20.26
-22.50
-24.64
-26.35
-27.18
-26.67
-24.57
-20.90
-15.95
-10.25
-4.34
1.29
6.30
10.48
13.70
15.91
17.16
17.54
17.21
16.38
15.23
13.88
12.44
11.03
9.75
8.76
8.14
7.92
8.10
8.63
9.45
10.46
11.53
12.48
13.14
13.41
13.31
12.94
12.43
11.84
11.19
10.47
9.67
8.83
7.98
7.13
6.26
5.31
4.28
3.21
2.16
1.16
0.19
-0.86
-2.12
-3.63
-5.38
-7.24
-9.08
-10.82
-12.48
-14.14
-15.86
-17.66
-19.49
-21.27
-23.02
-24.78
-26.69
-28.72
-30.63
-31.95
-32.08
-30.52
-27.12
-22.10
-15.98
-9.43
-3.02
2.86
7.99
12.24
15.53
17.82
19.12
19.61
19.55
19.20
18.68
18.01
17.09
15.91
14.60
13.39
12.60
12.41
12.87
13.83
15.03
16.20
17.08
17.51
17.45
16.93
16.08
15.02
13.86
12.63
11.32
9.90
8.40
6.86
5.37
3.94
2.55
1.15
-0.30
-1.77
-3.22
-4.55
-5.72
-6.76
-7.74
-8.75
-9.85
-11.11
-12.52
-14.03
-15.54
-16.98
-18.29
-19.50
-20.69
-22.01
-23.58
-25.48
-27.69
-30.08
-32.38
-34.18
-35.01
-34.40
-32.00
-27.75
-21.87
-14.91
-7.56
-0.51
5.67
10.65
14.32
16.75
18.14
18.68
18.54
17.85
16.77
15.41
13.96
12.57
11.37
10.39
9.66
9.20
9.03
9.22
9.77
10.60
11.51
12.27
12.64
12.52
11.93
11.02
9.94
8.81
7.70
6.64
5.63
4.72
3.93
3.31
2.85
2.53
2.27
2.02
1.68
1.17
0.36
-0.80
-2.30
-4.05
-5.92
-7.77
-9.51
-11.15
-12.73
-14.32
-16.01
-17.84
-19.89
-22.18
-24.73
-27.44
-30.11
-32.37
-33.72
-33.67
-31.88
-28.23
-22.99
-16.71
-10.10
-3.81
1.73
6.36
10.12
13.07
15.22
16.50
16.85
16.34
15.19
13.75
12.31
11.10
10.21
9.69
9.57
9.96
10.91
12.39
14.22
16.12
17.82
19.09
19.85
20.06
19.72
18.85
17.44
15.57
13.35
10.94
8.50
6.13
3.91
1.88
0.07
-1.48
-2.79
-3.92
-4.98
-6.12
-7.43
-8.99
-10.81
-12.83
-14.92
-16.94
-18.78
-20.42
-22.00
-23.70
-25.72
-28.09
-30.57
-32.70
-33.82
-33.38
-31.02
-26.79
-21.05
-14.41
-7.53
-0.99
4.82
9.66
13.49
16.34
18.26
19.33
19.66
19.40
18.73
17.84
16.85
15.81
14.72
13.56
12.46
11.62
11.32
11.75
12.93
14.68
16.64
18.45
19.84
20.68
20.96
20.71
19.98
18.85
17.41
15.79
14.12
12.47
10.82
9.07
7.10
4.80
2.19
-0.61
-3.40
-5.98
-8.21
-10.07
-11.67
-13.14
-14.64
-16.24
-17.92
-19.64
-21.33
-22.92
-24.39
-25.70
-26.87
-27.99
-29.19
-30.60
-32.27
-34.02
-35.44
-35.98
-35.08
-32.36
-27.73
-21.46
-14.03
-6.09
1.74
8.89
14.92
19.56
22.71
24.43
24.94
24.53
23.50
22.09
20.49
18.82
17.19
15.68
14.39
13.41
12.83
12.69
12.99
13.70
14.74
16.02
17.35
18.55
19.36
19.58
19.12
18.04
16.53
14.86
13.23
11.67
10.09
8.27
6.12
3.68
1.14
-1.27
-3.39
-5.23
-6.83
-8.26
-9.50
-10.52
-11.29
-11.93
-12.55
-13.29
-14.17
-15.06
-15.80
-16.28
-16.47
-16.49
-16.54
-16.83
-17.56
-18.86
-20.79
-23.26
-25.99
-28.49
-30.15
-30.38
-28.84
-25.47
-20.62
-14.82
-8.67
-2.65
2.92
7.90
12.20
15.76
18.53
20.47
21.60
21.93
21.55
20.55
19.07
17.31
15.50
13.87
12.62
11.86
11.65
11.96
12.68
13.64
14.59
15.28
15.46
15.05
14.12
12.83
11.38
10.00
8.79
7.76
6.93
6.21
5.53
4.82
4.07
3.27
2.51
1.83
1.25
0.73
0.14
-0.67
-1.82
-3.39
-5.32
-7.50
-9.86
-12.38
-15.15
-18.27
-21.70
-25.19
-28.21
-30.16
-30.49
-28.90
-25.42
-20.31
-14.06
-7.17
-0.16
6.45
12.21
16.75
19.88
21.60
22.09
21.63
20.51
18.94
17.07
15.05
13.05
11.28
9.97
9.28
9.24
9.78
10.67
11.69
12.65
13.40
13.87
13.99
13.71
12.99
11.88
10.47
8.92
7.39
5.99
4.74
3.58
2.42
1.15
-0.28
-1.89
-3.63
-5.41
-7.15
-8.75
-10.18
-11.52
-12.90
-14.47
-16.30
-18.35
-20.44
-22.34
-23.84
-24.85
-25.47
-25.97
-26.64
-27.74
-29.33
-31.20
-32.92
-33.92
-33.66
-31.74
-28.05
-22.74
-16.28
-9.23
-2.26
4.07
9.35
13.39
16.22
18.02
19.04
19.51
19.63
19.53
19.32
19.10
18.93
18.89
19.00
19.30
19.78
20.42
21.18
22.02
22.85
23.56
24.02
24.08
23.66
22.70
21.23
19.36
17.25
15.03
12.82
10.67
8.57
6.51
4.52
2.65
0.92
-0.63
-2.01
-3.23
-4.30
-5.24
-6.05
-6.79
-7.55
-8.46
-9.65
-11.18
-13.06
-15.19
-17.36
-19.39
-21.11
-22.49
-23.64
-24.74
-26.01
-27.61
-29.54
-31.66
-33.68
-35.18
-35.72
-34.91
-32.52
-28.59
-23.42
-17.55
-11.56
-5.98
-1.19
2.58
5.24
6.76
7.16
6.50
4.90
2.53
-0.41
-3.70
-7.12
-10.48
-13.63
-16.46
-18.87
-20.76
-22.03
-22.59
-22.46
-21.81
-20.87
-19.89
-18.91
-17.80
-16.26
-13.96
-10.71
-6.51
-1.55
3.92
9.63
15.36
20.90
26.00
30.39
33.81
36.06
37.11
37.06
36.10
34.43
32.19
29.45
26.32
22.93
19.46
16.09
12.92
9.89
6.84
3.56
-0.06
-4.01
-8.05
-11.74
-14.56
-15.98
-15.63
-13.41
-9.51
-4.46
1.11
6.59
11.54
15.76
19.23
21.92
23.78
24.74
24.77
23.97
22.54
20.79
18.98
17.26
15.73
14.41
13.32
12.56
12.21
12.38
13.05
14.16
15.56
17.05
18.43
19.49
20.10
20.18
19.71
18.76
17.41
15.80
14.04
12.18
10.24
8.17
5.93
3.50
0.91
-1.76
-4.32
-6.62
-8.52
-10.00
-11.06
-11.84
-12.49
-13.19
-14.11
-15.34
-16.86
-18.53
-20.17
-21.63
-22.89
-24.11
-25.57
-27.57
-30.25
-33.41
-36.57
-39.02
-40.01
-38.98
-35.72
-30.40
-23.53
-15.79
-7.90
-0.45
6.11
11.56
15.78
18.80
20.72
21.66
21.74
21.12
19.95
18.46
16.84
15.32
14.05
13.15
12.70
12.72
13.16
14.01
15.13
16.38
17.52
18.40
18.86
18.88
18.54
17.93
17.16
16.24
15.14
13.75
11.99
9.90
7.57
5.20
2.95
0.88
-1.03
-2.89
-4.78
-6.68
-8.48
-10.01
-11.16
-11.97
-12.60
-13.27
-14.17
-15.39
-16.90
-18.55
-20.22
-21.83
-23.38
-24.91
-26.50
-28.22
-30.06
-32.00
-33.97
-35.81
-37.27
-37.99
-37.54
-35.53
-31.69
-26.03
-18.80
-10.55
-1.93
6.34
13.65
19.59
23.94
26.69
27.98
28.06
27.22
25.78
23.99
22.03
19.99
17.91
15.83
13.85
12.17
11.03
10.58
10.89
11.80
13.05
14.33
15.39
16.06
16.30
16.11
15.54
14.68
13.60
12.38
11.07
9.67
8.15
6.48
4.61
2.57
0.41
-1.80
-3.99
-6.13
-8.21
-10.21
-12.08
-13.76
-15.19
-16.34
-17.27
-18.10
-18.98
-20.09
-21.54
-23.31
-25.24
-26.98
-28.09
-28.10
-26.63
-23.48
-18.67
-12.53
-5.60
1.40
7.78
13.01
16.81
19.23
20.51
20.95
20.82
20.28
19.43
18.34
17.10
15.83
14.62
13.54
12.65
12.01
11.74
11.95
12.70
13.89
15.33
16.70
17.67
17.99
17.60
16.62
15.33
14.03
12.94
12.10
11.39
10.57
9.42
7.80
5.76
3.46
1.12
-1.04
-2.93
-4.59
-6.10
-7.64
-9.29
-11.11
-13.08
-15.13
-17.17
-19.14
-21.04
-22.94
-24.96
-27.27
-29.93
-32.82
-35.55
-37.50
-37.99
-36.48
-32.80
-27.21
-20.28
-12.71
-5.15
1.89
8.11
13.29
17.28
20.02
21.53
21.97
21.59
20.65
19.40
17.99
16.58
15.26
14.16
13.38
13.05
13.21
13.83
14.79
15.93
17.10
18.15
19.02
19.62
19.87
19.71
19.08
18.02
16.63
15.07
13.52
12.07
10.74
9.46
8.14
6.71
5.17
3.57
1.98
0.45
-1.02
-2.45
-3.91
-5.43
-7.08
-8.89
-10.84
-12.88
-14.89
-16.73
-18.28
-19.57
-20.75
-22.07
-23.83
-26.17
-28.99
-31.92
-34.34
-35.56
-35.00
-32.34
-27.67
-21.39
-14.18
-6.77
0.18
6.18
10.94
14.33
16.37
17.20
17.08
16.32
15.22
13.99
12.72
11.42
10.12
8.94
8.06
7.70
7.91
8.66
9.73
10.92
12.11
13.26
14.37
15.35
16.02
16.13
15.49
14.12
12.25
10.19
8.22
6.43
4.76
3.08
1.30
-0.53
-2.30
-3.91
-5.38
-6.78
-8.25
-9.88
-11.66
-13.50
-15.24
-16.78
-18.10
-19.25
-20.38
-21.60
-23.01
-24.69
-26.64
-28.80
-30.98
-32.76
-33.54
-32.71
-29.81
-24.78
-18.01
-10.29
-2.49
4.61
10.60
15.38
19.05
21.76
23.61
24.60
24.71
24.00
22.63
20.82
18.84
16.92
15.21
13.81
12.78
12.17
12.00
12.24
12.82
13.57
14.29
14.76
14.79
14.28
13.25
11.87
10.39
9.04
7.92
6.95
5.97
4.81
3.42
1.91
0.48
-0.71
-1.64
-2.43
-3.26
-4.29
-5.59
-7.17
-8.97
-10.92
-12.94
-14.97
-16.92
-18.79
-20.60
-22.50
-24.69
-27.30
-30.31
-33.46
-36.22
-37.92
-37.89
-35.66
-31.17
-24.72
-16.97
-8.68
-0.60
6.68
12.74
17.32
20.31
21.75
21.86
20.97
19.52
17.86
16.21
14.58
12.90
11.11
9.32
7.76
6.79
6.71
7.62
9.36
11.61
13.95
16.02
17.59
18.56
18.94
18.81
18.26
17.44
16.48
15.45
14.38
13.20
11.84
10.25
8.44
6.53
4.64
2.90
1.36
0.00
-1.22
-2.38
-3.49
-4.61
-5.77
-7.02
-8.42
-9.99
-11.70
-13.47
-15.17
-16.67
-17.92
-18.93
-19.83
-20.82
-22.11
-23.84
-26.09
-28.79
-31.69
-34.40
-36.40
-37.16
-36.22
-33.27
-28.35
-21.77
-14.14
-6.21
1.28
7.77
12.91
16.59
18.88
19.96
20.09
19.53
18.50
17.24
15.90
14.64
13.55
12.72
12.22
12.08
12.34
12.95
13.84
14.90
15.98
16.91
17.53
17.71
17.37
16.55
15.36
13.97
12.53
11.15
9.87
8.69
7.60
6.55
5.49
4.37
3.11
1.68
0.11
-1.47
-2.91
-4.11
-5.05
-5.86
-6.69
-7.66
-8.84
-10.24
-11.77
-13.37
-14.99
-16.55
-17.99
-19.26
-20.41
-21.55
-22.88
-24.56
-26.62
-28.87
-30.87
-32.07
-31.88
-29.92
-26.07
-20.56
-13.90
-6.78
0.16
6.34
11.44
15.35
18.14
19.90
20.75
20.76
20.01
18.62
16.78
14.74
12.77
11.07
9.77
8.88
8.33
8.06
8.03
8.27
8.80
9.61
10.60
11.64
12.62
13.48
14.22
14.84
15.28
15.37
14.96
13.96
12.46
10.67
8.82
7.05
5.36
3.63
1.74
-0.33
-2.49
-4.62
-6.59
-8.41
-10.17
-11.99
-13.96
-16.15
-18.58
-21.28
-24.21
-27.24
-30.01
-31.96
-32.51
-31.19
-27.87
-22.79
-16.54
-9.85
-3.36
2.44
7.28
11.10
13.93
15.84
16.93
17.33
17.13
16.46
15.41
14.10
12.70
11.40
10.36
9.73
9.59
9.91
10.62
11.58
12.62
13.56
14.28
14.65
14.63
14.21
13.43
12.37
11.12
9.76
8.38
6.98
5.51
3.91
2.11
0.09
-2.01
-3.99
-5.59
-6.65
-7.15
-7.29
-7.33
-7.59
-8.25
-9.34
-10.73
-12.26
-13.78
-15.26
-16.77
-18.42
-20.30
-22.46
-24.88
-27.41
-29.77
-31.55
-32.25
-31.36
-28.61
-24.03
-18.04
-11.29
-4.57
1.46
6.41
10.12
12.69
14.33
15.27
15.67
15.64
15.21
14.41
13.29
11.94
10.50
9.15
8.02
7.26
6.90
6.96
7.40
8.17
9.19
10.35
11.49
12.44
13.04
13.19
12.87
12.18
11.24
10.22
9.19
8.16
7.11
5.98
4.79
3.55
2.34
1.18
0.06
-1.07
-2.28
-3.58
-4.97
-6.43
-7.97
-9.61
-11.30
-12.99
-14.55
-15.85
-16.85
-17.62
-18.37
-19.33
-20.69
-22.53
-24.77
-27.15
-29.30
-30.72
-30.89
-29.38
-25.99
-20.86
-14.43
-7.39
-0.45
5.82
11.03
15.03
17.83
19.53
20.27
20.24
19.63
18.64
17.39
15.97
14.47
12.96
11.56
10.34
9.39
8.69
8.22
7.95
7.88
8.02
8.37
8.88
9.44
9.88
10.09
9.96
9.52
8.86
8.09
7.30
6.51
5.72
4.92
4.07
3.18
2.21
1.12
-0.16
-1.69
-3.48
-5.45
-7.48
-9.45
-11.26
-12.92
-14.46
-15.94
-17.41
-18.91
-20.53
-22.30
-24.19
-26.05
-27.55
-28.28
-27.85
-25.97
-22.58
-17.89
-12.25
-6.20
-0.30
4.96
9.26
12.49
14.74
16.20
17.06
17.41
17.26
16.59
15.46
14.02
12.49
11.09
9.97
9.22
8.86
8.89
9.28
9.97
10.83
11.71
12.45
12.90
12.95
12.56
11.73
10.47
8.91
7.16
5.38
3.73
2.26
0.93
-0.36
-1.76
-3.35
-5.14
-7.06
-9.03
-10.98
-12.86
-14.61
-16.15
-17.45
-18.51
-19.48
-20.60
-22.08
-24.00
-26.20
-28.30
-29.80
-30.20
-29.12
-26.38
-22.07
-16.49
-10.13
-3.57
2.62
8.01
12.34
15.52
17.60
18.69
18.92
18.39
17.24
15.59
13.62
11.53
9.51
7.75
6.43
5.68
5.56
6.06
7.03
8.32
9.74
11.20
12.62
13.98
15.27
16.42
17.39
18.17
18.82
19.41
19.91
20.22
20.08
19.27
17.67
15.39
12.67
9.83
7.11
4.55
2.10
-0.38
-2.93
-5.55
-8.14
-10.60
-12.83
-14.83
-16.63
-18.32
-20.04
-21.94
-24.09
-26.52
-29.08
-31.48
-33.27
-33.88
-32.86
-29.91
-25.07
-18.70
-11.43
-3.98
2.98
8.91
13.56
16.82
18.76
19.53
19.34
18.40
16.90
15.02
12.92
10.79
8.80
7.12
5.88
5.14
4.85
4.93
5.30
5.85
6.53
7.25
7.95
8.54
8.95
9.21
9.35
9.41
9.38
9.19
8.71
7.85
6.61
5.05
3.34
1.62
-0.03
-1.63
-3.25
-4.94
-6.70
-8.41
-9.95
-11.21
-12.19
-12.96
-13.63
-14.32
-15.14
-16.25
-17.79
-19.89
-22.49
-25.27
-27.64
-28.85
-28.32
-25.72
-21.20
-15.26
-8.56
-1.76
4.60
10.17
14.72
18.17
20.51
21.83
22.27
22.03
21.32
20.32
19.17
17.96
16.74
15.60
14.62
13.92
13.58
13.62
13.97
14.49
15.02
15.42
15.64
15.68
15.58
15.32
14.85
14.08
12.93
11.43
9.65
7.70
5.68
3.59
1.46
-0.75
-2.99
-5.19
-7.22
-8.97
-10.39
-11.52
-12.53
-13.61
-14.95
-16.68
-18.82
-21.25
-23.72
-25.79
-26.93
-26.62
-24.46
-20.34
-14.49
-7.50
-0.16
6.70
12.43
16.69
19.46
20.93
21.38
21.05
20.10
18.62
16.75
14.66
12.58
10.74
9.31
8.34
7.79
7.63
7.84
8.39
9.24
10.25
11.23
11.99
12.40
12.46
12.24
11.89
11.48
11.04
10.49
9.71
8.62
7.17
5.42
3.53
1.67
-0.06
-1.66
-3.24
-4.93
-6.78
-8.76
-10.74
-12.58
-14.23
-15.71
-17.13
-18.60
-20.18
-21.93
-23.85
-25.98
-28.30
-30.64
-32.65
-33.74
-33.24
-30.61
-25.70
-18.87
-10.89
-2.75
4.61
10.58
14.93
17.76
19.37
20.05
20.03
19.44
18.38
16.97
15.37
13.77
12.36
11.23
10.39
9.82
9.47
9.37
9.57
10.07
10.82
11.62
12.26
12.52
12.29
11.54
10.32
8.76
7.00
5.18
3.45
1.88
0.45
-0.93
-2.38
-3.96
-5.63
-7.25
-8.65
-9.72
-10.46
-10.99
-11.51
-12.20
-13.14
-14.33
-15.70
-17.14
-18.57
-19.90
-21.07
-22.03
-22.78
-23.45
-24.24
-25.38
-26.90
-28.60
-29.95
-30.28
-29.00
-25.83
-20.93
-14.83
-8.26
-1.89
3.81
8.62
12.50
15.49
17.62
18.89
19.33
19.04
18.18
16.97
15.61
14.29
13.09
12.09
11.31
10.79
10.54
10.58
10.89
11.39
11.94
12.39
12.57
12.35
11.69
10.70
9.55
8.40
7.42
6.60
5.91
5.20
4.39
3.40
2.25
0.99
-0.34
-1.69
-3.11
-4.65
-6.36
-8.25
-10.26
-12.20
-13.92
-15.34
-16.53
-17.76
-19.30
-21.30
-23.69
-26.06
-27.84
-28.40
-27.33
-24.47
-20.03
-14.45
-8.32
-2.20
3.43
8.31
12.31
15.44
17.74
19.25
20.04
20.16
19.72
18.87
17.76
16.57
15.41
14.36
13.43
12.65
12.07
11.76
11.78
12.12
12.64
13.13
13.37
13.20
12.62
11.70
10.56
9.30
7.99
6.66
5.34
4.06
2.85
1.70
0.59
-0.51
-1.62
-2.76
-3.96
-5.26
-6.72
-8.28
-9.86
-11.32
-12.56
-13.56
-14.41
-15.25
-16.22
-17.44
-18.97
-20.81
-22.85
-24.83
-26.29
-26.65
-25.33
-21.99
-16.67
-9.88
-2.42
4.84
11.23
16.44
20.47
23.46
25.58
26.83
27.14
26.45
24.87
22.62
20.04
17.49
15.20
13.29
11.79
10.71
10.07
9.89
10.27
11.20
12.60
14.20
15.66
16.66
16.96
16.59
15.71
14.57
13.35
12.15
10.93
9.63
8.18
6.55
4.73
2.69
0.43
-1.97
-4.37
-6.58
-8.49
-10.09
-11.50
-12.92
-14.50
-16.27
-18.16
-20.01
-21.66
-23.02
-24.16
-25.21
-26.40
-27.88
-29.71
-31.80
-33.95
-35.82
-37.06
-37.26
-36.09
-33.29
-28.81
-22.87
-15.94
-8.67
-1.74
4.29
9.07
12.54
14.79
16.08
16.66
16.72
16.35
15.57
14.41
12.94
11.29
9.65
8.21
7.12
6.49
6.32
6.59
7.20
8.05
8.98
9.84
10.55
11.07
11.46
11.77
12.03
12.19
12.16
11.84
11.18
10.20
8.96
7.54
6.00
4.38
2.70
1.00
-0.64
-2.14
-3.40
-4.35
-4.99
-5.44
-5.91
-6.67
-7.95
-9.81
-12.07
-14.37
-16.30
-17.61
-18.31
-18.71
-19.27
-20.33
-21.95
-23.85
-25.45
-26.14
-25.43
-23.09
-19.24
-14.22
-8.59
-2.94
2.18
6.37
9.47
11.56
12.87
13.65
14.10
14.25
14.08
13.56
12.72
11.70
10.67
9.76
9.09
8.70
8.65
9.00
9.78
10.96
12.38
13.74
14.76
15.17
14.93
14.11
12.94
11.57
10.08
8.44
6.59
4.49
2.26
0.07
-1.91
-3.62
-5.10
-6.49
-7.90
-9.35
-10.79
-12.11
-13.19
-14.04
-14.67
-15.24
-15.91
-16.89
-18.37
-20.35
-22.63
-24.79
-26.26
-26.52
-25.23
-22.37
-18.15
-12.93
-7.11
-1.10
4.71
9.90
14.09
17.04
18.73
19.38
19.29
18.76
17.92
16.82
15.46
13.89
12.28
10.86
9.82
9.21
9.01
9.14
9.54
10.18
11.06
12.09
13.12
13.91
14.30
14.22
13.73
12.99
12.13
11.24
10.30
9.28
8.17
6.94
5.62
4.18
2.62
0.95
-0.80
-2.55
-4.28
-6.02
-7.80
-9.68
-11.66
-13.67
-15.60
-17.40
-19.07
-20.68
-22.29
-23.99
-25.82
-27.77
-29.76
-31.56
-32.80
-33.00
-31.69
-28.63
-23.87
-17.81
-11.03
-4.21
2.07
7.40
11.51
14.35
16.01
16.69
16.68
16.24
15.55
14.68
13.67
12.55
11.39
10.31
9.40
8.69
8.17
7.86
7.79
8.06
8.72
9.73
10.93
12.04
12.81
13.12
13.02
12.67
12.29
11.97
11.64
11.11
10.15
8.63
6.61
4.31
2.04
0.03
-1.58
-2.78
-3.66
-4.35
-5.01
-5.82
-6.94
-8.50
-10.45
-12.68
-14.96
-17.12
-19.13
-21.11
-23.27
-25.80
-28.68
-31.71
-34.48
-36.54
-37.43
-36.83
-34.58
-30.75
-25.57
-19.49
-13.01
-6.67
-0.88
4.10
8.21
11.44
13.86
15.50
16.41
16.64
16.32
15.61
14.70
13.73
12.80
12.03
11.54
11.44
11.80
12.60
13.72
14.94
16.03
16.80
17.12
16.96
16.35
15.36
14.15
12.89
11.77
10.89
10.23
9.71
9.18
8.50
7.63
6.60
5.50
4.41
3.41
2.49
1.53
0.40
-1.04
-2.82
-4.90
-7.14
-9.35
-11.40
-13.27
-15.03
-16.80
-18.70
-20.74
-22.82
-24.68
-25.97
-26.26
-25.20
-22.58
-18.42
-12.99
-6.78
-0.41
5.52
10.58
14.52
17.29
19.00
19.80
19.82
19.16
17.89
16.15
14.09
11.95
9.97
8.36
7.23
6.59
6.40
6.58
7.05
7.80
8.79
9.99
11.27
12.40
13.19
13.47
13.24
12.63
11.82
11.00
10.21
9.39
8.42
7.19
5.66
3.85
1.79
-0.47
-2.87
-5.37
-7.85
-10.22
-12.40
-14.44
-16.49
-18.71
-21.19
-23.84
-26.38
-28.40
-29.45
-29.19
-27.38
-24.02
-19.25
-13.39
-6.94
-0.46
5.47
10.40
14.06
16.44
17.75
18.31
18.44
18.35
18.09
17.65
16.94
15.94
14.69
13.33
12.03
10.95
10.20
9.87
9.93
10.34
10.99
11.71
12.37
12.85
13.15
13.28
13.25
13.01
12.43
11.41
9.96
8.20
6.32
4.54
2.92
1.41
-0.14
-1.86
-3.79
-5.89
-8.07
-10.26
-12.43
-14.59
-16.82
-19.19
-21.81
-24.76
-28.08
-31.64
-35.18
-38.21
-40.12
-40.31
-38.33
-34.04
-27.65
-19.75
-11.16
-2.82
4.49
10.26
14.33
16.86
18.19
18.63
18.44
17.74
16.61
15.19
13.62
12.05
10.54
9.09
7.70
6.44
5.49
5.10
5.42
6.41
7.79
9.15
10.08
10.31
9.83
8.81
7.53
6.23
5.10
4.18
3.42
2.65
1.72
0.51
-1.05
-2.93
-5.01
-7.15
-9.24
-11.22
-13.03
-14.70
-16.19
-17.48
-18.62
-19.67
-20.81
-22.19
-23.98
-26.24
-28.91
-31.71
-34.20
-35.73
-35.62
-33.38
-28.90
-22.52
-14.98
-7.12
0.34
6.95
12.56
17.14
20.69
23.15
24.50
24.83
24.37
23.42
22.25
20.97
19.54
17.92
16.10
14.31
12.84
12.00
11.96
12.66
13.85
15.19
16.41
17.30
17.78
17.83
17.45
16.69
15.61
14.31
12.91
11.46
9.93
8.25
6.34
4.22
2.02
-0.10
-2.00
-3.69
-5.28
-6.92
-8.74
-10.73
-12.81
-14.85
-16.78
-18.58
-20.29
-22.06
-23.95
-26.03
-28.22
-30.37
-32.12
-33.03
-32.59
-30.40
-26.27
-20.33
-13.06
-5.15
2.59
9.51
15.20
19.50
22.46
24.18
24.71
24.08
22.36
19.69
16.38
12.81
9.40
6.47
4.28
2.95
2.55
3.08
4.43
6.39
8.64
10.84
12.69
13.94
14.51
14.38
13.62
12.39
10.87
9.28
7.84
6.66
5.73
4.94
4.10
2.98
1.41
-0.68
-3.32
-6.48
-10.10
-14.12
-18.40
-22.77
-26.98
-30.71
-33.65
-35.48
-35.90
-34.69
-31.77
-27.19
-21.26
-14.51
-7.60
-1.22
4.10
8.11
10.82
12.45
13.28
13.53
13.33
12.73
11.76
10.41
8.73
6.74
4.43
1.87
-0.81
-3.32
-5.29
-6.38
-6.38
-5.33
-3.44
-1.09
1.34
3.53
5.23
6.29
6.62
6.20
5.08
3.42
1.47
-0.42
-1.93
-2.78
-2.89
-2.36
-1.52
-0.80
-0.64
-1.31
-2.96
-5.47
-8.60
-11.96
-15.07
-17.40
-18.46
-17.84
-15.35
-10.99
-5.07
1.86
9.05
15.74
21.24
25.18
27.51
28.44
28.37
27.71
26.80
25.78
24.69
23.46
21.98
20.16
17.99
15.57
13.12
10.86
9.00
7.71
7.05
7.05
7.66
8.76
10.06
11.14
11.56
10.97
9.32
6.84
3.92
0.96
-1.78
-4.23
-6.41
-8.39
-10.18
-11.82
-13.35
-14.87
-16.55
-18.59
-21.18
-24.45
-28.43
-33.05
-38.10
-43.13
-47.56
-50.64
-51.69
-50.29
-46.44
-40.65
-33.82
-26.94
-20.82
-15.92
-12.28
-9.71
-7.93
-6.75
-6.09
-5.94
-6.33
-7.22
-8.53
-10.14
-11.86
-13.42
-14.44
-14.49
-13.15
-10.14
-5.31
1.20
9.08
17.79
26.62
34.82
41.68
46.63
49.41
50.08
48.97
46.59
43.47
40.06
36.65
33.38
30.28
27.31
24.39
21.40
18.20
14.69
10.81
6.65
2.38
-1.80
-5.74
-9.39
-12.77
-15.95
-18.87
-21.34
-23.01
-23.46
-22.39
-19.68
-15.51
-10.29
-4.56
1.15
6.45
11.13
15.14
18.51
21.30
23.54
25.19
26.12
26.23
25.42
23.73
21.33
18.51
15.64
13.09
11.15
10.04
9.92
10.77
12.45
14.58
16.66
18.09
18.36
17.22
14.76
11.35
7.59
4.10
1.35
-0.45
-1.40
-1.82
-2.14
-2.75
-3.85
-5.45
-7.43
-9.67
-12.13
-14.98
-18.42
-22.57
-27.23
-31.87
-35.67
-37.76
-37.52
-34.77
-29.76
-23.11
-15.58
-7.86
-0.47
6.19
11.91
16.57
20.16
22.73
24.38
25.25
25.43
24.97
23.93
22.35
20.35
18.17
16.10
14.51
13.72
13.91
15.07
16.95
19.10
21.02
22.25
22.55
21.91
20.51
18.64
16.56
14.49
12.58
10.92
9.55
8.45
7.50
6.50
5.21
3.49
1.31
-1.19
-3.85
-6.47
-8.98
-11.30
-13.42
-15.25
-16.74
-17.91
-18.95
-20.21
-22.09
-24.83
-28.30
-31.93
-34.80
-35.95
-34.66
-30.75
-24.61
-17.04
-9.00
-1.29
5.52
11.14
15.49
18.52
20.25
20.74
20.18
18.91
17.31
15.78
14.57
13.73
13.17
12.74
12.37
12.06
11.94
12.19
12.92
14.12
15.62
17.17
18.49
19.36
19.68
19.47
18.81
17.85
16.69
15.42
14.04
12.51
10.75
8.70
6.40
3.96
1.54
-0.72
-2.71
-4.42
-5.98
-7.54
-9.27
-11.28
-13.56
-16.01
-18.44
-20.62
-22.39
-23.65
-24.42
-24.90
-25.34
-26.08
-27.37
-29.27
-31.51
-33.49
-34.44
-33.66
-30.75
-25.77
-19.24
-11.89
-4.54
2.18
7.82
12.15
15.08
16.63
16.93
16.22
14.86
13.22
11.63
10.28
9.18
8.23
7.35
6.53
5.87
5.53
5.64
6.18
7.01
7.87
8.55
8.90
8.89
8.52
7.85
6.85
5.56
4.02
2.32
0.60
-1.08
-2.77
-4.67
-7.04
-10.08
-13.88
-18.39
-23.47
-28.87
-34.37
-39.68
-44.54
-48.67
-51.86
-54.00
-55.05
-55.09
-54.22
-52.53
-50.04
-46.69
-42.35
-36.90
-30.34
-22.88
-15.03
-7.41
-0.77
4.38
7.76
9.39
9.52
8.49
6.66
4.41
2.11
0.14
-1.20
-1.76
-1.58
-0.89
0.00
0.89
1.72
2.55
3.47
4.54
5.70
6.95
8.38
10.19
12.62
15.73
19.27
22.67
25.28
26.62
26.62
25.59
23.98
22.15
20.13
17.69
14.54
10.61
6.14
1.65
-2.27
-5.25
-7.11
-7.94
-7.82
-6.73
-4.55
-1.09
3.72
9.75
16.65
23.89
30.86
37.03
42.02
45.64
47.87
48.82
48.65
47.54
45.65
43.12
40.10
36.71
33.10
29.42
25.76
22.24
18.92
15.87
13.13
10.77
8.81
7.26
6.13
5.31
4.66
3.94
2.97
1.63
-0.06
-1.99
-4.03
-6.10
-8.19
-10.33
-12.57
-15.00
-17.74
-20.99
-24.91
-29.52
-34.58
-39.53
-43.65
-46.21
-46.76
-45.17
-41.65
-36.67
-30.76
-24.43
-18.17
-12.32
-7.18
-2.95
0.25
2.41
3.61
4.01
3.86
3.38
2.76
2.09
1.39
0.65
-0.17
-1.04
-1.90
-2.67
-3.29
-3.71
-3.93
-4.01
-4.06
-4.15
-4.36
-4.69
-5.07
-5.45
-5.81
-6.16
-6.59
-7.15
-7.85
-8.63
-9.42
-10.22
-11.17
-12.46
-14.31
-16.75
-19.60
-22.45
-24.71
-25.82
-25.32
-22.99
-18.85
-13.12
-6.22
1.39
9.18
16.60
23.13
28.38
32.10
34.27
35.06
34.79
33.85
32.59
31.29
30.14
29.26
28.70
28.42
28.34
28.37
28.47
28.61
28.75
28.76
28.44
27.60
26.18
24.35
22.45
20.92
19.95
19.48
19.16
18.63
17.72
16.54
15.40
14.73
14.94
16.19
18.43
21.49
25.12
29.00
32.58
35.19
36.31
36.07
34.96
33.71
33.10
33.63
35.41
38.01
40.73
42.99
44.89
46.46
47.61
48.18
48.13
47.63
46.76
45.53
43.97
42.52
41.02
38.86
35.13
29.02
20.16
8.42
-5.98
-24.90
-46.64
-67.44
-83.43
-92.88
-97.53
-99.06
-98.72
-98.03
-99.35
-103.32
-110.79
-120.66
-129.45
-132.42
-125.76
-108.95
-84.81
-58.21
-33.56
-14.18
-1.75
2.88
-0.59
-10.95
-24.51
-34.70
-34.51
-19.94
7.01
38.91
65.82
79.68
77.62
60.60
34.99
9.95
-7.97
-17.95
-22.59
-24.41
-24.27
-21.78
-16.78
-9.74
-2.13
4.02
7.17
7.31
5.74
4.26
4.34
6.44
10.30
14.84
18.45
19.96
19.27
17.19
14.75
12.67
11.11
9.41
7.44
4.87
1.57
-2.16
-5.67
-8.37
-9.94
-10.33
-9.75
-8.70
-8.05
-8.67
-10.31
-11.31
-8.79
0.15
16.96
40.77
68.55
96.25
120.16
137.88
148.47
151.61
146.85
133.38
110.34
77.05
35.59
-10.27
-56.30
-99.02
-136.37
-167.62
-192.57
-211.10
-222.72
-226.71
-222.92
-212.10
-195.98
-176.89
-157.16
-138.59
-122.05
-107.51
-94.32
-81.95
-70.27
-59.59
-50.45
-43.30
-38.18
-34.72
-32.25
-29.98
-27.39
-24.21
-20.31
-15.48
-9.41
-1.82
7.26
17.32
27.45
36.59
43.95
49.38
53.34
56.62
59.90
63.52
67.34
71.01
74.16
76.58
78.24
79.18
79.45
79.03
77.86
76.00
73.59
70.86
68.03
65.21
62.33
59.17
55.50
51.21
46.41
41.47
36.83
32.84
29.70
27.29
25.34
23.48
21.41
19.01
16.35
13.60
10.97
8.58
6.38
4.21
1.88
-0.76
-3.75
-6.95
-10.12
-12.94
-15.07
-16.19
-15.98
-14.25
-10.92
-6.20
-0.47
5.72
11.76
17.17
21.59
24.84
26.88
27.74
27.54
26.41
24.59
22.36
19.97
17.61
15.34
13.08
10.71
8.19
5.61
3.17
1.15
-0.26
-1.08
-1.55
-2.02
-2.83
-4.10
-5.71
-7.35
-8.76
-9.81
-10.62
-11.48
-12.72
-14.58
-17.13
-20.25
-23.66
-26.97
-29.67
-31.25
-31.24
-29.36
-25.54
-19.99
-13.15
-5.58
2.08
9.20
15.23
19.79
22.75
24.21
24.51
24.03
23.11
21.91
20.46
18.73
16.66
14.24
11.51
8.59
5.64
2.86
0.42
-1.50
-2.85
-3.70
-4.25
-4.75
-5.38
-6.28
-7.44
-8.80
-10.26
-11.73
-13.17
-14.61
-16.18
-18.06
-20.43
-23.35
-26.58
-29.60
-31.73
-32.25
-30.72
-27.08
-21.63
-14.87
-7.42
0.17
7.39
13.84
19.17
23.17
25.78
27.12
27.33
26.64
25.25
23.37
21.21
18.96
16.77
14.68
12.63
10.51
8.29
6.06
3.97
2.25
1.04
0.36
0.08
0.01
-0.13
-0.60
-1.57
-3.10
-5.09
-7.33
-9.59
-11.70
-13.66
-15.58
-17.67
-20.09
-22.92
-26.05
-29.25
-32.15
-34.26
-35.02
-33.95
-30.76
-25.52
-18.61
-10.74
-2.66
4.93
11.60
17.11
21.36
24.36
26.10
26.68
26.27
25.12
23.53
21.72
19.76
17.62
15.24
12.66
10.08
7.78
6.03
4.97
4.54
4.55
4.75
4.94
4.98
4.77
4.29
3.58
2.71
1.79
0.88
-0.04
-1.03
-2.24
-3.78
-5.66
-7.81
-10.07
-12.31
-14.43
-16.45
-18.47
-20.67
-23.16
-25.89
-28.64
-30.94
-32.19
-31.86
-29.61
-25.41
-19.56
-12.58
-5.09
2.33
9.23
15.27
20.19
23.83
26.12
27.12
26.97
25.97
24.43
22.68
20.88
19.11
17.30
15.38
13.31
11.17
9.13
7.44
6.27
5.70
5.65
5.91
6.19
6.25
5.92
5.18
4.13
2.94
1.75
0.63
-0.46
-1.61
-2.96
-4.54
-6.28
-8.07
-9.79
-11.40
-12.98
-14.69
-16.69
-19.10
-21.96
-25.15
-28.44
-31.42
-33.58
-34.36
-33.32
-30.24
-25.27
-18.88
-11.72
-4.45
2.38
8.42
13.44
17.31
19.93
21.29
21.48
20.68
19.20
17.32
15.25
13.12
10.98
8.92
7.05
5.55
4.56
4.08
3.98
4.03
3.99
3.68
3.13
2.43
1.77
1.28
0.96
0.73
0.39
-0.28
-1.43
-3.09
-5.21
-7.60
-10.04
-12.35
-14.41
-16.23
-17.99
-19.93
-22.30
-25.24
-28.66
-32.19
-35.23
-37.06
-37.06
-34.89
-30.58
-24.54
-17.42
-9.94
-2.75
3.69
9.13
13.46
16.66
18.75
19.79
19.88
19.18
17.89
16.18
14.23
12.19
10.21
8.52
7.36
6.93
7.29
8.31
9.66
10.92
11.74
11.96
11.66
11.08
10.53
10.18
10.00
9.76
9.18
8.02
6.23
3.93
1.36
-1.23
-3.69
-5.97
-8.13
-10.27
-12.47
-14.68
-16.90
-18.79
-19.68
-18.81
-15.68
-10.22
-2.68
6.45
16.68
27.38
38.17
48.91
59.47
69.53
78.60
86.24
92.30
97.08
100.73
103.93
107.73
112.99
119.79
127.48
135.17
142.38
149.63
157.08
166.48
180.45
200.77
226.30
252.65
273.52
282.73
275.86
248.24
200.03
136.74
67.23
0.32
-57.27
-102.02
-134.25
-158.24
-185.76
-226.03
-281.62
-348.89
-421.37
-492.25
-555.41
-605.98
-640.69
-663.87
-677.19
-677.75
-661.34
-627.40
-580.19
-526.53
-473.12
-385.24
-256.32
-108.75
24.97
127.41
198.48
245.17
274.51
291.97
301.63
300.58
289.22
272.88
258.89
251.81
253.11
260.91
272.44
284.60
289.43
282.55
265.27
242.95
221.08
203.36
191.22
184.12
179.92
172.92
160.01
141.81
121.94
104.31
91.47
84.29
82.24
83.85
86.10
87.42
88.17
88.51
87.44
82.68
71.47
51.72
23.00
-13.53
-54.90
-97.49
-139.94
-181.74
-221.67
-256.47
-281.20
-291.33
-285.01
-264.24
-234.24
-203.45
-178.35
-161.27
-150.90
-144.89
-142.38
-144.30
-151.85
-151.49
-133.56
-96.35
-47.24
3.34
47.91
82.91
107.91
124.67
136.13
142.92
145.36
144.34
141.20
137.68
134.74
132.66
131.29
130.44
128.31
123.56
115.91
105.33
93.03
79.72
65.75
51.35
37.01
22.36
7.27
-5.37
-15.77
-23.98
-30.38
-35.49
-39.55
-42.36
-43.85
-43.78
-42.02
-39.19
-35.94
-33.40
-32.57
-33.73
-36.17
-38.56
-39.43
-37.94
-34.50
-30.06
-26.27
-24.63
-25.98
-30.49
-37.69
-46.04
-52.61
-53.56
-45.38
-27.52
-3.81
18.05
29.71
26.14
8.31
-17.29
-42.17
-59.78
-67.99
-68.84
-66.25
-63.41
-61.83
-61.84
-63.73
-67.72
-72.80
-76.23
-74.26
-64.93
-48.60
-29.21
-11.50
0.98
7.90
11.93
16.75
24.58
34.94
45.42
53.34
57.37
58.23
57.81
57.85
58.86
59.94
59.84
57.75
53.72
48.82
44.65
42.53
42.93
45.33
48.45
50.92
51.91
51.34
49.64
47.25
44.18
40.20
35.32
30.17
25.98
23.91
24.37
26.69
29.44
31.17
31.41
30.97
31.34
33.73
38.19
43.66
48.78
52.75
55.87
59.50
65.45
75.27
89.77
108.72
130.96
154.35
175.75
190.93
195.71
187.13
164.50
129.80
87.04
40.71
-5.52
-47.86
-84.23
-113.94
-136.49
-150.57
-153.96
-144.30
-120.69
-84.87
-41.58
2.43
40.77
69.83
89.82
103.96
116.31
129.60
144.29
159.30
173.61
187.67
203.40
222.65
245.12
267.35
283.72
289.03
281.08
261.47
234.93
207.00
181.75
160.64
142.83
126.40
109.76
92.40
74.69
57.46
41.39
26.60
12.60
-1.45
-16.28
-32.18
-48.90
-65.74
-81.88
-96.68
-110.03
-122.35
-134.51
-147.48
-161.92
-177.93
-194.96
-211.96
-227.82
-241.83
-254.00
-265.17
-276.57
-289.41
-304.24
-320.72
-337.80
-354.21
-369.08
-382.45
-395.24
-409.09
-426.07
-448.43
-478.32
-516.87
-563.02
-612.50
-657.91
-690.35
-702.27
-690.31
-656.56
-607.67
-552.09
-497.01
-446.56
-401.78
-362.10
-326.97
-296.56
-271.42
-251.59
-235.97
-222.60
-209.46
-195.39
-180.37
-165.37
-151.54
-139.49
-128.85
-118.39
-106.59
-92.27
-75.12
-55.80
-35.61
-15.92
2.36
19.10
34.84
50.49
66.93
84.63
103.59
123.42
143.69
164.09
184.61
205.43
226.79
248.71
270.86
292.61
313.05
331.34
346.76
358.93
367.73
373.28
375.78
375.49
372.66
367.64
360.84
352.85
344.38
336.14
328.68
322.30
317.00
312.56
308.76
305.59
303.35
302.53
303.56
306.67
311.91
319.54
330.22
344.92
364.29
387.70
412.83
435.95
453.16
461.84
461.50
453.46
439.77
422.17
401.92
380.44
359.89
343.06
332.13
327.19
325.42
321.83
311.54
292.08
264.60
233.00
201.97
175.16
154.14
138.34
126.02
115.32
104.93
94.30
83.19
71.46
59.41
47.73
36.97
26.95
16.89
5.70
-7.37
-22.56
-39.65
-57.60
-74.64
-89.69
-103.29
-117.53
-135.37
-160.08
-194.74
-241.88
-301.47
-369.08
-437.18
-497.26
-542.33
-568.89
-574.73
-559.54
-528.73
-491.03
-451.83
-411.88
-370.01
-326.43
-283.85
-245.79
-213.03
-184.26
-155.78
-121.21
-74.97
-14.64
58.29
139.62
219.35
287.88
337.04
353.05
331.44
279.49
213.35
150.12
100.05
64.63
40.19
21.94
7.50
-1.88
-4.07
0.74
9.25
16.54
18.45
13.38
1.75
-14.35
-32.25
-49.36
-64.49
-78.26
-92.34
-108.38
-127.11
-148.47
-167.37
-182.14
-191.42
-194.47
-191.76
-184.81
-175.84
-167.12
-160.56
-157.21
-157.84
-161.95
-168.45
-175.48
-179.94
-177.79
-165.26
-140.92
-106.97
-69.41
-34.98
-8.78
7.58
15.94
19.78
21.73
22.47
21.35
17.62
12.82
10.32
13.92
25.66
45.30
70.19
96.21
118.20
130.40
127.61
106.99
70.27
24.70
-18.56
-48.58
-59.26
-51.87
-34.04
-15.48
-3.19
1.19
0.44
-1.45
-2.51
-3.88
-8.41
-18.15
-32.63
-49.09
-63.83
-74.40
-80.72
-84.75
-89.29
-96.34
-106.12
-117.11
-126.85
-132.81
-133.75
-130.09
-123.55
-116.25
-109.69
-104.03
-97.96
-91.27
-82.97
-72.51
-60.15
-46.87
-33.94
-22.35
-12.40
-3.51
5.57
16.53
30.64
48.40
69.41
92.79
117.80
144.31
172.60
202.94
235.09
267.76
298.75
325.48
345.46
356.61
357.59
348.12
329.43
304.71
278.77
257.17
244.73
243.90
253.53
268.84
282.76
288.16
280.36
258.48
225.39
186.17
146.02
108.21
73.58
41.30
10.39
-18.97
-45.49
-67.64
-85.09
-99.49
-114.10
-132.76
-158.93
-195.01
-241.96
-298.71
-361.40
-423.01
-474.24
-505.67
-510.81
-488.27
-442.24
-380.69
-312.51
-244.73
-181.27
-122.91
-68.26
-14.93
39.32
95.12
150.47
200.21
237.02
253.84
246.71
216.37
167.41
106.32
39.30
-28.36
-91.39
-143.29
-176.49
-184.35
-164.01
-118.21
-54.51
17.62
90.44
159.99
225.46
286.88
342.52
387.95
417.25
425.57
411.17
376.18
325.29
263.70
195.16
121.11
42.53
-37.84
-113.39
-174.25
-211.09
-220.27
-207.30
-186.11
-173.71
-182.71
-215.65
-264.21
-313.94
-351.49
-370.05
-370.52
-358.59
-339.74
-316.00
-285.78
-245.79
-194.34
-133.08
-67.31
-4.81
46.54
80.95
97.03
98.46
93.36
90.95
98.30
118.67
151.02
191.41
234.74
275.55
308.51
329.18
333.85
321.00
292.34
252.96
210.04
170.78
140.14
116.67
98.55
83.44
69.77
56.94
44.56
32.01
18.85
5.08
-7.79
-17.49
-22.56
-23.47
-22.62
-23.56
-29.58
-42.32
-61.79
-86.08
-112.35
-138.36
-163.32
-188.02
-214.14
-243.36
-272.86
-301.99
-329.28
-352.26
-367.10
-368.90
-353.33
-318.78
-267.91
-207.57
-149.32
-98.24
-56.67
-24.63
-0.62
17.12
29.78
38.10
43.03
45.81
49.71
57.26
68.75
82.20
94.44
103.03
107.64
110.87
117.69
133.31
162.84
208.26
267.15
332.74
395.19
444.50
473.67
472.30
438.70
379.94
308.42
236.66
172.13
115.99
66.10
20.77
-19.11
-50.88
-73.09
-87.91
-101.46
-120.01
-147.46
-184.34
-228.63
-276.63
-324.56
-363.59
-387.02
-389.34
-367.59
-322.88
-260.78
-193.97
-127.56
-63.38
-0.98
59.85
118.40
171.10
212.13
236.31
242.07
230.48
207.05
179.48
151.13
125.20
102.87
83.57
67.75
55.52
48.67
47.39
50.88
56.52
61.73
64.61
64.69
62.62
59.56
56.48
51.32
40.95
22.05
-7.26
-47.47
-97.35
-153.63
-211.55
-260.72
-293.59
-306.48
-301.26
-284.32
-264.22
-247.94
-237.74
-230.75
-214.03
-179.37
-126.14
-61.92
2.03
56.89
99.72
132.35
158.14
179.47
195.41
204.13
204.93
199.37
190.67
181.94
174.94
169.53
164.18
155.76
141.71
120.95
94.86
66.16
37.41
10.00
-16.13
-41.81
-65.10
-86.42
-105.39
-120.82
-131.32
-136.41
-136.87
-134.37
-130.88
-128.70
-130.11
-135.96
-144.98
-153.44
-155.91
-146.94
-123.61
-87.39
-44.30
-3.14
28.64
47.53
54.71
54.32
50.91
47.25
43.86
39.97
34.86
29.11
24.17
21.29
20.58
20.91
20.62
18.22
13.28
6.41
-0.93
-7.26
-11.71
-14.39
-16.32
-18.76
-22.69
-28.38
-35.39
-42.68
-49.19
-54.17
-57.41
-59.13
-59.97
-60.01
-59.05
-56.61
-52.10
-45.15
-35.86
-24.56
-11.99
0.90
13.25
24.34
33.73
41.22
46.77
50.44
52.39
52.76
51.75
49.65
46.75
43.35
39.70
35.96
32.28
28.70
25.26
21.95
18.79
15.73
12.74
9.77
6.76
3.67
0.42
-2.99
-6.57
-10.33
-14.30
-18.47
-22.84
-27.42
-32.20
-37.19
-42.27
-47.37
-52.44
-57.47
-62.47
-67.48
-72.53
-77.71
-83.09
-88.53
-93.98
-99.41
-104.86
-110.34
-115.89
-121.55
-127.30
-133.15
-138.78
-143.93
-148.36
-151.88
-154.23
-155.08
-153.95
-150.10
-144.75
-138.30
-131.03
-123.19
-115.08
-106.96
-99.06
-91.51
-84.30
-77.38
-70.35
-63.01
-55.37
-47.60
-40.01
-32.83
-26.10
-19.63
-13.05
-5.74
2.64
12.05
22.11
32.23
41.94
51.10
60.02
69.33
79.82
91.94
105.61
120.25
135.10
149.49
163.19
176.47
189.99
204.76
221.88
242.42
266.88
294.61
323.27
348.92
366.87
373.20
366.28
347.31
319.92
288.60
257.21
227.97
201.49
177.53
155.76
136.20
119.04
104.21
91.16
79.04
67.10
55.11
43.38
32.66
23.67
16.76
11.74
7.91
4.40
0.51
-4.12
-9.28
-14.42
-18.89
-22.22
-24.31
-25.42
-26.03
-26.62
-27.45
-28.51
-29.63
-30.57
-31.14
-31.34
-31.28
-31.12
-31.04
-31.15
-31.50
-32.03
-32.59
-32.99
-33.08
-32.82
-32.29
-31.73
-31.40
-31.50
-32.03
-32.81
-33.45
-33.56
-32.86
-31.23
-28.81
-25.87
-22.76
-19.76
-17.07
-14.83
-13.02
-11.63
-10.60
-9.90
-9.44
-9.13
-8.85
-8.51
-8.06
-7.51
-6.89
-6.31
-5.84
-5.53
-5.38
-5.37
-5.44
-5.57
-5.63
-5.56
-5.39
-5.21
-5.12
-5.17
-5.33
-5.49
-5.57
-5.29
-4.54
-3.45
-2.24
-1.16
-0.30
0.45
1.37
2.75
5.37
9.76
16.03
23.90
32.74
41.78
50.34
57.84
63.92
69.31
74.80
81.06
88.45
96.91
106.08
115.47
124.66
133.45
143.31
155.98
172.99
195.16
222.12
252.40
283.94
314.85
335.44
338.75
320.50
280.31
221.94
151.97
77.72
5.36
-60.85
-118.60
-165.77
-201.43
-225.76
-239.93
-245.91
-246.03
-242.55
-237.32
-231.75
-225.80
-219.15
-211.47
-202.47
-192.13
-180.63
-168.41
-156.14
-144.71
-134.48
-125.63
-118.08
-111.46
-105.23
-98.92
-92.31
-85.38
-78.38
-71.33
-64.28
-57.28
-50.45
-44.00
-38.21
-33.35
-29.60
-26.95
-25.14
-23.79
-22.45
-20.78
-18.63
-16.17
-13.67
-11.46
-9.73
-8.47
-7.55
-6.80
-6.13
-5.49
-4.68
-3.44
-1.55
0.97
3.77
6.09
7.27
7.08
5.82
4.20
2.98
2.55
2.88
3.58
4.25
4.75
5.17
5.75
6.62
7.71
8.82
9.70
10.20
10.22
9.79
8.94
7.77
6.15
4.02
1.34
-1.89
-5.47
-9.13
-12.50
-15.24
-17.12
-18.15
-18.47
-18.35
-18.05
-17.77
-17.59
-17.52
-17.51
-17.52
-17.56
-17.60
-17.62
-17.59
-17.37
-16.87
-15.97
-14.65
-12.94
-10.92
-8.63
-6.14
-3.51
-0.74
2.08
4.83
7.29
9.25
10.48
10.83
10.30
9.00
7.20
5.25
3.39
1.80
0.48
-0.66
-1.77
-2.95
-4.17
-5.32
-6.21
-6.71
-6.75
-6.36
-5.70
-5.01
-4.55
-4.50
-4.91
-5.69
-6.54
-7.10
-7.00
-5.98
-3.95
-1.09
2.24
5.58
8.54
10.86
12.48
13.45
13.90
13.94
13.63
12.98
12.04
10.86
9.55
8.23
7.02
5.99
5.19
4.65
4.38
4.43
4.75
5.30
5.96
6.61
7.11
7.38
7.35
6.97
6.27
5.27
4.03
2.65
1.23
-0.18
-1.51
-2.77
-4.01
-5.25
-6.49
-7.70
-8.79
-9.73
-10.51
-11.21
-11.92
-12.73
-13.58
-14.34
-14.85
-15.05
-15.04
-15.04
-15.24
-15.67
-16.10
-16.06
-15.12
-12.98
-9.70
-5.65
-1.41
2.48
5.67
8.06
9.78
11.01
11.91
12.54
12.92
13.05
12.98
12.84
12.77
12.82
12.98
13.09
13.01
12.63
11.94
11.05
10.07
9.10
8.20
7.35
6.55
5.81
5.19
4.68
4.29
3.94
3.60
3.30
3.04
2.90
2.86
2.85
2.78
2.60
2.31
1.96
1.63
1.32
0.99
0.57
0.04
-0.56
-1.19
-1.78
-2.36
-3.04
-3.89
-4.95
-6.20
-7.57
-8.95
-10.26
-11.40
-12.35
-13.13
-13.81
-14.49
-15.27
-16.13
-16.87
-17.20
-16.78
-15.43
-13.13
-10.08
-6.57
-2.89
0.73
4.06
6.91
9.11
10.54
11.20
11.19
10.67
9.84
8.83
7.75
6.64
5.59
4.64
3.92
3.54
3.58
4.06
4.89
5.89
6.78
7.36
7.49
7.16
6.46
5.55
4.53
3.50
2.54
1.70
1.08
0.68
0.49
0.42
0.33
0.17
-0.09
-0.41
-0.76
-1.09
-1.41
-1.75
-2.12
-2.56
-3.08
-3.71
-4.44
-5.26
-6.09
-6.85
-7.45
-7.84
-8.04
-8.10
-8.13
-8.20
-8.34
-8.56
-8.86
-9.23
-9.67
-10.14
-10.51
-10.58
-10.14
-8.98
-7.05
-4.41
-1.35
1.79
4.64
6.97
8.68
9.81
10.47
10.78
10.81
10.61
10.18
9.55
8.83
8.10
7.43
6.85
6.30
5.76
5.24
4.78
4.47
4.34
4.38
4.50
4.58
4.53
4.28
3.89
3.36
2.73
1.99
1.17
0.33
-0.48
-1.21
-1.85
-2.42
-2.96
-3.50
-4.06
-4.69
-5.42
-6.28
-7.28
-8.36
-9.42
-10.35
-11.10
-11.69
-12.21
-12.76
-13.35
-13.91
-14.23
-14.10
-13.28
-11.69
-9.39
-6.60
-3.61
-0.71
1.93
4.19
6.10
7.64
8.81
9.57
9.86
9.66
8.98
7.90
6.54
5.09
3.71
2.59
1.79
1.33
1.10
0.96
0.82
0.66
0.54
0.53
0.65
0.84
0.98
0.94
0.63
0.05
-0.69
-1.50
-2.27
-2.97
-3.63
-4.27
-4.93
-5.60
-6.22
-6.74
-7.10
-7.31
-7.44
-7.58
-7.79
-8.12
-8.58
-9.18
-9.94
-10.85
-11.82
-12.66
-13.11
-12.88
-11.79
-9.86
-7.29
-4.38
-1.49
1.12
3.26
4.87
5.93
6.48
6.60
6.42
6.12
5.88
5.81
5.95
6.25
6.61
6.92
7.16
7.36
7.62
7.99
8.49
9.09
9.71
10.21
10.47
10.38
9.89
8.99
7.75
6.26
4.65
3.03
1.54
0.25
-0.81
-1.66
-2.39
-3.09
-3.81
-4.54
-5.23
-5.81
-6.31
-6.80
-7.36
-8.06
-8.91
-9.86
-10.91
-12.17
-13.70
-15.50
-17.43
-19.09
-19.97
-19.62
-17.79
-14.60
-10.45
-5.91
-1.53
2.31
5.43
7.86
9.69
11.03
11.95
12.50
12.75
12.77
12.58
12.17
11.51
10.58
9.44
8.26
7.20
6.41
5.92
5.71
5.73
5.90
6.14
6.36
6.47
6.36
5.99
5.39
4.66
3.95
3.34
2.89
2.58
2.37
2.18
1.96
1.67
1.23
0.61
-0.21
-1.23
-2.38
-3.61
-4.82
-5.98
-7.08
-8.20
-9.44
-10.90
-12.60
-14.38
-15.97
-16.99
-17.09
-16.07
-13.92
-10.89
-7.38
-3.78
-0.45
2.42
4.77
6.60
7.93
8.74
9.02
8.76
8.03
6.92
5.57
4.06
2.45
0.77
-0.96
-2.68
-4.34
-5.88
-7.31
-8.71
-10.21
-11.98
-14.07
-16.49
-19.14
-21.84
-24.50
-27.00
-29.30
-31.35
-33.07
-34.33
-34.98
-34.78
-33.51
-30.94
-26.95
-21.53
-14.88
-7.44
0.15
7.22
13.14
17.54
20.38
21.93
22.66
23.10
23.68
24.68
26.21
28.17
30.38
32.55
34.42
35.71
36.26
35.99
34.92
33.19
31.02
28.64
26.22
23.89
21.70
19.64
17.76
16.07
14.60
13.34
12.28
11.35
10.49
9.71
9.01
8.37
7.76
7.13
6.41
5.60
4.74
3.90
3.14
2.53
2.08
1.73
1.39
0.94
0.27
-0.73
-2.09
-3.74
-5.58
-7.48
-9.36
-11.13
-12.71
-13.99
-14.88
-15.33
-15.46
-15.56
-15.95
-16.84
-18.13
-19.40
-20.10
-19.66
-17.88
-14.86
-11.04
-6.97
-3.11
0.30
3.21
5.70
7.89
9.78
11.37
12.62
13.57
14.27
14.78
15.18
15.50
15.76
15.95
16.09
16.13
16.05
15.81
15.38
14.83
14.26
13.72
13.19
12.54
11.61
10.31
8.69
6.92
5.22
3.76
2.59
1.65
0.87
0.19
-0.39
-0.83
-1.11
-1.31
-1.50
-1.78
-2.22
-2.84
-3.66
-4.69
-5.96
-7.46
-9.13
-10.80
-12.21
-13.13
-13.43
-13.17
-12.59
-12.01
-11.72
-11.86
-12.36
-12.96
-13.28
-12.96
-11.76
-9.59
-6.56
-3.00
0.69
4.08
6.77
8.58
9.51
9.69
9.36
8.77
8.04
7.26
6.49
5.77
5.15
4.67
4.32
4.07
3.85
3.59
3.25
2.86
2.47
2.20
2.07
2.03
1.98
1.79
1.37
0.80
0.26
-0.05
0.07
0.62
1.49
2.49
3.44
4.23
4.81
5.17
5.30
5.16
4.71
3.98
3.07
2.16
1.39
0.82
0.41
0.02
-0.50
-1.27
-2.33
-3.68
-5.27
-7.03
-8.85
-10.54
-11.85
-12.54
-12.43
-11.40
-9.51
-6.95
-4.02
-1.10
1.48
3.50
4.91
5.81
6.39
6.82
7.16
7.37
7.33
6.99
6.31
5.40
4.43
3.53
2.78
2.19
1.72
1.27
0.80
0.33
-0.10
-0.43
-0.65
-0.77
-0.81
-0.77
-0.66
-0.46
-0.21
0.02
0.12
-0.00
-0.45
-1.21
-2.22
-3.40
-4.60
-5.69
-6.56
-7.16
-7.47
-7.55
-7.52
-7.50
-7.62
-7.98
-8.68
-9.70
-10.97
-12.22
-13.16
-13.41
-12.70
-10.88
-8.08
-4.59
-0.81
2.81
5.98
8.50
10.35
11.60
12.34
12.67
12.63
12.26
11.61
10.76
9.79
8.75
7.69
6.63
5.61
4.66
3.85
3.21
2.76
2.47
2.30
2.16
1.95
1.60
1.04
0.33
-0.45
-1.13
-1.58
-1.73
-1.65
-1.46
-1.31
-1.28
-1.34
-1.42
-1.45
-1.47
-1.58
-1.90
-2.54
-3.53
-4.79
-6.23
-7.73
-9.19
-10.57
-11.84
-13.02
-14.11
-15.07
-15.88
-16.40
-16.49
-16.02
-14.89
-13.12
-10.80
-8.14
-5.35
-2.68
-0.27
1.80
3.53
5.01
6.25
7.19
7.77
7.91
7.62
6.99
6.18
5.30
4.45
3.65
2.94
2.39
2.11
2.17
2.59
3.33
4.24
5.22
6.15
6.99
7.72
8.30
8.70
8.87
8.75
8.26
7.36
6.08
4.55
2.96
1.47
0.16
-0.98
-2.03
-3.04
-4.02
-4.93
-5.72
-6.34
-6.80
-7.13
-7.38
-7.60
-7.87
-8.20
-8.63
-9.12
-9.58
-9.81
-9.60
-8.78
-7.25
-5.03
-2.32
0.59
3.33
5.54
7.01
7.65
7.57
6.99
6.17
5.33
4.65
4.18
3.96
3.98
4.16
4.44
4.76
5.04
5.28
5.50
5.70
5.90
6.07
6.18
6.17
6.05
5.79
5.35
4.70
3.78
2.61
1.26
-0.13
-1.41
-2.52
-3.46
-4.32
-5.20
-6.15
-7.15
-8.12
-8.99
-9.80
-10.70
-11.86
-13.38
-15.17
-16.95
-18.31
-18.85
-18.35
-16.82
-14.50
-11.72
-8.78
-5.87
-3.09
-0.47
1.93
4.01
5.65
6.76
7.35
7.55
7.57
7.60
7.72
7.89
8.01
7.98
7.81
7.59
7.42
7.38
7.46
7.54
7.46
7.08
6.33
5.28
3.99
2.57
1.02
-0.64
-2.44
-4.41
-6.45
-8.47
-10.26
-11.68
-12.61
-13.05
-13.08
-12.84
-12.54
-12.40
-12.62
-13.20
-14.01
-14.67
-14.72
-13.75
-11.55
-8.22
-4.13
0.20
4.28
7.73
10.41
12.31
13.48
14.01
14.01
13.58
12.87
12.00
11.13
10.34
9.67
9.10
8.54
7.87
7.04
6.05
4.99
4.01
3.29
2.93
2.93
3.19
3.52
3.78
3.87
3.83
3.68
3.46
3.10
2.54
1.73
0.68
-0.56
-1.94
-3.42
-5.05
-6.88
-8.94
-11.20
-13.55
-15.85
-17.91
-19.48
-20.24
-19.89
-18.22
-15.23
-11.14
-6.38
-1.48
3.10
7.01
10.08
12.30
13.76
14.54
14.72
14.38
13.61
12.54
11.35
10.19
9.19
8.35
7.62
6.94
6.25
5.53
4.82
4.14
3.49
2.86
2.25
1.69
1.22
0.87
0.60
0.28
-0.21
-0.99
-2.05
-3.25
-4.38
-5.24
-5.75
-5.98
-6.13
-6.46
-7.20
-8.47
-10.16
-12.04
-13.75
-14.92
-15.19
-14.37
-12.45
-9.58
-6.12
-2.45
1.00
3.91
6.09
7.56
8.44
8.94
9.21
9.30
9.20
8.87
8.32
7.70
7.19
6.91
6.91
7.07
7.20
7.13
6.84
6.41
6.00
5.73
5.58
5.45
5.19
4.69
3.98
3.16
2.33
1.51
0.67
-0.30
-1.42
-2.66
-3.93
-5.13
-6.28
-7.49
-8.93
-10.69
-12.73
-14.80
-16.56
-17.59
-17.50
-16.06
-13.29
-9.41
-4.91
-0.36
3.76
7.11
9.59
11.25
12.17
12.46
12.19
11.43
10.32
9.01
7.68
6.46
5.38
4.43
3.60
2.90
2.36
2.02
1.92
2.07
2.42
2.87
3.31
3.55
3.49
3.09
2.40
1.57
0.75
0.02
-0.64
-1.31
-2.15
-3.18
-4.40
-5.68
-6.90
-8.03
-9.15
-10.45
-12.09
-14.13
-16.41
-18.62
-20.35
-21.22
-21.00
-19.72
-17.63
-15.12
-12.67
-10.64
-9.25
-8.55
-8.44
-8.78
-9.45
-10.40
-11.59
-13.03
-14.70
-16.56
-18.50
-20.38
-21.96
-22.94
-23.04
-22.04
-19.87
-16.57
-12.26
-7.07
-1.16
5.29
12.00
18.54
24.41
29.14
32.40
34.14
34.53
33.88
32.50
30.62
28.38
25.85
23.01
19.88
16.45
12.80
9.05
5.48
2.49
0.49
-0.15
0.67
2.77
5.72
8.95
11.94
14.35
16.03
17.00
17.36
17.21
16.61
15.62
14.29
12.73
11.11
9.60
8.28
7.22
6.38
5.70
5.13
4.66
4.31
4.11
4.11
4.29
4.63
5.01
5.32
5.43
5.28
4.90
4.37
3.80
3.27
2.79
2.26
1.53
0.50
-0.89
-2.62
-4.57
-6.60
-8.50
-10.08
-11.22
-11.95
-12.38
-12.74
-13.26
-14.09
-15.22
-16.48
-17.54
-18.03
-17.64
-16.19
-13.64
-10.14
-5.98
-1.57
2.67
6.41
9.44
11.67
13.10
13.81
13.86
13.32
12.25
10.77
9.06
7.32
5.73
4.42
3.41
2.64
2.10
1.78
1.74
2.06
2.74
3.68
4.62
5.27
5.43
5.09
4.46
3.83
3.50
3.59
4.05
4.67
5.20
5.51
5.58
5.45
5.15
4.66
3.92
2.87
1.52
-0.01
-1.56
-2.99
-4.24
-5.30
-6.23
-7.04
-7.74
-8.32
-8.85
-9.45
-10.33
-11.56
-13.05
-14.46
-15.32
-15.24
-14.04
-11.88
-9.17
-6.37
-3.85
-1.73
0.03
1.57
2.96
4.21
5.21
5.85
6.12
6.05
5.77
5.39
5.05
4.79
4.60
4.46
4.35
4.27
4.26
4.37
4.61
4.98
5.43
5.85
6.15
6.22
6.01
5.54
4.91
4.29
3.80
3.52
3.40
3.30
3.04
2.58
1.91
1.17
0.47
-0.15
-0.71
-1.36
-2.23
-3.42
-4.95
-6.77
-8.72
-10.58
-12.08
-12.95
-13.02
-12.26
-10.79
-8.81
-6.51
-4.07
-1.59
0.85
3.18
5.30
7.05
8.32
9.04
9.20
8.84
8.05
6.92
5.52
3.94
2.25
0.56
-1.06
-2.48
-3.56
-4.21
-4.39
-4.18
-3.72
-3.22
-2.83
-2.64
-2.64
-2.77
-3.00
-3.34
-3.83
-4.52
-5.38
-6.30
-7.13
-7.72
-7.96
-7.83
-7.39
-6.73
-6.02
-5.45
-5.23
-5.50
-6.28
-7.39
-8.46
-9.01
-8.67
-7.28
-4.98
-2.11
0.90
3.69
6.05
7.89
9.20
10.00
10.30
10.10
9.49
8.57
7.47
6.32
5.20
4.19
3.35
2.73
2.41
2.42
2.74
3.24
3.77
4.15
4.33
4.31
4.18
4.00
3.74
3.34
2.72
1.88
0.88
-0.10
-0.94
-1.59
-2.06
-2.46
-2.87
-3.36
-3.92
-4.57
-5.31
-6.15
-7.13
-8.24
-9.40
-10.49
-11.36
-11.91
-12.14
-12.24
-12.43
-12.89
-13.60
-14.32
-14.61
-14.05
-12.37
-9.56
-5.91
-1.86
2.13
5.71
8.65
10.88
12.41
13.31
13.63
13.46
12.87
11.94
10.75
9.42
8.00
6.57
5.15
3.75
2.42
1.21
0.20
-0.53
-0.84
-0.69
-0.10
0.83
1.87
2.81
3.42
3.60
3.34
2.75
1.99
1.26
0.67
0.24
-0.07
-0.36
-0.70
-1.12
-1.60
-2.07
-2.49
-2.86
-3.25
-3.72
-4.30
-4.96
-5.62
-6.19
-6.64
-7.04
-7.46
-7.99
-8.57
-8.95
-8.79
-7.75
-5.66
-2.65
0.89
4.43
7.51
9.92
11.64
12.85
13.68
14.19
14.31
13.95
13.13
11.97
10.62
9.21
7.74
6.14
4.36
2.45
0.59
-0.97
-2.06
-2.65
-2.87
-2.92
-2.98
-3.07
-3.17
-3.20
-3.23
-3.36
-3.74
-4.44
-5.39
-6.46
-7.47
-8.35
-9.06
-9.61
-9.97
-10.04
-9.74
-9.07
-8.23
-7.48
-7.13
-7.30
-7.89
-8.60
-9.02
-8.80
-7.74
-5.89
-3.46
-0.78
1.77
3.91
5.41
6.24
6.43
6.17
5.65
5.06
4.52
4.13
3.90
3.86
4.05
4.43
4.94
5.44
5.76
5.79
5.52
5.01
4.45
3.98
3.72
3.68
3.78
3.94
4.08
4.09
3.91
3.48
2.79
1.90
0.88
-0.15
-1.14
-2.06
-2.94
-3.84
-4.77
-5.69
-6.49
-7.09
-7.42
-7.55
-7.58
-7.64
-7.83
-8.21
-8.89
-9.92
-11.28
-12.86
-14.34
-15.30
-15.30
-14.08
-11.64
-8.28
-4.48
-0.70
2.66
5.38
7.33
8.56
9.17
9.39
9.42
9.43
9.48
9.52
9.42
9.09
8.51
7.73
6.90
6.13
5.51
5.03
4.65
4.33
4.05
3.84
3.73
3.74
3.80
3.86
3.84
3.71
3.50
3.25
2.94
2.54
1.99
1.27
0.42
-0.49
-1.38
-2.19
-2.91
-3.57
-4.15
-4.67
-5.10
-5.46
-5.74
-5.95
-6.08
-6.16
-6.21
-6.39
-6.87
-7.82
-9.29
-11.20
-13.24
-15.05
-16.22
-16.45
-15.59
-13.66
-10.82
-7.33
-3.53
0.26
3.71
6.59
8.74
10.14
10.79
10.84
10.41
9.64
8.63
7.46
6.22
5.00
3.89
3.00
2.39
2.06
1.99
2.14
2.45
2.89
3.41
3.91
4.26
4.34
4.12
3.64
3.04
2.46
2.04
1.82
1.76
1.81
1.91
2.04
2.21
2.45
2.76
3.03
3.14
2.93
2.33
1.37
0.19
-1.06
-2.25
-3.33
-4.38
-5.49
-6.76
-8.20
-9.76
-11.27
-12.51
-13.23
-13.18
-12.18
-10.19
-7.31
-3.78
0.01
3.63
6.71
8.94
10.21
10.58
10.22
9.36
8.22
6.95
5.63
4.30
2.99
1.69
0.50
-0.54
-1.34
-1.87
-2.10
-2.04
-1.75
-1.33
-0.84
-0.37
0.06
0.46
0.88
1.35
1.91
2.53
3.11
3.52
3.62
3.29
2.48
1.20
-0.47
-2.44
-4.57
-6.75
-8.91
-10.96
-12.87
-14.63
-16.21
-17.57
-18.63
-19.17
-18.95
-17.73
-15.38
-12.02
-7.94
-3.55
0.73
4.57
7.79
10.24
11.84
12.56
12.41
11.57
10.26
8.80
7.44
6.30
5.38
4.62
3.94
3.27
2.64
2.09
1.69
1.47
1.43
1.51
1.69
1.98
2.36
2.84
3.39
3.89
4.28
4.45
4.39
4.18
3.84
3.40
2.80
1.94
0.75
-0.79
-2.59
-4.50
-6.33
-7.95
-9.24
-10.26
-11.07
-11.85
-12.79
-13.99
-15.46
-16.99
-18.26
-18.86
-18.44
-16.82
-14.03
-10.33
-6.11
-1.76
2.41
6.11
9.20
11.55
13.06
13.73
13.62
12.89
11.82
10.65
9.53
8.51
7.53
6.55
5.57
4.75
4.28
4.34
4.99
6.08
7.40
8.64
9.63
10.28
10.61
10.71
10.67
10.52
10.24
9.79
9.11
8.17
6.97
5.51
3.84
2.04
0.23
-1.44
-2.89
-4.12
-5.19
-6.25
-7.40
-8.68
-10.06
-11.36
-12.38
-12.99
-13.17
-13.07
-12.94
-13.09
-13.71
-14.82
-16.14
-17.25
-17.71
-17.17
-15.49
-12.75
-9.17
-5.12
-1.04
2.70
5.78
8.02
9.40
10.06
10.18
9.95
9.53
8.99
8.39
7.74
7.05
6.38
5.75
5.24
4.92
4.82
4.98
5.32
5.76
6.20
6.57
6.81
6.86
6.69
6.29
5.67
4.94
4.24
3.70
3.43
3.42
3.57
3.71
3.69
3.37
2.71
1.73
0.50
-0.87
-2.24
-3.52
-4.62
-5.57
-6.47
-7.49
-8.80
-10.43
-12.22
-13.75
-14.51
-14.03
-12.10
-8.85
-4.72
-0.30
3.89
7.49
10.35
12.41
13.71
14.30
14.26
13.69
12.73
11.51
10.15
8.71
7.24
5.77
4.39
3.18
2.24
1.62
1.35
1.44
1.81
2.38
3.04
3.67
4.10
4.29
4.18
3.81
3.25
2.59
1.88
1.15
0.33
-0.67
-1.89
-3.38
-5.07
-6.82
-8.49
-9.98
-11.33
-12.72
-14.33
-16.22
-18.21
-19.90
-20.70
-20.17
-18.07
-14.58
-10.12
-5.25
-0.51
3.66
7.01
9.45
11.05
11.96
12.43
12.66
12.78
12.80
12.65
12.26
11.57
10.61
9.49
8.34
7.31
6.50
5.96
5.72
5.74
5.92
6.13
6.20
6.02
5.51
4.71
3.73
2.72
1.86
1.22
0.71
0.15
-0.64
-1.78
-3.25
-4.83
-6.34
-7.61
-8.59
-9.31
-9.85
-10.31
-10.81
-11.49
-12.48
-13.86
-15.55
-17.27
-18.56
-18.89
-17.89
-15.42
-11.69
-7.20
-2.55
1.68
5.13
7.61
9.24
10.20
10.70
10.87
10.79
10.46
9.91
9.25
8.59
8.10
7.81
7.70
7.69
7.72
7.82
8.14
8.84
9.96
11.40
12.89
14.09
14.77
14.84
14.44
13.75
12.91
11.96
10.83
9.43
7.69
5.68
3.53
1.46
-0.37
-1.83
-2.89
-3.64
-4.18
-4.59
-4.96
-5.29
-5.60
-5.89
-6.18
-6.50
-6.91
-7.52
-8.44
-9.85
-11.86
-14.51
-17.61
-20.75
-23.35
-24.84
-24.76
-22.96
-19.62
-15.21
-10.29
-5.40
-0.88
3.15
6.71
9.86
12.58
14.69
15.99
16.32
15.71
14.35
12.60
10.76
9.02
7.47
6.09
4.92
4.03
3.51
3.44
3.76
4.36
5.07
5.77
6.41
7.03
7.65
8.34
9.07
9.76
10.31
10.58
10.51
10.08
9.33
8.31
7.05
5.56
3.86
1.96
-0.02
-1.94
-3.66
-5.11
-6.33
-7.44
-8.61
-9.91
-11.33
-12.74
-13.99
-14.91
-15.40
-15.49
-15.34
-15.17
-15.20
-15.59
-16.27
-16.99
-17.30
-16.69
-14.81
-11.59
-7.30
-2.45
2.33
6.56
9.93
12.39
13.97
14.76
14.81
14.22
13.13
11.80
10.44
9.21
8.17
7.26
6.42
5.68
5.11
4.81
4.84
5.13
5.57
6.00
6.32
6.49
6.50
6.36
6.07
5.64
5.10
4.51
3.91
3.32
2.67
1.88
0.86
-0.39
-1.77
-3.16
-4.42
-5.55
-6.60
-7.66
-8.78
-9.92
-10.94
-11.72
-12.22
-12.50
-12.73
-13.13
-13.83
-14.92
-16.27
-17.62
-18.53
-18.59
-17.46
-15.06
-11.61
-7.51
-3.31
0.56
3.79
6.24
7.93
8.97
9.51
9.68
9.65
9.49
9.26
8.96
8.58
8.14
7.71
7.39
7.28
7.40
7.70
8.07
8.39
8.57
8.62
8.59
8.55
8.51
8.40
8.12
7.61
6.85
5.94
5.00
4.08
3.22
2.35
1.49
0.60
-0.31
-1.23
-2.18
-3.16
-4.16
-5.14
-6.02
-6.74
-7.33
-7.87
-8.46
-9.14
-9.89
-10.71
-11.52
-12.25
-12.84
-13.28
-13.58
-13.87
-14.29
-14.99
-15.96
-17.00
-17.65
-17.39
-15.82
-12.86
-8.78
-4.14
0.45
4.51
7.83
10.45
12.50
14.07
15.17
15.72
15.67
15.05
14.02
12.79
11.61
10.62
9.91
9.46
9.22
9.14
9.18
9.38
9.76
10.39
11.30
12.46
13.71
14.87
15.72
16.11
16.04
15.62
15.04
14.54
14.28
14.24
14.26
14.08
13.44
12.27
10.66
8.92
7.46
6.71
6.85
7.78
8.90
9.20
7.34
1.98
-7.80
-22.04
-39.63
-58.50
-76.10
-90.14
-99.18
-102.88
-101.98
-97.82
-91.88
-85.42
-79.25
-73.64
-68.49
-63.30
-57.39
-50.09
-40.96
-29.93
-17.39
-4.10
8.95
20.70
30.30
37.23
41.43
43.35
43.79
43.65
43.65
44.15
44.98
45.67
45.65
44.54
42.33
39.32
35.99
32.72
29.65
26.68
23.52
19.95
16.00
11.97
8.36
5.65
4.10
3.65
3.94
4.59
5.33
6.12
7.11
8.43
10.04
11.66
12.92
13.48
13.25
12.32
10.89
9.14
7.10
4.71
1.93
-1.19
-4.49
-7.73
-10.72
-13.36
-15.59
-17.26
-18.08
-17.63
-15.57
-11.78
-6.58
-0.62
5.24
10.20
13.69
15.49
15.64
14.37
12.02
9.04
5.97
3.36
1.73
1.35
2.20
3.89
5.86
7.55
8.55
8.81
8.52
8.03
7.65
7.49
7.45
7.28
6.66
5.34
3.26
0.51
-2.69
-6.10
-9.49
-12.66
-15.52
-18.02
-20.10
-21.70
-22.75
-23.25
-23.27
-22.97
-22.59
-22.37
-22.47
-22.91
-23.60
-24.33
-24.86
-24.90
-24.26
-22.71
-20.12
-16.44
-11.71
-6.19
-0.27
5.60
10.95
15.37
18.59
20.47
21.00
20.34
18.76
16.63
14.39
12.44
11.03
10.21
9.86
9.80
9.92
10.20
10.74
11.60
12.81
14.25
15.79
17.26
18.61
19.80
20.76
21.31
21.23
20.31
18.50
15.95
12.98
9.95
7.14
4.73
2.78
1.28
0.18
-0.63
-1.35
-2.30
-3.86
-6.39
-10.09
-14.91
-20.49
-26.22
-31.35
-35.18
-37.16
-37.10
-35.10
-31.58
-27.08
-22.19
-17.32
-12.72
-8.45
-4.44
-0.61
3.10
6.71
10.17
13.45
16.52
19.36
21.92
24.14
25.96
27.31
28.25
28.91
29.44
29.90
30.22
30.17
29.43
27.65
24.60
20.22
14.59
8.00
0.93
-6.04
-12.32
-17.46
-21.26
-23.81
-25.41
-26.42
-27.09
-27.47
-27.52
-27.15
-26.34
-25.25
-24.03
-22.73
-21.21
-19.17
-16.27
-12.39
-7.71
-2.64
2.21
6.36
9.54
11.81
13.40
14.61
15.65
16.62
17.56
18.52
19.55
20.77
22.21
23.80
25.40
26.80
27.89
28.74
29.60
30.82
32.73
35.46
38.89
42.63
46.20
49.21
51.47
53.08
54.30
55.45
56.69
58.09
59.56
61.02
62.49
64.10
66.08
68.74
72.45
77.57
84.39
92.92
102.71
112.86
122.22
129.75
134.99
138.19
140.30
142.42
145.36
149.30
153.83
158.36
162.60
166.86
172.14
179.81
191.02
206.04
223.69
241.17
254.46
259.34
252.47
232.57
200.66
159.45
112.17
61.29
7.74
-48.39
-106.57
-164.60
-218.41
-263.67
-297.97
-322.78
-343.27
-365.92
-394.79
-429.19
-463.82
-491.98
-509.06
-514.57
-511.20
-502.02
-488.11
-468.50
-442.36
-411.46
-380.56
-355.11
-337.59
-325.13
-310.48
-285.65
-246.33
-194.20
-135.68
-78.03
-25.38
23.17
72.39
127.45
190.30
257.55
321.31
372.43
404.67
417.66
417.28
412.75
412.07
417.89
426.59
430.69
423.60
403.59
374.96
345.42
321.38
304.27
289.88
271.41
244.08
208.26
169.25
134.09
107.55
90.12
78.53
68.40
56.64
42.02
24.07
1.52
-28.04
-66.30
-111.57
-157.26
-193.07
-208.56
-197.49
-160.40
-104.46
-40.81
19.03
66.17
96.11
109.15
109.72
104.68
100.96
103.30
112.57
125.78
137.86
144.17
142.51
133.62
119.60
102.37
82.55
59.96
34.81
8.71
-15.77
-36.43
-53.07
-68.06
-85.44
-109.02
-140.64
-179.22
-221.44
-263.19
-301.49
-335.58
-367.00
-398.79
-434.38
-476.69
-527.33
-585.72
-648.39
-708.67
-757.81
-787.21
-791.34
-769.82
-727.63
-673.03
-614.43
-557.64
-505.12
-456.65
-411.07
-367.74
-326.88
-288.93
-253.62
-219.64
-185.29
-149.58
-112.67
-75.65
-40.02
-6.83
23.81
52.77
81.60
111.70
143.28
175.63
207.66
238.56
268.32
298.01
329.54
364.79
404.18
444.41
480.06
505.58
517.27
514.06
497.83
473.05
445.75
421.97
403.95
392.59
388.62
392.23
401.04
409.63
411.32
400.64
375.34
332.75
274.16
205.62
135.82
71.52
15.43
-32.92
-75.34
-113.81
-155.43
-205.50
-263.86
-325.33
-384.13
-436.71
-481.80
-519.53
-516.35
-454.47
-345.29
-222.04
-112.92
-28.35
33.54
78.59
112.17
137.89
152.40
152.83
141.71
126.10
112.87
105.63
104.62
108.09
113.65
114.71
105.37
85.23
58.04
29.08
3.46
-13.89
-18.62
-8.39
15.07
42.53
65.37
78.65
81.71
77.31
70.00
63.91
60.96
59.18
55.49
49.21
42.27
37.71
37.76
43.10
52.45
63.46
73.15
79.40
82.42
84.08
86.75
92.08
100.44
111.39
123.47
134.99
144.67
152.45
159.16
165.85
173.30
181.95
193.00
207.45
225.84
247.27
268.92
285.94
292.74
284.96
256.51
208.95
149.03
85.97
28.14
-19.64
-56.87
-86.48
-112.71
-139.30
-167.58
-197.71
-229.26
-261.56
-293.72
-324.49
-352.41
-376.18
-395.74
-412.71
-430.94
-454.75
-486.06
-522.05
-554.77
-573.88
-571.14
-544.62
-499.84
-448.16
-401.99
-369.77
-353.29
-348.09
-346.48
-341.20
-327.87
-305.40
-275.19
-239.59
-200.76
-160.47
-120.26
-81.64
-46.20
-15.09
11.52
34.61
56.00
77.83
101.66
127.88
155.65
183.30
209.25
232.90
255.22
278.40
304.64
334.37
364.98
390.91
405.29
402.62
380.92
342.45
292.57
237.63
183.14
133.23
91.11
59.64
41.23
36.87
45.25
62.69
84.50
106.78
127.89
148.55
170.72
196.30
226.45
261.63
301.81
346.13
391.84
433.40
462.98
472.48
456.60
415.34
354.43
283.49
212.78
150.07
99.10
60.02
30.89
9.36
-6.53
-18.33
-27.60
-35.92
-44.50
-53.53
-61.75
-66.63
-65.26
-55.67
-38.20
-16.06
5.26
19.55
22.06
11.24
-10.79
-39.18
-68.26
-93.54
-112.70
-125.36
-132.00
-132.88
-127.74
-116.42
-100.14
-82.16
-67.45
-60.94
-65.47
-80.27
-100.95
-121.13
-134.90
-139.13
-134.37
-124.23
-113.61
-106.65
-105.36
-109.26
-116.07
-122.86
-127.18
-127.58
-123.58
-115.30
-103.08
-87.44
-69.34
-50.66
-34.12
-22.82
-19.22
-23.92
-35.18
-48.99
-60.28
-64.41
-58.71
-43.22
-20.73
4.19
26.64
42.85
51.27
52.61
49.27
44.02
38.97
35.06
32.25
30.26
29.10
29.36
31.86
37.19
45.37
55.88
67.95
80.84
93.97
106.81
118.76
129.04
136.89
141.77
143.51
142.30
138.50
132.50
124.68
115.46
105.35
94.90
84.52
74.28
63.88
52.84
40.82
27.92
14.78
2.34
-8.56
-17.38
-23.95
-28.21
-29.95
-28.79
-24.38
-16.89
-7.35
2.43
10.29
14.36
13.52
7.37
-4.07
-20.77
-42.80
-70.04
-101.68
-135.77
-169.19
-198.19
-219.24
-229.90
-229.42
-218.66
-199.62
-174.71
-146.15
-115.71
-84.79
-54.77
-27.24
-3.88
13.88
25.43
31.27
32.90
32.29
31.20
30.56
30.32
29.76
28.03
24.73
20.33
16.10
13.63
14.26
18.41
25.28
33.00
39.36
42.59
42.12
38.80
34.39
30.87
29.48
30.39
32.70
34.96
35.81
34.45
31.00
26.42
22.32
20.35
21.57
25.96
32.28
38.50
42.52
43.13
40.49
36.06
31.92
29.85
30.50
33.21
36.33
37.94
36.68
32.17
25.06
16.59
8.05
0.34
-6.13
-11.27
-15.06
-17.26
-17.51
-15.48
-11.20
-5.29
1.08
6.46
9.57
9.81
7.44
3.43
-1.03
-5.07
-8.52
-11.72
-15.15
-18.93
-22.65
-25.45
-26.53
-25.41
-22.18
-17.40
-11.86
-6.39
-1.78
1.26
2.15
0.43
-4.06
-11.10
-20.03
-29.83
-39.26
-47.13
-52.56
-55.13
-55.00
-52.77
-49.36
-45.69
-42.51
-40.21
-38.84
-38.08
-37.50
-36.73
-35.61
-34.21
-32.74
-31.38
-30.17
-28.98
-27.71
-26.36
-25.09
-24.13
-23.63
-23.56
-23.60
-23.38
-22.69
-21.59
-20.43
-19.64
-19.49
-19.97
-20.79
-21.52
-21.82
-21.53
-20.68
-19.46
-18.15
-17.08
-16.68
-17.35
-19.35
-22.60
-26.53
-30.17
-32.36
-32.13
-29.02
-23.20
-15.46
-6.96
1.08
7.70
12.38
15.14
16.44
17.04
17.70
18.93
20.97
23.74
26.92
30.13
32.90
34.74
35.19
33.94
31.04
26.95
22.51
18.62
16.00
14.92
15.16
16.19
17.35
18.07
17.98
16.93
14.93
12.21
9.17
6.23
3.75
1.86
0.37
-1.17
-3.33
-6.61
-11.15
-16.64
-22.25
-26.76
-28.96
-28.00
-23.76
-16.84
-8.38
0.41
8.57
15.55
21.18
25.54
28.76
30.94
32.14
32.39
31.73
30.21
27.92
25.08
22.02
19.09
16.61
14.70
13.25
12.09
11.05
10.09
9.27
8.65
8.28
8.10
8.06
8.10
8.25
8.55
8.99
9.56
10.14
10.66
11.02
11.25
11.37
11.44
11.40
10.99
9.85
7.51
3.63
-1.83
-8.43
-15.34
-21.42
-25.57
-27.03
-25.59
-21.67
-16.14
-10.05
-4.26
0.72
4.81
8.21
11.10
13.51
15.22
15.91
15.40
13.76
11.37
8.70
6.19
3.98
2.03
0.14
-1.82
-3.82
-5.66
-7.06
-7.83
-7.83
-7.16
-5.96
-4.51
-3.08
-1.92
-1.19
-0.94
-1.13
-1.67
-2.48
-3.39
-4.23
-4.70
-4.56
-3.73
-2.45
-1.32
-1.10
-2.40
-5.39
-9.64
-14.15
-17.68
-19.13
-17.85
-13.88
-7.83
-0.65
6.68
13.42
19.19
23.87
27.52
30.16
31.76
32.26
31.66
30.06
27.66
24.76
21.64
18.47
15.39
12.46
9.76
7.41
5.55
4.36
3.93
4.23
5.12
6.31
7.47
8.29
8.54
8.15
7.16
5.68
3.81
1.67
-0.61
-2.83
-4.77
-6.25
-7.31
-8.24
-9.48
-11.42
-14.03
-16.74
-18.60
-18.66
-16.32
-11.70
-5.54
1.16
7.53
13.19
18.19
22.80
27.21
31.28
34.55
36.40
36.32
34.04
29.72
23.80
16.95
9.82
2.97
-3.25
-8.62
-13.00
-16.23
-18.16
-18.71
-17.96
-16.22
-14.01
-11.89
-10.31
-9.46
-9.30
-9.59
-10.03
-10.33
-10.32
-9.97
-9.45
-9.15
-9.55
-11.18
-14.30
-18.84
-24.27
-29.67
-33.96
-36.18
-35.73
-32.53
-27.04
-20.07
-12.56
-5.32
1.15
6.65
11.16
14.70
17.19
18.51
18.53
17.28
14.98
12.04
8.88
5.87
3.16
0.75
-1.44
-3.39
-4.91
-5.75
-5.71
-4.79
-3.27
-1.61
-0.35
0.18
-0.09
-0.93
-1.97
-2.86
-3.33
-3.34
-3.05
-2.81
-3.10
-4.41
-7.03
-10.89
-15.42
-19.67
-22.57
-23.20
-21.14
-16.56
-10.09
-2.64
4.96
12.08
18.36
23.63
27.81
30.83
32.59
33.01
32.11
30.07
27.21
23.91
20.52
17.26
14.20
11.33
8.64
6.26
4.45
3.50
3.60
4.65
6.22
7.68
8.44
8.21
7.02
5.24
3.28
1.47
-0.09
-1.58
-3.37
-5.90
-9.51
-14.29
-19.93
-25.74
-30.73
-33.90
-34.51
-32.36
-27.81
-21.66
-14.84
-8.14
-2.03
3.31
7.94
11.88
15.02
17.11
17.80
16.92
14.53
10.99
6.84
2.64
-1.17
-4.27
-6.47
-7.60
-7.47
-6.04
-3.42
-0.06
3.36
6.10
7.59
7.61
6.33
4.22
1.83
-0.31
-1.91
-2.92
-3.54
-4.25
-5.63
-8.21
-12.19
-17.26
-22.56
-26.89
-29.12
-28.59
-25.33
-20.00
-13.58
-6.94
-0.62
5.23
10.64
15.64
20.08
23.67
26.13
27.36
27.51
26.94
26.00
24.88
23.50
21.59
18.93
15.51
11.69
8.01
4.98
2.85
1.46
0.36
-0.93
-2.70
-4.88
-7.08
-8.80
-9.65
-9.55
-8.89
-8.36
-8.78
-10.68
-14.08
-18.44
-22.77
-26.10
-27.73
-27.43
-25.39
-22.05
-17.83
-13.05
-8.01
-2.95
1.82
6.05
9.52
12.04
13.43
13.52
12.16
9.42
5.70
1.77
-1.42
-3.06
-2.73
-0.67
2.40
5.46
7.62
8.34
7.56
5.54
2.76
-0.26
-3.06
-5.17
-6.25
-6.06
-4.76
-2.90
-1.42
-1.33
-3.31
-7.36
-12.71
-18.02
-21.77
-22.80
-20.60
-15.43
-8.15
0.12
8.31
15.64
21.67
26.32
29.73
32.11
33.61
34.20
33.68
31.74
28.22
23.15
16.92
10.16
3.57
-2.29
-7.05
-10.56
-12.78
-13.63
-13.03
-10.99
-7.72
-3.72
0.34
3.74
5.99
6.87
6.46
4.97
2.57
-0.75
-5.10
-10.44
-16.48
-22.46
-27.33
-30.07
-30.04
-27.22
-22.19
-15.95
-9.55
-3.88
0.57
3.60
5.27
5.76
5.26
3.98
2.11
-0.15
-2.62
-5.06
-7.32
-9.31
-11.04
-12.63
-14.22
-15.94
-17.78
-19.58
-21.04
-21.85
-21.91
-21.39
-20.77
-20.62
-21.39
-23.22
-25.90
-28.96
-31.85
-34.19
-35.78
-36.68
-37.17
-37.62
-38.44
-39.84
-41.61
-43.05
-42.98
-40.04
-33.15
-21.98
-7.10
10.05
27.65
43.95
57.66
68.15
75.31
79.30
80.43
79.01
75.43
70.21
64.10
57.91
52.41
48.09
45.07
43.17
41.94
40.90
39.66
37.99
35.91
33.57
31.13
28.69
26.23
23.56
20.53
17.09
13.46
10.05
7.30
5.49
4.60
4.29
4.15
3.90
3.56
3.39
3.69
4.54
5.70
6.65
6.90
6.30
5.08
3.74
2.66
1.91
1.09
-0.36
-2.80
-6.19
-9.94
-13.29
-15.60
-16.68
-16.83
-16.68
-16.94
-18.21
-20.80
-24.69
-29.55
-34.69
-39.17
-41.96
-42.28
-39.86
-35.09
-29.00
-22.86
-17.75
-14.18
-12.02
-10.63
-9.30
-7.52
-5.23
-2.73
-0.47
1.16
2.00
2.20
2.10
2.11
2.65
3.96
6.09
8.87
11.95
14.92
17.43
19.26
20.32
20.56
20.01
18.74
16.96
15.01
13.26
12.04
11.49
11.51
11.81
12.09
12.03
11.44
10.22
8.37
5.93
2.99
-0.31
-3.82
-7.37
-10.73
-13.61
-15.71
-16.91
-17.28
-17.24
-17.37
-18.22
-19.98
-22.36
-24.67
-26.07
-25.91
-23.95
-20.47
-16.04
-11.35
-6.96
-3.19
-0.15
2.28
4.26
5.95
7.34
8.31
8.67
8.31
7.32
6.02
4.83
4.08
3.90
4.15
4.59
5.02
5.37
5.73
6.19
6.82
7.50
8.10
8.45
8.47
8.15
7.54
6.66
5.56
4.27
2.89
1.54
0.41
-0.36
-0.68
-0.65
-0.52
-0.67
-1.48
-3.14
-5.54
-8.32
-10.95
-12.94
-13.99
-14.06
-13.41
-12.56
-12.08
-12.45
-13.88
-16.10
-18.43
-19.97
-19.95
-18.02
-14.40
-9.71
-4.70
0.05
4.25
7.89
11.03
13.69
15.73
16.97
17.22
16.46
14.79
12.50
9.97
7.60
5.74
4.55
4.03
4.00
4.24
4.62
5.10
5.73
6.49
7.33
8.00
8.22
7.82
6.82
5.51
4.25
3.31
2.73
2.32
1.78
0.88
-0.41
-1.92
-3.35
-4.43
-5.00
-4.98
-4.40
-3.33
-1.94
-0.49
0.67
1.22
0.97
-0.05
-1.60
-3.36
-5.01
-6.42
-7.70
-9.14
-11.16
-14.09
-17.97
-22.44
-26.75
-29.95
-31.21
-30.11
-26.83
-22.01
-16.53
-11.12
-6.17
-1.78
2.18
5.83
9.11
11.84
13.77
14.75
14.85
14.31
13.47
12.63
11.92
11.28
10.55
9.65
8.67
7.84
7.44
7.64
8.36
9.33
10.19
10.64
10.54
9.93
8.92
7.66
6.25
4.79
3.38
2.06
0.82
-0.45
-1.84
-3.36
-4.85
-6.02
-6.56
-6.28
-5.24
-3.71
-2.11
-0.80
-0.01
0.17
-0.26
-1.24
-2.71
-4.56
-6.67
-8.93
-11.32
-13.93
-16.94
-20.44
-24.28
-28.00
-30.88
-32.17
-31.36
-28.45
-23.97
-18.74
-13.56
-8.92
-4.94
-1.41
1.96
5.33
8.66
11.69
14.12
15.70
16.30
16.01
15.05
13.73
12.33
11.02
9.80
8.61
7.40
6.29
5.51
5.25
5.55
6.18
6.72
6.79
6.31
5.47
4.70
4.38
4.63
5.26
5.93
6.27
6.09
5.44
4.54
3.66
3.00
2.71
2.76
3.04
3.34
3.37
2.83
1.48
-0.74
-3.66
-6.90
-10.02
-12.62
-14.45
-15.53
-16.17
-16.86
-18.10
-20.23
-23.16
-26.40
-29.08
-30.27
-29.33
-26.20
-21.37
-15.72
-10.11
-5.09
-0.79
2.97
6.42
9.62
12.38
14.38
15.31
15.03
13.64
11.47
8.94
6.48
4.37
2.77
1.73
1.25
1.37
2.15
3.57
5.46
7.47
9.11
9.95
9.88
9.10
8.10
7.40
7.30
7.76
8.42
8.81
8.51
7.37
5.49
3.20
0.88
-1.12
-2.56
-3.41
-3.81
-4.11
-4.72
-5.94
-7.85
-10.19
-12.48
-14.25
-15.17
-15.26
-14.92
-14.77
-15.42
-17.27
-20.29
-23.97
-27.50
-30.06
-31.09
-30.52
-28.71
-26.26
-23.68
-21.21
-18.80
-16.32
-13.81
-11.41
-9.39
-7.90
-6.96
-6.43
-6.13
-5.87
-5.28
-3.84
-0.88
4.07
10.96
18.99
26.82
33.03
36.71
37.75
36.76
34.65
32.16
29.62
26.99
24.18
21.28
18.67
16.89
16.42
17.40
19.52
22.19
24.68
26.43
27.23
27.17
26.50
25.37
23.69
21.15
17.47
12.64
7.07
1.51
-3.23
-6.58
-8.43
-9.13
-9.39
-10.04
-11.72
-14.75
-18.97
-23.78
-28.30
-31.66
-33.25
-32.90
-30.93
-27.91
-24.47
-21.01
-17.64
-14.19
-10.32
-5.75
-0.37
5.62
11.63
16.83
20.37
21.65
20.58
17.66
13.77
9.83
6.52
4.04
2.24
0.79
-0.53
-1.67
-2.39
-2.40
-1.55
0.08
2.14
4.21
5.89
7.00
7.57
7.82
7.99
8.26
8.61
8.87
8.86
8.48
7.79
6.95
6.09
5.23
4.21
2.91
1.30
-0.45
-2.14
-3.62
-5.02
-6.72
-9.12
-12.40
-16.33
-20.28
-23.48
-25.25
-25.30
-23.75
-21.03
-17.67
-14.05
-10.41
-6.78
-3.15
0.49
4.07
7.44
10.38
12.70
14.25
14.98
14.96
14.36
13.39
12.24
11.05
9.91
8.87
7.97
7.27
6.85
6.80
7.13
7.77
8.56
9.31
9.87
10.13
10.07
9.76
9.29
8.76
8.19
7.52
6.63
5.34
3.52
1.12
-1.75
-4.92
-8.10
-11.04
-13.48
-15.28
-16.40
-16.96
-17.25
-17.72
-18.82
-20.84
-23.66
-26.75
-29.23
-30.23
-29.16
-25.97
-21.10
-15.34
-9.46
-4.03
0.67
4.56
7.72
10.21
12.10
13.39
14.08
14.14
13.55
12.37
10.77
8.99
7.37
6.17
5.57
5.56
6.08
7.06
8.41
10.06
11.86
13.60
14.98
15.81
16.00
15.69
15.11
14.48
13.88
13.18
12.14
10.55
8.37
5.81
3.27
1.18
-0.18
-0.84
-1.09
-1.34
-2.03
-3.37
-5.31
-7.53
-9.63
-11.21
-12.07
-12.35
-12.47
-13.06
-14.71
-17.69
-21.86
-26.57
-30.83
-33.64
-34.26
-32.47
-28.63
-23.48
-17.85
-12.44
-7.60
-3.39
0.28
3.50
6.21
8.22
9.39
9.66
9.19
8.34
7.48
6.92
6.84
7.26
8.11
9.28
10.67
12.21
13.81
15.33
16.61
17.50
17.92
17.86
17.39
16.61
15.57
14.30
12.86
11.33
9.84
8.51
7.36
6.32
5.31
4.26
3.18
2.15
1.19
0.24
-0.83
-2.19
-3.92
-5.95
-8.05
-9.91
-11.22
-11.81
-11.75
-11.40
-11.31
-12.07
-14.10
-17.42
-21.59
-25.84
-29.27
-31.11
-30.93
-28.73
-24.81
-19.73
-14.08
-8.38
-2.99
1.97
6.46
10.50
14.05
16.94
19.02
20.18
20.45
20.00
19.08
17.91
16.66
15.45
14.38
13.57
13.09
12.98
13.15
13.46
13.76
13.92
13.91
13.75
13.48
13.06
12.44
11.54
10.38
9.06
7.74
6.60
5.71
5.07
4.50
3.85
2.96
1.81
0.44
-1.06
-2.61
-4.14
-5.59
-6.93
-8.14
-9.29
-10.54
-12.16
-14.33
-17.04
-19.99
-22.62
-24.23
-24.23
-22.33
-18.67
-13.71
-8.13
-2.61
2.30
6.30
9.28
11.32
12.59
13.27
13.51
13.37
12.86
12.03
11.04
10.14
9.58
9.57
10.12
11.08
12.22
13.34
14.29
15.04
15.55
15.75
15.58
14.96
13.89
12.45
10.81
9.17
7.72
6.61
5.88
5.40
4.99
4.37
3.38
2.07
0.66
-0.53
-1.28
-1.62
-1.83
-2.31
-3.33
-4.96
-6.97
-8.96
-10.54
-11.45
-11.65
-11.34
-10.86
-10.66
-11.13
-12.54
-14.90
-17.88
-20.91
-23.24
-24.19
-23.35
-20.70
-16.65
-11.85
-6.97
-2.56
1.08
3.88
5.90
7.25
8.10
8.58
8.88
9.14
9.43
9.78
10.15
10.48
10.78
11.03
11.25
11.44
11.57
11.65
11.73
11.88
12.06
12.20
12.10
11.63
10.77
9.65
8.54
7.64
7.04
6.59
6.07
5.27
4.11
2.69
1.21
-0.18
-1.51
-3.01
-5.06
-7.92
-11.62
-15.86
-20.06
-23.61
-26.02
-27.10
-26.99
-26.17
-25.29
-25.04
-25.94
-28.12
-31.27
-34.72
-37.64
-39.30
-39.30
-37.62
-34.50
-30.31
-25.40
-20.06
-14.62
-9.38
-4.62
-0.52
2.91
5.76
8.15
10.13
11.64
12.57
12.90
12.65
12.03
11.27
10.60
10.18
10.11
10.42
11.13
12.23
13.62
15.13
16.53
17.57
18.03
17.88
17.23
16.38
15.65
15.29
15.29
15.41
15.28
14.54
13.04
10.87
8.33
5.81
3.65
2.02
0.95
0.21
-0.55
-1.75
-3.72
-6.55
-9.97
-13.43
-16.26
-17.80
-17.69
-15.88
-12.70
-8.73
-4.56
-0.73
2.39
4.68
6.19
7.11
7.70
8.18
8.63
8.97
9.01
8.57
7.62
6.35
5.13
4.33
4.14
4.49
5.14
5.81
6.37
6.84
7.31
7.77
8.08
8.10
7.79
7.30
6.91
6.83
7.11
7.57
7.94
7.97
7.56
6.77
5.75
4.57
3.28
1.85
0.20
-1.68
-3.78
-5.99
-8.16
-10.08
-11.55
-12.44
-12.74
-12.61
-12.42
-12.64
-13.73
-15.95
-19.20
-22.90
-26.17
-28.03
-27.81
-25.42
-21.30
-16.31
-11.28
-6.74
-2.82
0.67
4.01
7.28
10.41
13.14
15.22
16.48
16.90
16.53
15.51
14.04
12.32
10.57
8.98
7.66
6.58
5.64
4.80
4.12
3.83
4.16
5.25
7.00
9.08
11.05
12.53
13.39
13.64
13.46
12.96
12.19
11.09
9.62
7.80
5.81
3.93
2.39
1.30
0.56
-0.09
-0.97
-2.35
-4.34
-6.74
-9.30
-11.67
-13.61
-15.06
-16.06
-16.84
-17.69
-18.93
-20.85
-23.50
-26.70
-29.94
-32.54
-33.89
-33.60
-31.69
-28.48
-24.47
-20.18
-16.01
-12.25
-9.07
-6.50
-4.50
-2.95
-1.69
-0.66
0.10
0.46
0.25
-0.62
-2.06
-3.75
-5.26
-6.15
-6.11
-5.01
-2.92
-0.00
3.46
7.12
10.61
13.48
15.33
15.90
15.14
13.25
10.59
7.56
4.45
1.43
-1.40
-3.98
-6.21
-7.97
-9.11
-9.44
-8.75
-6.94
-4.09
-0.62
2.83
5.46
6.62
6.00
3.65
-0.07
-4.69
-9.75
-14.82
-19.42
-23.00
-25.02
-25.13
-23.25
-19.60
-14.57
-8.53
-1.70
5.71
13.38
20.74
27.00
31.35
33.29
32.83
30.43
26.83
22.71
18.58
14.74
11.33
8.46
6.24
4.77
4.15
4.46
5.76
8.07
11.26
15.00
18.70
21.74
23.57
23.96
23.04
21.20
18.89
16.47
14.01
11.42
8.52
5.27
1.86
-1.36
-4.01
-5.93
-7.13
-7.90
-8.57
-9.47
-10.77
-12.56
-14.92
-17.78
-21.01
-24.22
-26.85
-28.30
-28.12
-26.24
-22.96
-18.89
-14.68
-10.79
-7.37
-4.24
-1.01
2.63
6.78
11.18
15.33
18.64
20.70
21.43
21.05
19.92
18.41
16.73
14.96
13.10
11.18
9.32
7.70
6.51
5.83
5.62
5.73
5.94
6.07
6.04
5.85
5.55
5.26
5.06
4.99
5.05
5.16
5.09
4.54
3.26
1.13
-1.66
-4.69
-7.35
-9.08
-9.47
-8.36
-5.90
-2.59
0.77
3.25
4.10
3.06
0.52
-2.64
-5.41
-7.07
-7.49
-7.00
-6.13
-5.29
-4.49
-3.53
-2.11
-0.12
2.24
4.56
6.43
7.56
7.89
7.57
6.85
5.99
5.23
4.73
4.60
4.85
5.41
6.21
7.19
8.25
9.38
10.55
11.69
12.70
13.45
13.83
13.82
13.51
12.98
12.28
11.37
10.18
8.66
6.87
4.94
3.02
1.22
-0.47
-2.18
-4.15
-6.56
-9.50
-12.81
-16.13
-19.11
-21.52
-23.39
-25.03
-26.83
-29.07
-31.70
-34.30
-36.30
-37.07
-36.26
-33.84
-30.10
-25.50
-20.58
-15.83
-11.51
-7.73
-4.37
-1.26
1.73
4.63
7.25
9.37
10.80
11.48
11.50
11.04
10.30
9.49
8.83
8.48
8.60
9.19
10.18
11.36
12.55
13.53
14.13
14.20
13.61
12.32
10.45
8.24
6.04
4.18
2.76
1.72
0.84
-0.16
-1.44
-3.11
-5.18
-7.53
-10.01
-12.40
-14.45
-16.02
-17.13
-17.99
-18.93
-20.19
-21.83
-23.62
-25.12
-25.79
-25.19
-23.11
-19.63
-15.13
-10.11
-5.13
-0.65
3.06
6.00
8.30
10.22
11.95
13.55
14.95
16.02
16.67
16.89
16.75
16.38
15.94
15.56
15.36
15.45
15.80
16.32
16.83
17.07
16.80
15.91
14.33
12.17
9.64
7.05
4.76
3.06
2.06
1.62
1.41
1.01
0.11
-1.37
-3.36
-5.57
-7.74
-9.65
-11.23
-12.58
-13.95
-15.69
-18.13
-21.37
-25.19
-28.92
-31.64
-32.39
-30.45
-25.70
-18.59
-10.07
-1.35
6.50
12.72
17.06
19.64
20.80
20.94
20.34
19.17
17.54
15.62
13.64
11.82
10.33
9.21
8.41
7.95
7.90
8.43
9.65
11.52
13.76
15.93
17.60
18.44
18.40
17.64
16.44
15.13
13.94
12.89
11.90
10.77
9.33
7.55
5.56
3.57
1.76
0.17
-1.26
-2.59
-3.84
-5.06
-6.37
-8.06
-10.45
-13.70
-17.53
-21.24
-23.87
-24.54
-22.88
-19.07
-13.80
-7.98
-2.35
2.60
6.68
9.88
12.28
13.89
14.72
14.80
14.23
13.22
12.05
11.00
10.24
9.86
9.86
10.15
10.61
11.10
11.46
11.52
11.21
10.52
9.53
8.40
7.27
6.20
5.17
4.13
3.09
2.15
1.46
1.15
1.20
1.39
1.39
0.81
-0.58
-2.75
-5.40
-8.05
-10.26
-11.71
-12.35
-12.38
-12.16
-12.13
-12.66
-14.00
-16.17
-18.94
-21.84
-24.25
-25.52
-25.23
-23.28
-19.92
-15.68
-11.19
-7.04
-3.57
-0.88
1.14
2.71
4.03
5.16
6.01
6.41
6.23
5.46
4.17
2.56
0.82
-0.90
-2.47
-3.73
-4.58
-4.95
-4.93
-4.71
-4.52
-4.54
-4.81
-5.21
-5.57
-5.70
-5.49
-4.91
-4.02
-2.99
-2.05
-1.49
-1.48
-2.04
-2.93
-3.73
-4.04
-3.71
-2.93
-2.20
-2.19
-3.34
-5.72
-8.94
-12.26
-14.82
-15.99
-15.44
-13.25
-9.84
-5.77
-1.62
2.22
5.56
8.39
10.85
13.05
15.02
16.68
17.92
18.63
18.78
18.44
17.70
16.68
15.46
14.12
12.79
11.64
10.82
10.40
10.35
10.49
10.58
10.34
9.65
8.50
7.13
5.85
5.02
4.85
5.31
6.09
6.78
6.97
6.45
5.31
3.81
2.18
0.53
-1.22
-3.26
-5.83
-9.00
-12.78
-17.03
-21.46
-25.64
-28.95
-30.70
-30.35
-27.67
-22.92
-16.82
-10.35
-4.46
0.18
3.29
5.02
5.77
6.00
6.05
6.09
6.11
6.02
5.83
5.60
5.48
5.58
5.93
6.45
7.03
7.59
8.12
8.63
9.18
9.73
10.20
10.49
10.58
10.52
10.46
10.55
10.89
11.50
12.27
13.04
13.65
14.00
13.94
13.37
12.18
10.29
7.76
4.79
1.71
-1.11
-3.37
-4.97
-5.94
-6.48
-6.86
-7.41
-8.47
-10.28
-12.83
-15.78
-18.44
-19.98
-19.75
-17.51
-13.62
-8.82
-4.01
0.15
3.36
5.65
7.27
8.45
9.31
9.89
10.23
10.36
10.35
10.27
10.17
10.10
10.10
10.23
10.58
11.16
11.84
12.35
12.25
11.16
8.83
5.32
0.99
-3.55
-7.64
-10.74
-12.55
-13.05
-12.43
-10.99
-9.12
-7.20
-5.56
-4.43
-3.91
-3.94
-4.36
-4.97
-5.63
-6.31
-7.08
-8.13
-9.58
-11.50
-13.78
-16.26
-18.78
-21.32
-23.98
-26.87
-29.96
-32.94
-35.28
-36.40
-35.95
-34.00
-30.99
-27.61
-24.47
-21.94
-20.05
-18.49
-16.81
-14.59
-11.61
-7.96
-4.02
-0.34
2.59
4.51
5.49
5.85
5.98
6.21
6.66
7.35
8.24
9.34
10.70
12.34
14.15
15.84
17.06
17.54
17.18
16.16
14.81
13.47
12.32
11.32
10.27
9.04
7.60
6.16
5.03
4.56
4.97
6.22
8.00
9.72
10.68
10.25
8.12
4.46
-0.04
-4.37
-7.54
-8.85
-8.13
-5.74
-2.34
1.33
4.67
7.35
9.26
10.51
11.26
11.67
11.82
11.66
11.13
10.13
8.69
6.96
5.19
3.70
2.78
2.59
3.10
4.12
5.34
6.47
7.31
7.78
7.93
7.78
7.30
6.40
5.01
3.21
1.30
-0.30
-1.20
-1.23
-0.57
0.37
1.05
1.13
0.47
-0.75
-2.23
-3.64
-4.71
-5.33
-5.56
-5.64
-5.96
-6.92
-8.80
-11.63
-15.12
-18.67
-21.58
-23.16
-22.96
-20.86
-17.14
-12.42
-7.46
-2.91
0.82
3.69
5.87
7.62
9.07
10.18
10.86
11.00
10.67
10.02
9.24
8.50
7.89
7.42
7.09
6.93
6.96
7.15
7.49
7.89
8.29
8.55
8.58
8.29
7.69
6.89
6.13
5.69
5.74
6.27
7.01
7.57
7.63
7.16
6.34
5.54
5.05
4.86
4.71
4.20
3.03
1.18
-1.09
-3.35
-5.16
-6.25
-6.59
-6.40
-6.12
-6.25
-7.22
-9.20
-12.01
-15.08
-17.61
-18.85
-18.31
-15.96
-12.23
-7.83
-3.49
0.25
3.17
5.27
6.71
7.66
8.20
8.35
8.06
7.29
5.97
4.11
1.81
-0.69
-2.99
-4.66
-5.31
-4.85
-3.41
-1.27
1.25
3.98
6.81
9.61
12.15
14.12
15.25
15.48
15.01
14.17
13.25
12.36
11.45
10.35
9.06
7.75
6.71
6.14
6.07
6.26
6.32
5.83
4.51
2.29
-0.70
-4.12
-7.55
-10.57
-12.86
-14.36
-15.34
-16.30
-17.84
-20.41
-23.97
-28.05
-31.85
-34.54
-35.59
-34.91
-32.85
-29.99
-26.90
-23.99
-21.40
-19.09
-16.88
-14.59
-12.08
-9.37
-6.69
-4.40
-2.85
-2.15
-2.19
-2.58
-2.93
-2.97
-2.63
-2.08
-1.48
-0.90
-0.25
0.65
1.97
3.68
5.54
7.19
8.27
8.63
8.42
7.95
7.58
7.50
7.55
7.38
6.60
5.00
2.72
0.14
-2.22
-3.94
-4.75
-4.63
-3.75
-2.46
-1.23
-0.57
-0.91
-2.45
-4.95
-7.84
-10.28
-11.51
-11.05
-8.89
-5.37
-1.15
3.10
6.87
9.90
12.17
13.78
14.83
15.39
15.46
15.01
14.00
12.47
10.52
8.26
5.87
3.62
1.78
0.61
0.26
0.69
1.65
2.83
3.98
5.03
6.10
7.37
8.90
10.51
11.85
12.54
12.40
11.48
10.06
8.47
6.94
5.55
4.24
2.91
1.50
0.03
-1.47
-2.93
-4.32
-5.62
-6.72
-7.51
-7.88
-7.87
-7.79
-8.11
-9.40
-11.99
-15.79
-20.17
-24.10
-26.56
-26.87
-24.94
-21.23
-16.50
-11.43
-6.45
-1.75
2.60
6.50
9.77
12.21
13.77
14.53
14.71
14.51
14.06
13.35
12.37
11.15
9.79
8.51
7.44
6.68
6.24
6.08
6.15
6.47
7.04
7.83
8.73
9.54
10.09
10.33
10.32
10.18
9.99
9.66
9.04
8.02
6.66
5.25
4.14
3.57
3.50
3.62
3.49
2.81
1.49
-0.27
-2.13
-3.71
-4.73
-5.10
-4.87
-4.27
-3.69
-3.57
-4.34
-6.21
-9.10
-12.59
-15.99
-18.51
-19.54
-18.80
-16.45
-13.00
-9.08
-5.21
-1.63
1.68
4.87
8.07
11.22
14.07
16.29
17.56
17.72
16.85
15.22
13.25
11.35
9.89
9.09
9.00
9.53
10.46
11.59
12.73
13.72
14.44
14.78
14.66
14.11
13.28
12.40
11.65
11.11
10.67
10.06
8.95
7.13
4.60
1.55
-1.70
-4.78
-7.42
-9.51
-11.09
-12.38
-13.63
-15.08
-16.70
-18.31
-19.50
-19.83
-19.09
-17.43
-15.44
-14.04
-14.07
-16.03
-19.75
-24.44
-28.87
-31.90
-32.82
-31.55
-28.61
-24.77
-20.76
-17.00
-13.65
-10.65
-7.92
-5.43
-3.22
-1.39
0.00
0.94
1.45
1.65
1.72
1.81
2.09
2.56
3.15
3.79
4.43
5.13
6.02
7.20
8.64
10.23
11.72
12.85
13.46
13.53
13.17
12.64
12.20
12.06
12.28
12.73
13.12
13.14
12.62
11.63
10.43
9.37
8.64
8.21
7.78
6.93
5.28
2.64
-0.95
-5.26
-9.84
-14.14
-17.50
-19.25
-18.94
-16.46
-12.21
-6.97
-1.67
2.95
6.50
9.03
10.81
12.15
13.24
14.12
14.82
15.39
15.91
16.43
16.86
17.01
16.68
15.72
14.14
12.08
9.78
7.53
5.64
4.36
3.86
4.18
5.21
6.72
8.44
10.06
11.28
11.82
11.40
9.82
7.04
3.25
-1.13
-5.53
-9.41
-12.39
-14.39
-15.55
-16.18
-16.63
-17.23
-18.27
-19.95
-22.32
-25.24
-28.36
-31.20
-33.19
-33.83
-32.74
-29.72
-24.91
-18.77
-12.15
-6.02
-1.21
1.88
3.50
4.34
5.14
6.28
7.70
9.06
10.23
11.40
12.96
15.00
17.04
18.09
17.24
14.30
10.16
6.32
4.23
4.47
6.61
9.63
12.60
15.20
17.61
19.99
21.99
22.79
21.61
18.30
13.66
9.08
5.80
4.36
4.40
5.11
5.79
6.19
6.38
6.43
6.13
5.03
2.71
-0.87
-5.38
-10.37
-15.43
-20.28
-24.51
-27.43
-28.28
-26.59
-22.56
-17.21
-11.94
-7.91
-5.53
-4.49
-4.13
-3.90
-3.64
-3.43
-3.32
-3.10
-2.47
-1.30
0.13
1.24
1.52
0.88
-0.30
-1.39
-1.83
-1.33
0.13
2.49
5.65
9.44
13.41
16.79
18.62
18.28
15.74
11.67
7.20
3.38
0.76
-0.70
-1.39
-1.79
-2.21
-2.82
-3.79
-5.34
-7.77
-11.20
-15.54
-20.41
-25.32
-29.79
-33.46
-36.02
-37.19
-36.74
-34.63
-31.19
-27.08
-23.11
-19.92
-17.63
-15.88
-14.02
-11.42
-7.75
-3.09
2.16
7.43
12.09
15.54
17.23
16.82
14.39
10.52
6.28
2.94
1.54
2.45
5.34
9.26
13.16
16.25
18.21
19.13
19.22
18.62
17.32
15.35
12.92
10.54
8.87
8.37
9.08
10.53
11.97
12.68
12.20
10.41
7.37
3.24
-1.84
-7.59
-13.52
-18.83
-22.61
-24.09
-22.99
-19.62
-14.77
-9.42
-4.37
-0.10
3.29
5.94
8.10
10.02
11.83
13.57
15.13
16.35
17.03
17.04
16.36
15.14
13.59
11.96
10.46
9.26
8.56
8.57
9.45
11.14
13.26
15.16
16.07
15.48
13.35
10.19
6.90
4.36
3.08
2.99
3.57
4.06
3.91
2.91
1.15
-1.07
-3.48
-5.89
-8.16
-10.16
-11.83
-13.15
-14.30
-15.60
-17.40
-19.85
-22.74
-25.49
-27.32
-27.57
-25.89
-22.41
-17.57
-11.98
-6.14
-0.40
5.13
10.41
15.37
19.83
23.44
25.81
26.58
25.65
23.23
19.91
16.49
13.80
12.48
12.74
14.38
16.88
19.60
22.04
23.86
24.95
25.29
24.93
23.85
22.07
19.69
16.89
13.97
11.22
8.84
6.84
5.12
3.49
1.85
0.25
-1.23
-2.48
-3.50
-4.46
-5.55
-6.98
-8.80
-10.91
-13.07
-14.96
-16.35
-17.20
-17.72
-18.35
-19.59
-21.72
-24.65
-27.79
-30.28
-31.27
-30.25
-27.27
-22.88
-17.93
-13.25
-9.41
-6.58
-4.52
-2.82
-1.06
0.98
3.26
5.54
7.52
9.04
10.08
10.77
11.25
11.58
11.75
11.64
11.16
10.32
9.18
7.95
6.81
5.93
5.40
5.15
5.01
4.73
4.12
3.09
1.77
0.35
-0.91
-1.82
-2.33
-2.52
-2.60
-2.79
-3.27
-4.09
-5.13
-6.15
-6.91
-7.22
-7.09
-6.67
-6.26
-6.22
-6.88
-8.43
-10.83
-13.78
-16.70
-18.87
-19.66
-18.71
-16.09
-12.24
-7.79
-3.34
0.71
4.22
7.21
9.80
12.08
14.09
15.76
17.01
17.71
17.81
17.27
16.19
14.71
13.10
11.60
10.43
9.69
9.41
9.49
9.81
10.21
10.59
10.89
11.05
11.04
10.82
10.34
9.64
8.79
7.92
7.10
6.36
5.67
4.95
4.16
3.22
2.08
0.65
-1.14
-3.31
-5.73
-8.15
-10.32
-12.01
-13.24
-14.20
-15.23
-16.64
-18.57
-20.96
-23.48
-25.64
-26.87
-26.66
-24.76
-21.23
-16.51
-11.23
-6.06
-1.53
2.14
4.94
7.06
8.73
10.09
11.12
11.72
11.75
11.21
10.24
9.10
8.07
7.33
6.93
6.75
6.67
6.59
6.55
6.59
6.74
6.95
7.13
7.22
7.15
6.91
6.50
5.97
5.45
5.10
5.06
5.32
5.69
5.87
5.65
5.02
4.18
3.45
3.07
3.05
3.19
3.16
2.73
1.79
0.43
-1.20
-2.86
-4.36
-5.54
-6.35
-6.84
-7.27
-7.96
-9.24
-11.33
-14.22
-17.64
-21.12
-24.03
-25.73
-25.73
-23.82
-20.18
-15.36
-10.06
-4.96
-0.47
3.33
6.58
9.50
12.19
14.60
16.53
17.72
18.01
17.41
16.15
14.58
13.09
11.93
11.22
10.88
10.79
10.85
10.99
11.19
11.35
11.35
11.02
10.27
9.16
7.85
6.53
5.32
4.26
3.28
2.31
1.31
0.31
-0.65
-1.51
-2.22
-2.74
-3.06
-3.18
-3.15
-3.04
-2.96
-3.03
-3.39
-4.14
-5.32
-6.83
-8.49
-10.04
-11.27
-12.06
-12.40
-12.44
-12.45
-12.82
-13.93
-16.15
-19.54
-23.77
-28.10
-31.54
-33.21
-32.68
-30.15
-26.30
-21.96
-17.75
-13.91
-10.43
-7.22
-4.32
-1.87
-0.05
1.03
1.40
1.13
0.30
-1.08
-2.91
-5.00
-6.92
-8.25
-8.65
-8.08
-6.72
-4.91
-2.95
-0.96
1.03
3.09
5.21
7.29
9.11
10.46
11.21
11.34
11.01
10.39
9.63
8.82
7.97
7.03
5.92
4.62
3.16
1.60
0.03
-1.46
-2.79
-3.84
-4.49
-4.67
-4.45
-4.07
-3.92
-4.48
-6.06
-8.64
-11.82
-14.85
-16.89
-17.26
-15.71
-12.46
-8.15
-3.54
0.70
4.23
7.03
9.27
11.18
12.87
14.32
15.41
15.98
15.93
15.28
14.07
12.46
10.64
8.82
7.22
5.99
5.20
4.85
4.89
5.27
5.86
6.53
7.08
7.36
7.26
6.82
6.20
5.61
5.22
5.02
4.92
4.66
3.99
2.80
1.16
-0.64
-2.24
-3.28
-3.65
-3.50
-3.17
-3.07
-3.40
-4.18
-5.11
-5.85
-6.08
-5.70
-4.85
-3.94
-3.53
-4.17
-6.17
-9.43
-13.40
-17.22
-19.98
-20.99
-20.03
-17.34
-13.42
-8.90
-4.31
-0.06
3.60
6.59
8.93
10.71
12.05
13.00
13.49
13.40
12.63
11.24
9.42
7.51
5.78
4.43
3.51
2.95
2.69
2.64
2.81
3.25
3.95
4.89
5.94
6.94
7.73
8.23
8.42
8.43
8.38
8.35
8.28
8.00
7.32
6.15
4.56
2.78
1.08
-0.35
-1.49
-2.44
-3.41
-4.56
-5.93
-7.41
-8.78
-9.77
-10.14
-9.85
-9.06
-8.17
-7.69
-8.07
-9.53
-11.94
-14.85
-17.56
-19.37
-19.70
-18.34
-15.37
-11.25
-6.58
-1.89
2.46
6.32
9.72
12.72
15.29
17.33
18.66
19.19
18.93
17.98
16.55
14.82
12.97
11.11
9.34
7.72
6.31
5.18
4.38
3.96
3.89
4.03
4.16
4.04
3.50
2.61
1.60
0.81
0.53
0.82
1.49
2.16
2.52
2.40
1.90
1.29
0.83
0.62
0.52
0.21
-0.61
-2.12
-4.25
-6.69
-9.06
-10.98
-12.30
-13.07
-13.59
-14.25
-15.47
-17.53
-20.49
-24.14
-28.01
-31.49
-33.97
-35.03
-34.50
-32.51
-29.41
-25.66
-21.72
-17.94
-14.45
-11.27
-8.30
-5.45
-2.78
-0.46
1.22
2.02
1.82
0.76
-0.83
-2.51
-3.86
-4.59
-4.61
-3.96
-2.83
-1.46
-0.04
1.30
2.54
3.77
5.08
6.56
8.23
10.07
12.08
14.31
16.76
19.35
21.76
23.51
24.13
23.40
21.47
18.86
16.25
14.11
12.57
11.30
9.73
7.36
3.96
-0.33
-5.10
-9.85
-14.11
-17.53
-19.81
-20.73
-20.17
-18.21
-15.14
-11.43
-7.58
-3.98
-0.77
2.06
4.62
6.90
8.74
9.91
10.32
10.04
9.35
8.56
7.92
7.49
7.19
6.90
6.54
6.17
5.98
6.17
6.85
7.96
9.28
10.47
11.23
11.32
10.75
9.68
8.41
7.27
6.44
5.90
5.45
4.84
3.80
2.26
0.35
-1.66
-3.47
-4.87
-5.80
-6.41
-6.94
-7.70
-9.01
-11.06
-13.93
-17.46
-21.26
-24.75
-27.27
-28.30
-27.63
-25.36
-21.93
-17.84
-13.53
-9.22
-5.01
-0.92
3.01
6.64
9.76
12.20
13.86
14.80
15.19
15.27
15.31
15.56
16.15
17.12
18.34
19.54
20.46
20.87
20.70
19.99
18.90
17.60
16.25
14.97
13.84
12.92
12.21
11.70
11.32
11.00
10.68
10.33
9.90
9.41
8.85
8.22
7.48
6.53
5.18
3.28
0.79
-2.14
-5.18
-7.94
-10.12
-11.70
-12.99
-14.47
-16.60
-19.60
-23.21
-26.83
-29.59
-30.71
-29.70
-26.56
-21.74
-15.99
-10.11
-4.73
-0.21
3.37
6.10
8.15
9.65
10.66
11.22
11.37
11.21
10.84
10.34
9.73
8.99
8.09
7.10
6.19
5.59
5.49
5.92
6.75
7.71
8.53
9.01
9.05
8.63
7.75
6.46
4.88
3.21
1.66
0.34
-0.82
-2.07
-3.71
-5.92
-8.64
-11.64
-14.53
-16.95
-18.68
-19.69
-20.17
-20.49
-21.08
-22.32
-24.34
-26.92
-29.51
-31.42
-31.98
-30.84
-28.01
-23.81
-18.70
-13.10
-7.38
-1.80
3.45
8.25
12.50
16.12
19.04
21.13
22.27
22.40
21.61
20.14
18.34
16.54
14.97
13.74
12.87
12.40
12.38
12.86
13.76
14.88
15.91
16.54
16.59
16.00
14.91
13.54
12.15
10.92
9.86
8.84
7.61
5.92
3.71
1.15
-1.43
-3.61
-5.09
-5.83
-6.06
-6.22
-6.81
-8.24
-10.70
-14.06
-17.84
-21.34
-23.75
-24.46
-23.24
-20.28
-16.11
-11.34
-6.52
-1.92
2.30
6.10
9.42
12.12
14.06
15.13
15.34
14.85
13.85
12.60
11.37
10.38
9.76
9.59
9.78
10.17
10.57
10.87
11.05
11.25
11.64
12.30
13.12
13.83
14.04
13.52
12.29
10.60
8.89
7.51
6.61
6.12
5.78
5.32
4.52
3.29
1.62
-0.40
-2.61
-4.76
-6.61
-7.95
-8.71
-9.08
-9.43
-10.29
-12.14
-15.20
-19.34
-23.98
-28.25
-31.26
-32.36
-31.27
-28.22
-23.71
-18.40
-12.83
-7.36
-2.17
2.63
6.90
10.51
13.29
15.16
16.16
16.47
16.26
15.74
15.04
14.29
13.64
13.24
13.20
13.54
14.14
14.86
15.56
16.17
16.64
16.93
16.96
16.67
16.05
15.17
14.13
12.99
11.67
10.05
8.05
5.73
3.30
1.03
-0.94
-2.65
-4.28
-6.06
-8.14
-10.60
-13.39
-16.37
-19.32
-21.89
-23.77
-24.79
-25.13
-25.26
-25.82
-27.28
-29.66
-32.37
-34.46
-34.96
-33.26
-29.35
-23.79
-17.51
-11.42
-6.19
-2.01
1.29
4.07
6.65
9.13
11.32
12.89
13.55
13.16
11.80
9.74
7.31
4.88
2.76
1.21
0.34
0.17
0.55
1.23
1.89
2.21
1.85
0.56
-1.75
-5.00
-8.87
-12.89
-16.57
-19.54
-21.64
-22.94
-23.65
-23.99
-24.13
-24.14
-23.99
-23.50
-22.32
-19.96
-16.00
-10.23
-2.89
5.33
13.33
19.97
24.29
25.82
24.59
21.14
16.28
10.97
6.08
2.34
0.22
-0.04
1.51
4.59
8.76
13.46
18.14
22.33
25.68
28.03
29.39
29.89
29.69
28.91
27.59
25.74
23.42
20.82
18.26
16.12
14.72
14.18
14.44
15.20
16.09
16.66
16.57
15.62
13.86
11.62
9.35
7.54
6.47
6.17
6.37
6.69
6.77
6.43
5.72
4.69
3.37
1.64
-0.70
-3.76
-7.40
-11.18
-14.42
-16.44
-16.82
-15.62
-13.38
-10.97
-9.27
-8.95
-10.20
-12.70
-15.75
-18.51
-20.20
-20.34
-18.83
-15.94
-12.19
-8.18
-4.41
-1.18
1.37
3.29
4.64
5.44
5.64
5.17
4.08
2.60
1.18
0.34
0.55
2.07
4.85
8.71
13.33
18.39
23.55
28.35
32.30
34.90
35.90
35.43
34.02
32.30
30.74
29.40
27.88
25.59
22.05
17.12
11.04
4.32
-2.41
-8.61
-13.81
-17.72
-20.19
-21.26
-21.16
-20.24
-18.91
-17.53
-16.43
-15.84
-15.94
-16.86
-18.57
-20.88
-23.41
-25.67
-27.13
-27.41
-26.30
-23.87
-20.42
-16.43
-12.52
-9.23
-6.98
-5.93
-5.96
-6.69
-7.57
-8.09
-7.86
-6.77
-4.93
-2.72
-0.54
1.29
2.66
3.73
4.85
6.47
8.89
12.12
15.86
19.56
22.62
24.62
25.42
25.28
24.63
23.92
23.45
23.24
23.12
22.78
21.97
20.60
18.74
16.62
14.51
12.57
10.83
9.17
7.46
5.65
3.87
2.32
1.18
0.50
0.17
-0.02
-0.30
-0.84
-1.73
-3.09
-5.05
-7.75
-11.21
-15.25
-19.49
-23.37
-26.34
-28.00
-28.17
-26.91
-24.49
-21.24
-17.47
-13.40
-9.13
-4.74
-0.43
3.50
6.62
8.50
8.89
7.77
5.33
1.88
-2.31
-6.99
-11.90
-16.72
-20.98
-24.20
-26.01
-26.34
-25.49
-23.96
-22.28
-20.76
-19.47
-18.25
-16.92
-15.54
-14.42
-14.05
-14.85
-16.94
-20.02
-23.49
-26.64
-29.02
-30.52
-31.41
-32.15
-33.16
-34.63
-36.50
-38.50
-40.27
-41.51
-41.96
-41.43
-39.78
-36.91
-32.89
-27.91
-22.32
-16.55
-11.05
-6.19
-2.13
1.18
4.03
6.75
9.65
12.79
15.99
18.84
20.96
22.15
22.55
22.64
23.00
24.19
26.46
29.73
33.66
37.71
41.23
43.58
44.21
42.80
39.42
34.55
28.98
23.60
19.18
16.11
14.39
13.68
13.45
13.18
12.50
11.31
9.85
8.59
8.05
8.60
10.18
12.28
14.00
14.37
12.66
8.64
2.67
-4.36
-11.25
-16.84
-20.23
-21.01
-19.32
-15.75
-11.14
-6.31
-1.87
1.86
4.86
7.24
9.09
10.43
11.16
11.16
10.43
9.13
7.62
6.29
5.40
4.94
4.74
4.61
4.50
4.62
5.31
6.78
8.95
11.35
13.34
14.40
14.31
13.26
11.77
10.41
9.57
9.34
9.41
9.21
8.20
6.07
2.96
-0.57
-3.78
-6.03
-7.03
-6.86
-5.93
-4.83
-4.22
-4.72
-6.74
-10.37
-15.18
-20.19
-24.21
-26.20
-25.63
-22.69
-18.16
-13.02
-8.15
-4.07
-0.90
1.51
3.42
5.14
6.80
8.41
9.82
10.82
11.23
11.01
10.27
9.13
7.71
6.08
4.36
2.78
1.70
1.48
2.30
3.95
5.94
7.68
8.74
9.01
8.70
8.19
7.79
7.57
7.34
6.77
5.53
3.47
0.69
-2.55
-5.85
-8.82
-11.13
-12.57
-13.22
-13.40
-13.69
-14.73
-16.96
-20.48
-24.89
-29.41
-33.08
-35.07
-34.99
-32.95
-29.51
-25.47
-21.55
-18.15
-15.23
-12.44
-9.33
-5.71
-1.71
2.20
5.53
7.95
9.45
10.26
10.69
10.95
11.10
11.15
11.12
11.16
11.46
12.15
13.14
14.15
14.80
14.84
14.31
13.46
