1681906637.00
64.000000
-0.00
-0.00
-0.00
-0.00
-0.00
-0.00
-0.00
-0.00
-0.00
-0.00
0.00
0.01
0.01
-0.00
-0.03
-0.05
-0.05
0.00
0.13
0.36
0.66
1.01
1.37
1.72
2.06
2.40
2.79
3.24
3.80
4.42
5.06
5.66
6.20
6.68
7.15
7.68
8.31
9.14
10.09
11.04
11.88
12.56
13.14
13.76
14.65
15.96
17.91
20.32
22.90
25.38
27.58
29.57
31.68
34.32
37.81
42.54
48.15
54.10
59.83
64.97
69.58
74.14
79.34
85.71
93.76
103.00
112.62
121.73
129.77
136.75
143.30
150.75
157.77
166.64
177.95
191.79
206.97
220.57
228.25
225.36
208.53
176.87
132.76
80.05
23.07
-34.94
-92.43
-149.15
-205.23
-260.38
-313.76
-363.88
-409.81
-450.83
-486.39
-515.65
-537.26
-549.47
-550.51
-539.24
-515.33
-479.91
-435.05
-383.43
-327.76
-270.41
-213.19
-157.39
-103.97
-53.69
-7.40
34.08
70.05
100.10
124.19
142.73
156.42
166.14
172.75
176.89
178.90
178.84
176.61
172.17
165.66
157.57
148.66
139.81
131.70
124.59
118.16
111.64
104.16
95.14
84.68
73.60
63.19
54.68
48.62
44.56
41.19
36.82
30.24
21.26
10.91
0.95
-6.77
-11.16
-12.35
-11.58
-10.81
-12.32
-18.02
-28.78
-43.31
-57.58
-65.33
-59.85
-36.73
3.88
56.08
109.14
150.58
170.20
163.49
133.08
87.78
39.46
-0.74
-25.42
-32.52
-24.71
-7.40
13.60
33.57
49.75
60.97
66.93
68.28
66.32
63.42
62.50
66.00
74.13
84.15
90.63
86.89
69.91
41.14
6.42
-26.69
-51.82
-66.52
-72.13
-72.10
-69.19
-63.89
-55.16
-42.22
-26.67
-12.41
-4.22
-4.88
-13.16
-23.96
-30.29
-27.10
-13.46
6.82
27.51
42.67
49.14
47.01
38.45
26.08
11.19
-4.84
-20.96
-35.39
-46.19
-52.06
-53.14
-51.36
-49.26
-48.86
-50.36
-52.69
-53.34
-50.08
-41.96
-29.08
-12.88
5.06
23.12
39.93
54.10
64.83
71.73
74.88
75.10
73.45
70.87
67.45
62.34
53.95
40.83
22.46
-0.39
-25.16
-48.38
-66.38
-76.57
-78.21
-72.51
-62.01
-49.06
-36.48
-25.66
-16.81
-9.54
-3.55
1.22
4.56
5.86
4.60
0.34
-7.09
-17.44
-30.16
-44.19
-57.78
-68.50
-73.68
-70.46
-58.45
-38.75
-13.96
12.44
37.02
57.03
70.82
78.08
79.55
76.63
71.52
66.36
62.95
62.79
66.79
74.89
85.39
94.46
96.41
85.88
60.06
20.48
-26.60
-72.59
-109.83
-134.37
-146.83
-151.01
-151.02
-149.18
-145.87
-139.45
-128.77
-114.32
-97.95
-81.82
-67.18
-53.90
-40.45
-25.93
-10.11
5.94
20.25
30.63
35.67
35.38
31.26
25.73
21.11
18.86
18.93
19.91
19.83
17.11
11.34
3.46
-4.61
-11.03
-14.65
-15.63
-15.25
-15.22
-16.93
-21.17
-28.17
-37.64
-48.60
-58.71
-64.29
-61.12
-46.19
-19.53
14.98
50.68
80.61
100.17
108.59
108.39
103.47
97.05
90.67
84.57
78.66
73.37
69.53
67.79
67.91
68.76
68.87
67.15
63.43
58.61
54.18
51.79
52.55
56.36
61.57
65.13
63.53
54.30
37.36
15.49
-6.56
-23.75
-33.00
-34.21
-30.01
-24.01
-19.22
-16.84
-16.45
-16.94
-17.66
-18.78
-20.79
-23.95
-27.45
-29.88
-29.67
-26.32
-20.71
-14.81
-10.82
-9.78
-11.48
-14.26
-16.35
-16.62
-15.34
-13.73
-13.17
-14.41
-17.01
-19.84
-21.73
-21.95
-20.57
-18.23
-15.81
-13.79
-12.39
-11.37
-10.52
-9.51
-8.30
-7.09
-6.22
-6.12
-6.89
-8.40
-9.91
-10.68
-10.07
-8.08
-5.32
-2.77
-1.42
-1.51
-2.73
-4.10
-4.83
-4.58
-3.69
-3.02
-3.13
-4.20
-5.62
-6.70
-6.93
-6.36
-5.53
-4.92
-4.81
-4.88
-4.81
-4.34
-3.78
-3.66
-4.51
-6.35
-8.54
-10.32
-10.89
-10.10
-8.27
-6.13
-4.35
-3.35
-3.34
-4.04
-5.05
-5.83
-5.96
-5.15
-3.41
-1.13
1.01
2.21
2.00
0.44
-1.72
-3.30
-3.27
-1.07
2.84
7.39
11.14
13.12
13.08
11.55
9.58
8.01
7.44
7.72
8.58
9.53
10.29
10.69
10.51
9.67
8.03
5.99
4.30
3.96
5.57
8.93
13.01
16.20
17.25
15.63
11.88
7.09
2.48
-1.12
-3.49
-4.65
-4.96
-4.52
-3.53
-2.07
-0.42
1.11
2.27
2.72
2.36
0.98
-1.06
-3.36
-5.28
-6.35
-6.53
-6.12
-5.79
-5.91
-6.57
-7.37
-7.82
-7.59
-6.66
-5.45
-4.31
-3.56
-3.20
-3.10
-3.10
-3.23
-3.57
-3.98
-4.25
-3.95
-2.86
-1.03
1.02
2.58
3.19
2.68
1.50
0.19
-0.57
-0.50
0.42
1.96
3.64
5.06
5.77
5.65
4.77
3.64
2.83
2.72
3.27
3.97
4.20
3.48
1.94
0.08
-1.35
-1.90
-1.76
-1.37
-1.39
-2.01
-3.16
-4.32
-5.02
-5.07
-4.67
-4.33
-4.38
-4.97
-5.81
-6.64
-7.32
-7.72
-7.96
-8.21
-8.80
-9.77
-11.15
-12.87
-14.86
-16.93
-18.19
-17.77
-15.27
-11.32
-6.99
-3.47
-1.37
-0.60
-0.69
-0.29
1.31
3.80
5.99
7.07
7.17
7.22
8.31
10.83
15.54
22.66
31.95
42.73
54.35
66.14
77.14
86.15
86.42
74.48
53.01
29.91
12.64
3.98
2.31
4.02
5.83
5.92
5.02
4.61
5.37
6.81
7.63
6.87
4.17
-0.05
-5.02
-9.18
-10.88
-10.75
-10.07
-10.34
-12.26
-15.69
-19.78
-23.57
-25.85
-26.05
-24.63
-22.55
-20.85
-20.03
-20.02
-20.37
-20.68
-20.48
-19.54
-18.09
-16.46
-14.99
-13.84
-13.06
-12.62
-12.46
-12.44
-12.37
-12.21
-11.91
-11.50
-10.99
-10.35
-9.56
-8.53
-7.31
-5.97
-4.71
-3.64
-2.82
-2.14
-1.46
-0.74
0.02
0.65
1.02
1.06
0.91
0.72
0.58
0.51
0.30
-0.17
-0.98
-2.01
-3.08
-4.00
-4.71
-5.33
-5.94
-6.65
-7.33
-7.83
-7.95
-7.53
-6.52
-4.94
-2.92
-0.63
1.69
3.81
5.55
6.82
7.63
8.06
8.25
8.29
8.34
8.45
8.71
9.14
9.66
10.15
10.39
10.23
9.58
8.60
7.52
6.58
5.88
5.27
4.54
3.43
1.92
0.21
-1.34
-2.40
-2.97
-3.25
-3.70
-4.61
-6.05
-7.73
-9.20
-10.11
-10.34
-10.15
-9.89
-9.88
-10.12
-10.39
-10.37
-9.82
-8.82
-7.58
-6.41
-5.38
-4.45
-3.43
-2.24
-0.98
0.15
0.86
1.06
0.80
0.27
-0.34
-0.89
-1.42
-2.10
-3.08
-4.60
-6.67
-9.27
-12.12
-14.98
-17.62
-19.91
-21.92
-23.85
-25.93
-28.24
-30.77
-33.32
-35.57
-37.19
-37.79
-37.08
-34.81
-31.01
-25.96
-20.25
-14.69
-9.97
-6.46
-3.96
-1.93
0.40
3.54
7.57
12.19
16.82
20.98
24.37
27.03
29.06
30.67
31.95
32.93
33.56
33.80
33.61
32.93
31.84
30.43
28.80
27.12
25.44
23.80
22.13
20.47
18.84
17.36
16.15
15.19
14.41
13.64
12.80
11.85
10.92
10.09
9.37
8.69
7.92
7.00
5.98
5.04
4.28
3.72
3.25
2.67
1.91
1.00
0.17
-0.39
-0.57
-0.40
-0.06
0.34
0.71
1.10
1.51
1.94
2.28
2.46
2.52
2.63
3.08
3.90
4.99
5.91
6.29
5.94
5.07
4.18
3.61
3.58
3.81
3.97
3.75
3.20
2.56
2.16
2.16
2.44
2.77
2.87
2.72
2.43
2.21
2.30
2.75
3.56
4.56
5.62
6.54
7.20
7.57
7.74
7.93
8.31
9.05
10.07
11.22
12.27
13.07
13.70
14.22
14.82
15.50
16.24
16.87
17.34
17.64
17.76
17.67
17.10
15.74
13.18
9.27
4.12
-1.91
-8.29
-14.59
-20.53
-26.06
-31.16
-35.79
-39.84
-43.12
-45.56
-47.18
-48.14
-48.44
-47.97
-46.37
-43.29
-38.63
-32.64
-25.97
-19.35
-13.33
-8.11
-3.67
0.12
3.32
5.83
7.61
8.71
9.44
10.07
10.78
11.49
11.98
12.05
11.67
11.11
10.61
10.39
10.36
10.25
9.79
8.89
7.74
6.62
5.81
5.36
5.19
5.16
5.16
5.24
5.34
5.43
5.26
4.73
3.89
2.99
2.45
2.49
3.07
3.76
4.11
3.75
2.75
1.45
0.24
-0.60
-1.09
-1.36
-1.55
-1.58
-1.29
-0.60
0.38
1.18
1.39
0.65
-0.80
-2.41
-3.46
-3.49
-2.53
-1.02
0.39
1.30
1.51
1.17
0.57
0.01
-0.34
-0.51
-0.57
-0.63
-0.64
-0.69
-0.82
-1.04
-1.36
-1.70
-2.12
-2.65
-3.22
-3.53
-3.53
-3.25
-2.62
-1.75
-0.70
0.20
0.73
0.99
1.38
1.90
2.38
2.99
3.98
5.75
8.03
10.29
12.43
14.72
17.05
19.18
21.55
24.64
29.09
34.00
37.57
38.44
35.63
28.13
15.87
1.56
-9.92
-12.39
-2.66
15.72
35.51
54.31
69.56
75.33
69.13
51.44
25.41
-7.14
-45.10
-86.43
-125.99
-154.67
-166.79
-163.14
-153.55
-138.57
-117.89
-92.55
-61.38
-25.63
12.32
49.60
81.03
100.93
108.79
107.86
102.01
93.68
83.47
71.73
59.11
47.71
40.59
41.20
50.07
64.59
79.88
89.18
85.79
65.51
30.18
-11.10
-44.27
-57.27
-45.13
-11.80
31.49
71.05
95.64
100.05
85.68
58.62
25.86
-6.85
-35.45
-57.49
-71.76
-78.34
-78.36
-73.25
-64.61
-54.37
-44.91
-38.35
-35.91
-37.27
-40.56
-43.16
-42.84
-38.75
-31.78
-24.13
-18.06
-14.99
-14.89
-16.51
-18.06
-18.05
-15.82
-11.85
-7.32
-3.52
-1.28
-0.72
-1.27
-2.03
-2.51
-2.03
-0.68
1.05
2.57
3.44
3.55
3.07
2.35
1.75
1.53
1.68
2.05
2.43
2.63
2.58
2.29
1.85
1.37
0.96
0.59
0.20
-0.28
-0.93
-1.70
-2.58
-3.46
-4.30
-5.06
-5.82
-6.75
-8.00
-9.64
-11.62
-13.77
-15.91
-17.86
-19.60
-21.29
-23.27
-25.87
-29.24
-33.23
-37.53
-41.69
-45.41
-48.66
-51.78
-55.35
-59.94
-65.77
-72.47
-79.34
-85.43
-89.89
-92.43
-93.04
-92.12
-90.04
-87.43
-83.86
-79.14
-73.29
-66.31
-57.75
-46.71
-32.42
-14.97
4.05
21.95
35.82
44.20
47.89
49.71
52.96
59.93
70.58
83.05
94.94
104.54
111.39
115.92
118.58
119.38
117.72
113.04
105.41
95.45
84.49
73.94
64.91
57.98
52.95
49.16
45.89
42.53
38.81
34.75
30.47
25.98
21.08
15.48
8.89
1.17
-7.46
-16.51
-25.11
-32.29
-37.05
-38.60
-36.50
-30.86
-22.34
-12.11
-1.66
7.67
14.80
19.35
21.35
21.20
19.20
15.29
9.09
0.12
-11.49
-24.72
-37.46
-47.22
-51.68
-49.72
-42.15
-31.54
-21.46
-15.10
-13.99
-17.42
-23.08
-27.94
-29.61
-27.66
-23.62
-20.58
-21.66
-29.08
-43.11
-61.78
-79.92
-89.95
-84.09
-57.78
-13.06
40.68
88.99
117.65
117.59
88.97
40.85
-13.34
-60.64
-92.54
-105.77
-100.70
-76.39
-35.13
17.70
73.71
122.80
155.97
167.70
157.22
127.94
85.60
36.53
-12.04
-51.77
-74.19
-73.15
-48.31
-7.36
34.96
61.55
59.80
27.36
-26.60
-85.64
-132.84
-157.30
-157.21
-138.09
-108.76
-76.55
-44.45
-11.57
24.16
62.72
100.09
128.60
139.62
127.20
91.26
38.48
-19.60
-70.31
-104.24
-117.80
-112.95
-94.41
-66.41
-30.92
11.84
60.96
112.81
160.16
194.47
208.98
201.69
176.43
141.07
104.33
72.26
46.55
24.26
0.27
-29.54
-65.71
-103.28
-133.54
-146.72
-136.30
-102.04
-50.92
5.56
55.91
92.17
113.36
122.62
124.68
123.04
118.63
110.64
98.15
81.15
59.34
33.06
0.31
-41.01
-90.78
-144.77
-195.24
-233.93
-255.79
-262.31
-257.80
-249.43
-242.16
-236.11
-227.02
-208.85
-177.03
-125.79
-66.48
-6.60
42.54
70.63
72.45
49.82
11.67
-29.11
-60.45
-75.96
-73.95
-59.41
-39.07
-17.07
6.35
33.98
68.77
109.65
149.74
184.02
207.00
212.87
200.84
174.55
140.35
104.38
70.41
39.07
10.58
-15.34
-37.20
-51.38
-54.46
-45.28
-26.61
-4.26
15.34
28.63
35.32
38.01
40.65
45.69
53.11
60.71
65.44
65.19
59.94
51.33
41.95
34.58
30.71
29.90
30.02
28.33
23.01
13.83
2.10
-10.31
-21.72
-31.75
-41.60
-52.82
-68.11
-88.98
-115.66
-146.91
-180.04
-210.79
-233.55
-243.03
-236.20
-213.70
-180.57
-144.80
-114.35
-94.05
-84.21
-80.60
-78.25
-74.26
-68.36
-62.45
-58.32
-55.80
-52.56
-45.15
-29.07
-1.65
32.29
67.57
98.85
122.19
135.86
140.87
140.45
141.52
149.39
165.65
188.32
213.10
236.16
255.72
272.52
288.47
308.05
332.43
358.45
380.45
393.15
394.19
384.29
366.07
323.27
250.43
153.60
47.75
-52.34
-137.98
-205.87
-255.43
-286.75
-300.64
-296.23
-276.54
-246.86
-213.94
-183.16
-156.56
-133.23
-110.24
-84.39
-51.29
-8.86
42.39
96.24
145.55
182.85
200.85
194.98
165.60
120.51
71.29
29.14
0.47
-16.36
-26.06
-35.91
-51.23
-71.99
-93.09
-109.15
-118.22
-122.48
-125.54
-129.60
-134.70
-138.84
-139.48
-135.36
-127.35
-118.26
-111.24
-108.33
-109.52
-113.26
-116.99
-118.15
-115.55
-109.61
-101.88
-94.20
-87.69
-82.23
-76.74
-70.17
-60.70
-47.76
-32.23
-15.90
-0.91
11.19
19.91
25.95
30.70
35.76
41.93
48.97
56.00
61.76
65.42
66.74
66.73
66.64
68.08
71.96
78.73
88.61
100.74
113.51
124.10
129.64
127.74
118.35
103.89
86.71
71.11
59.88
53.05
47.37
38.67
24.06
3.91
-18.05
-36.91
-48.34
-51.31
-47.56
-40.67
-33.74
-28.39
-24.68
-21.72
-19.23
-16.83
-15.17
-14.51
-14.81
-15.48
-15.68
-15.23
-14.23
-13.65
-13.81
-14.94
-16.39
-17.18
-16.58
-14.41
-11.90
-10.55
-12.14
-16.72
-22.95
-28.13
-29.50
-26.20
-19.43
-12.63
-8.86
-9.73
-13.93
-18.06
-18.86
-14.77
-7.46
-0.23
3.15
1.44
-3.80
-9.21
-11.41
-9.50
-4.71
-0.07
2.29
1.95
0.60
0.68
3.66
9.77
17.59
25.92
34.20
43.16
53.72
66.50
81.09
95.91
110.03
120.80
126.63
126.82
121.68
111.06
93.51
68.92
35.89
-3.96
-45.88
-82.68
-108.13
-118.78
-115.98
-104.21
-91.01
-83.91
-86.05
-95.71
-107.80
-117.42
-122.63
-124.39
-124.81
-124.82
-123.55
-118.13
-106.22
-88.00
-63.99
-36.28
-7.10
21.48
48.02
70.99
89.08
100.97
106.02
105.16
100.35
94.31
88.85
83.68
77.54
69.06
58.02
45.83
35.47
29.13
27.37
28.18
28.27
25.13
18.45
10.63
5.06
4.93
10.62
20.10
29.47
34.77
33.86
26.62
15.04
1.94
-9.50
-16.79
-17.82
-11.33
2.63
22.45
44.10
61.87
69.18
61.03
35.89
-3.39
-49.78
-94.44
-128.94
-148.31
-151.65
-142.22
-125.42
-106.95
-91.71
-81.93
-79.28
-83.96
-95.37
-111.68
-130.43
-148.43
-162.64
-171.39
-174.63
-173.90
-171.03
-167.36
-162.48
-154.97
-143.53
-126.08
-102.15
-72.93
-41.04
-9.15
20.93
49.20
76.90
106.87
142.46
186.08
238.25
296.81
357.24
410.60
449.11
463.60
450.67
413.55
360.33
300.92
243.43
192.22
148.28
111.36
81.15
58.00
41.91
31.20
22.64
12.70
-0.93
-18.26
-37.40
-54.84
-68.79
-79.02
-87.35
-96.98
-110.97
-131.33
-157.57
-186.37
-212.18
-228.51
-229.85
-214.02
-183.77
-146.30
-111.17
-86.46
-76.00
-77.28
-83.92
-87.85
-82.54
-65.59
-38.41
-5.05
30.08
62.99
90.26
108.83
116.06
111.15
95.32
72.65
48.09
25.96
8.12
-6.28
-18.99
-31.38
-42.87
-52.05
-57.34
-58.47
-56.09
-50.88
-42.72
-30.53
-13.96
5.83
24.87
38.33
42.61
37.40
26.26
14.42
6.79
5.18
8.65
14.40
19.61
22.72
23.04
20.81
16.07
9.91
3.77
-0.12
0.01
4.11
10.11
14.23
13.55
6.80
-4.21
-16.31
-26.29
-32.43
-34.90
-34.33
-31.46
-25.68
-16.52
-4.28
8.97
20.01
25.96
25.41
19.86
12.14
5.57
2.12
2.00
4.05
6.45
8.16
8.53
8.05
7.34
7.26
8.31
10.45
13.03
14.28
12.67
6.89
-2.71
-14.56
-26.05
-34.64
-39.20
-39.58
-37.10
-33.03
-28.76
-25.09
-22.49
-21.10
-20.18
-18.79
-15.28
-8.77
0.66
10.96
19.02
21.96
18.19
8.82
-3.39
-14.71
-22.55
-25.93
-25.63
-23.35
-20.34
-17.43
-14.40
-11.25
-8.03
-5.34
-3.91
-3.94
-5.31
-6.92
-7.90
-7.25
-4.74
-0.31
5.95
13.91
23.72
34.73
46.10
55.86
62.17
63.39
59.20
50.88
40.46
30.62
22.90
18.02
15.19
13.21
10.97
8.00
4.95
2.50
1.62
2.12
3.27
3.65
2.24
-0.87
-4.77
-7.63
-8.68
-7.74
-6.04
-4.74
-4.45
-4.85
-4.83
-3.74
-1.21
1.77
4.38
5.99
6.70
7.01
6.97
6.48
4.92
2.06
-2.75
-10.05
-20.89
-36.49
-57.13
-81.82
-107.54
-130.68
-145.65
-149.52
-142.94
-130.12
-116.73
-106.45
-100.15
-95.67
-90.30
-81.66
-69.96
-54.44
-33.72
-6.89
26.05
62.28
96.72
122.95
135.90
133.88
118.08
93.74
67.41
44.62
28.09
18.09
13.59
13.70
18.02
26.23
37.72
51.03
64.20
75.23
82.80
86.41
86.41
84.03
80.81
78.27
77.03
76.48
75.06
71.44
65.57
58.69
53.09
50.66
51.18
53.45
55.57
56.11
54.55
51.46
47.26
42.33
36.33
28.85
20.53
10.89
-0.59
-14.82
-32.22
-52.93
-75.91
-98.88
-118.74
-132.50
-137.57
-133.70
-123.31
-109.86
-96.53
-84.85
-74.70
-65.31
-55.82
-46.16
-35.86
-23.82
-8.23
11.83
34.68
55.68
68.48
68.63
55.40
32.95
8.04
-13.07
-27.12
-34.56
-37.40
-37.86
-36.30
-32.41
-26.13
-18.72
-12.32
-8.35
-6.96
-6.02
-3.36
2.48
10.79
19.41
25.94
28.75
28.18
25.17
21.19
16.95
12.68
8.21
3.43
-1.24
-5.74
-9.56
-12.68
-14.69
-15.33
-14.26
-11.11
-6.20
0.25
7.35
14.63
21.21
26.40
29.30
28.78
24.51
16.62
6.66
-3.59
-11.99
-17.51
-19.96
-19.75
-17.84
-14.49
-10.21
-5.12
-0.08
4.06
6.60
7.37
7.22
6.80
6.60
5.82
3.63
-0.42
-5.67
-10.28
-12.67
-12.08
-9.59
-6.61
-4.63
-3.74
-2.80
-0.74
3.02
7.48
11.51
13.88
14.71
14.76
14.86
15.31
15.53
15.17
14.07
13.41
14.24
17.06
20.90
23.63
23.27
18.80
11.65
4.16
-1.15
-3.28
-3.21
-3.06
-5.00
-9.41
-15.44
-20.80
-23.58
-22.87
-19.09
-13.85
-8.73
-5.14
-2.91
-1.01
2.43
8.74
17.97
28.58
37.61
42.39
41.40
35.33
26.14
16.25
7.19
-0.55
-6.50
-10.37
-11.45
-9.86
-6.91
-5.37
-8.50
-18.23
-34.16
-52.87
-70.00
-82.10
-88.04
-88.75
-86.23
-82.23
-77.13
-70.80
-63.03
-53.16
-42.22
-32.31
-25.20
-20.75
-16.97
-10.27
1.58
20.10
44.43
71.35
96.41
114.72
122.63
117.38
99.69
73.28
43.55
14.90
-11.04
-34.53
-56.08
-74.66
-87.74
-92.47
-88.10
-76.91
-62.64
-50.42
-43.30
-40.82
-38.85
-31.58
-15.18
9.98
39.18
64.92
79.22
77.86
61.60
36.48
11.17
-6.51
-12.34
-7.01
5.40
19.34
31.09
39.49
45.43
50.14
53.72
55.21
53.10
47.16
38.60
30.35
25.50
25.93
31.35
39.13
46.44
50.69
51.24
48.73
44.67
40.35
36.35
32.84
29.16
25.08
20.10
14.16
7.34
0.31
-5.87
-10.33
-12.28
-12.11
-10.45
-8.15
-5.41
-1.91
2.67
8.32
13.70
17.50
18.51
16.96
13.93
10.55
7.05
1.93
-6.40
-18.67
-32.90
-45.30
-51.35
-48.28
-36.56
-19.18
-0.98
14.05
23.12
25.78
22.88
16.23
8.12
0.13
-6.64
-12.55
-18.50
-25.63
-33.71
-40.81
-44.20
-41.23
-31.81
-18.26
-5.15
3.37
5.06
0.50
-7.09
-14.21
-17.99
-17.66
-13.69
-7.66
-0.91
5.87
12.01
17.31
21.09
22.99
22.43
19.43
14.14
6.71
-2.19
-11.99
-21.33
-28.96
-33.54
-34.76
-33.28
-30.57
-28.59
-28.70
-31.84
-37.97
-46.80
-57.35
-68.30
-77.92
-84.16
-85.78
-82.20
-74.36
-63.57
-51.10
-37.21
-21.03
-1.71
21.04
45.41
68.48
86.29
95.81
95.75
86.72
71.31
52.55
33.90
17.78
5.78
-1.89
-5.85
-7.21
-7.10
-5.91
-3.84
-0.80
2.60
5.54
7.08
6.95
6.37
6.94
10.29
16.05
22.34
25.93
24.30
17.26
6.74
-3.53
-10.83
-14.05
-14.56
-14.52
-15.41
-17.19
-18.10
-16.75
-12.40
-6.38
-0.42
4.01
6.74
8.78
11.07
14.35
18.20
22.43
26.88
31.91
37.57
42.66
45.12
42.32
33.30
18.79
1.85
-14.20
-27.11
-36.33
-43.00
-47.94
-51.43
-52.18
-48.98
-41.36
-30.32
-18.28
-7.46
0.47
5.59
8.71
11.21
14.12
18.04
23.61
31.07
40.83
52.03
63.02
70.84
72.21
64.55
46.71
19.87
-13.08
-47.33
-77.97
-100.27
-111.00
-109.10
-95.77
-74.49
-49.50
-25.39
-5.18
9.52
18.80
23.75
25.71
26.23
26.62
28.46
32.87
40.50
50.40
59.88
65.29
62.76
50.63
29.70
3.93
-21.63
-42.31
-55.36
-60.72
-59.94
-55.65
-49.79
-44.03
-39.05
-34.97
-31.62
-28.37
-24.77
-20.32
-15.43
-10.28
-5.15
0.07
5.82
12.02
18.06
22.46
24.39
23.46
20.65
17.48
14.90
13.06
10.82
7.17
1.15
-6.95
-16.29
-25.60
-33.45
-38.63
-39.89
-36.94
-30.37
-22.47
-16.44
-15.44
-21.26
-33.28
-48.92
-64.02
-75.10
-79.77
-77.46
-68.91
-55.33
-38.14
-18.62
1.00
18.28
30.32
35.33
33.36
26.69
19.20
14.38
14.84
20.88
31.54
45.07
59.67
73.71
85.14
92.09
92.71
86.57
74.60
59.43
44.27
31.59
22.74
17.25
13.99
11.23
7.92
3.54
-1.59
-6.37
-9.57
-9.58
-5.73
1.89
11.61
20.99
27.16
27.82
22.36
11.47
-2.14
-15.54
-25.72
-31.12
-31.76
-28.76
-24.12
-19.00
-14.12
-8.80
-2.81
3.76
9.89
13.65
13.45
8.29
-0.94
-12.61
-23.98
-32.76
-37.55
-37.95
-35.01
-30.04
-24.95
-20.58
-17.55
-15.38
-13.24
-10.52
-6.81
-2.76
0.92
2.95
3.14
2.01
0.98
1.75
5.09
10.69
16.72
21.41
23.10
21.68
18.26
14.52
12.22
12.13
14.49
18.27
22.31
25.15
25.82
24.32
21.46
19.10
18.75
21.44
26.70
32.95
37.63
37.64
30.07
12.75
-14.12
-47.94
-83.04
-112.49
-130.11
-132.08
-118.39
-91.89
-57.67
-20.71
14.02
42.51
61.62
69.17
65.15
51.74
33.74
16.53
5.02
1.43
4.76
11.75
17.95
20.21
17.28
10.67
3.31
-1.43
-1.27
4.31
14.15
25.40
34.69
38.07
32.59
17.02
-7.00
-34.40
-57.96
-69.69
-64.53
-41.71
-6.17
33.24
66.53
85.74
87.85
74.56
51.82
26.45
4.54
-10.69
-18.70
-20.61
-18.47
-13.52
-6.98
0.58
7.71
12.67
13.68
9.79
2.14
-6.82
-13.46
-15.47
-12.14
-5.13
2.72
8.93
12.16
13.04
12.52
11.78
10.72
8.68
4.90
-0.85
-7.61
-14.32
-19.54
-22.88
-24.16
-23.74
-22.05
-19.40
-16.60
-14.24
-13.31
-13.84
-15.42
-16.86
-17.06
-15.84
-13.76
-12.24
-11.96
-13.32
-15.40
-17.15
-17.73
-16.78
-14.51
-10.87
-6.09
-0.02
6.85
13.75
19.66
23.62
25.51
25.42
24.11
21.83
18.96
15.54
11.70
7.83
3.97
0.26
-4.17
-10.17
-18.80
-30.31
-43.89
-57.89
-70.13
-79.26
-84.52
-86.78
-87.49
-88.34
-90.55
-94.47
-99.72
-104.94
-108.35
-107.88
-102.09
-90.61
-75.04
-58.77
-46.02
-40.97
-46.43
-63.56
-91.10
-125.51
-160.81
-189.37
-203.90
-199.19
-174.34
-132.51
-79.92
-22.90
34.19
89.38
141.71
188.70
226.01
248.29
252.28
239.03
214.42
187.11
165.41
153.94
152.16
155.76
159.36
159.48
155.78
150.43
146.47
146.42
150.75
157.90
165.47
171.77
176.49
180.37
184.18
188.18
192.99
199.27
207.81
219.44
234.98
254.24
275.81
297.29
308.70
302.54
275.40
229.29
170.61
108.19
49.45
-1.49
-43.97
-79.33
-108.70
-133.03
-151.60
-166.28
-178.26
-188.39
-197.23
-205.30
-213.08
-220.33
-227.55
-236.25
-249.47
-269.16
-293.30
-317.10
-333.96
-337.80
-325.27
-298.10
-259.51
-217.82
-181.54
-155.84
-140.89
-133.19
-128.34
-122.65
-114.49
-103.66
-91.24
-77.72
-63.97
-49.66
-34.47
-18.48
-1.14
18.43
41.87
70.28
103.91
140.73
175.94
203.14
214.32
205.68
178.82
140.61
100.01
65.13
40.56
26.60
20.59
18.90
19.46
21.70
26.17
33.14
41.95
51.12
58.66
63.13
63.99
62.51
60.44
58.93
57.52
53.98
45.86
31.71
12.62
-8.41
-27.22
-40.80
-48.31
-50.80
-50.38
-48.43
-45.41
-40.67
-33.68
-24.45
-13.80
-3.29
5.79
12.33
16.03
16.83
15.30
12.30
8.87
6.03
4.08
2.79
1.01
-2.21
-7.41
-14.26
-21.65
-28.46
-33.70
-37.14
-38.47
-37.68
-34.53
-29.09
-21.98
-14.27
-7.34
-1.81
2.17
5.31
8.18
10.92
13.12
14.20
14.09
13.02
11.59
9.72
6.84
1.95
-5.50
-14.93
-24.90
-33.45
-39.44
-42.65
-43.91
-44.17
-43.84
-42.77
-40.36
-36.65
-32.16
-28.14
-25.54
-24.64
-24.90
-25.26
-25.12
-24.28
-23.27
-22.42
-21.65
-20.19
-16.92
-11.08
-2.54
7.72
18.33
27.60
34.28
37.69
37.88
35.71
32.32
29.24
27.43
27.34
28.51
29.91
30.52
29.71
27.82
25.56
23.89
23.17
23.15
23.02
21.81
19.16
14.97
9.67
3.43
-3.62
-11.72
-20.90
-30.77
-40.55
-48.88
-54.52
-55.89
-51.70
-40.88
-23.37
-0.76
23.67
45.03
58.75
61.70
53.84
38.01
19.13
2.53
-7.80
-9.59
-2.81
11.31
30.45
51.99
73.00
90.59
102.52
107.07
103.63
92.03
72.52
45.35
11.37
-27.23
-66.73
-101.69
-126.82
-138.03
-134.18
-116.79
-89.40
-56.27
-21.02
13.15
43.78
68.26
84.39
90.33
85.40
70.42
47.31
19.38
-9.47
-34.88
-53.20
-62.01
-61.02
-52.15
-38.37
-23.04
-8.39
4.21
14.43
21.81
25.75
25.85
22.12
15.80
8.62
2.69
-0.76
-1.46
0.02
2.65
5.73
8.67
11.47
13.93
16.17
18.34
20.69
23.60
26.92
30.35
32.95
34.19
33.76
32.00
29.37
25.91
21.33
14.73
5.86
-4.97
-16.30
-26.46
-34.15
-38.81
-40.97
-41.09
-39.84
-37.21
-33.27
-28.25
-22.82
-17.97
-14.20
-11.87
-10.50
-9.78
-9.38
-9.30
-9.50
-9.54
-8.89
-6.67
-2.78
2.47
8.06
13.08
16.90
19.26
20.35
19.82
17.31
12.10
4.02
-6.55
-18.61
-30.78
-42.18
-52.12
-60.51
-66.94
-70.84
-71.22
-67.18
-58.64
-46.20
-31.57
-16.47
-2.78
8.40
16.38
20.77
21.53
18.52
12.15
2.84
-8.66
-21.81
-36.27
-51.84
-68.24
-84.42
-99.00
-110.00
-116.04
-116.26
-110.71
-99.93
-84.41
-64.82
-41.77
-16.83
7.98
30.01
47.23
58.82
65.13
67.58
67.32
65.07
60.41
52.85
42.03
28.34
13.14
-1.90
-14.84
-24.35
-29.68
-31.22
-30.22
-28.70
-28.85
-31.97
-37.85
-43.86
-45.71
-38.65
-19.93
9.32
43.63
74.58
94.61
99.54
90.78
73.53
53.95
35.80
18.95
0.90
-20.54
-43.97
-64.42
-74.85
-69.60
-46.95
-9.67
35.85
82.00
122.07
152.02
170.12
176.69
173.64
164.56
154.59
148.99
151.03
159.88
171.37
179.65
180.80
175.42
168.43
166.37
173.00
186.96
197.39
193.41
168.51
124.34
69.95
16.23
-29.87
-67.61
-100.36
-131.72
-161.82
-187.65
-204.78
-210.30
-204.57
-191.41
-176.54
-165.20
-160.27
-160.72
-162.67
-161.08
-151.64
-132.06
-102.46
-64.49
-21.54
21.29
58.01
82.94
92.59
87.22
70.16
48.77
31.06
22.21
22.87
29.88
38.84
46.62
52.15
55.86
58.49
60.03
59.59
55.82
47.27
32.30
9.65
-20.44
-55.45
-90.01
-116.70
-128.75
-121.32
-95.85
-58.54
-17.52
19.34
45.59
56.03
47.36
19.43
-23.42
-71.82
-112.76
-134.05
-129.50
-100.28
-57.12
-13.83
18.98
37.28
43.04
41.17
36.02
29.68
22.50
14.42
6.46
0.28
-2.71
-2.59
-0.83
0.44
-0.70
-4.99
-11.90
-19.76
-26.56
-31.08
-33.29
-34.23
-35.34
-37.84
-42.17
-48.06
-54.61
-60.85
-66.22
-70.54
-74.02
-76.72
-78.44
-78.66
-76.80
-72.39
-65.17
-55.54
-43.69
-29.84
-13.93
4.17
24.50
46.96
70.99
95.79
119.60
140.25
155.03
161.54
158.31
145.32
124.45
98.51
71.32
46.22
25.87
11.30
2.23
-2.49
-4.71
-5.77
-6.87
-8.70
-12.22
-18.07
-26.38
-36.23
-44.79
-48.92
-45.61
-34.61
-18.44
-2.27
8.43
10.07
1.90
-12.83
-29.28
-42.30
-48.88
-48.71
-43.93
-37.86
-32.46
-28.11
-23.04
-15.51
-5.15
5.00
9.60
3.61
-14.99
-43.08
-73.64
-98.04
-110.07
-107.34
-91.68
-67.39
-38.94
-10.15
16.88
40.68
60.61
76.28
87.74
95.23
98.36
96.61
89.21
76.13
58.42
38.76
21.27
10.44
10.03
21.22
41.88
65.82
84.80
90.72
78.89
50.16
10.83
-29.06
-59.77
-74.81
-73.28
-59.36
-40.37
-23.70
-14.26
-13.75
-21.09
-34.39
-52.33
-74.64
-100.70
-127.59
-150.04
-161.13
-155.74
-132.84
-96.70
-54.84
-14.80
18.85
46.00
68.90
90.46
111.45
130.55
144.83
151.62
149.57
138.58
120.06
95.96
68.94
41.63
16.49
-4.98
-22.62
-36.86
-48.39
-56.90
-61.20
-59.28
-50.12
-34.60
-15.60
2.28
14.58
17.94
11.19
-5.04
-28.25
-54.58
-79.45
-98.18
-107.54
-106.60
-97.31
-83.28
-68.48
-55.13
-42.99
-29.81
-12.62
10.32
38.78
70.51
102.75
133.16
160.27
183.44
201.98
215.06
221.77
221.96
216.33
206.52
194.66
182.63
171.66
162.04
153.33
144.86
136.09
126.76
116.78
106.07
94.27
80.98
66.44
50.34
32.63
13.61
-6.37
-27.31
-49.71
-74.27
-101.37
-130.49
-160.13
-188.08
-212.24
-231.28
-245.44
-256.04
-264.92
-273.17
-280.96
-287.87
-293.58
-298.23
-301.87
-304.06
-303.03
-296.26
-281.42
-257.58
-224.48
-184.47
-140.78
-95.49
-49.66
-4.07
38.53
72.35
90.40
87.98
66.89
36.64
11.96
6.42
26.09
66.78
115.71
157.88
182.18
185.83
173.81
155.91
141.77
137.22
143.53
157.89
175.93
192.96
205.81
212.77
213.51
208.41
197.88
182.81
164.55
146.06
130.76
121.61
119.36
121.79
124.60
123.04
114.72
99.62
80.05
58.55
36.41
13.24
-12.39
-41.08
-72.40
-103.67
-131.59
-152.65
-164.17
-164.73
-153.96
-133.07
-104.04
-70.41
-36.08
-5.42
17.80
30.77
31.62
20.17
-2.60
-33.57
-68.01
-99.50
-121.59
-129.75
-123.00
-104.86
-81.17
-58.46
-40.60
-28.32
-20.15
-14.81
-12.72
-15.27
-23.61
-35.81
-47.47
-53.37
-51.05
-42.47
-33.40
-30.45
-36.64
-50.10
-64.10
-71.04
-65.69
-47.62
-21.02
8.12
34.43
55.69
72.40
86.92
101.12
115.17
127.51
135.76
138.41
135.32
128.34
120.21
113.74
110.68
110.98
112.78
112.16
104.39
84.91
51.65
6.76
-42.87
-86.91
-115.15
-120.89
-104.06
-71.03
-32.38
0.84
20.35
22.19
7.19
-20.37
-53.89
-86.13
-110.26
-121.25
-117.05
-99.03
-71.59
-40.54
-11.41
12.15
28.69
38.68
43.67
45.32
45.12
43.94
42.40
40.66
38.77
36.87
35.04
33.37
31.62
29.49
26.41
22.06
16.45
10.14
4.35
0.78
1.99
10.26
26.66
49.68
74.54
93.76
99.26
85.44
51.33
1.66
-54.59
-106.83
-146.38
-168.47
-172.68
-162.29
-142.03
-116.57
-89.02
-61.52
-35.52
-12.59
5.24
16.28
20.02
18.36
14.45
11.66
11.55
13.22
14.27
12.30
7.24
1.01
-3.09
-2.88
2.09
10.70
21.38
33.53
47.09
61.79
75.76
86.50
91.54
90.06
83.68
74.97
66.26
58.04
50.10
41.74
33.27
25.89
20.47
16.73
12.74
6.76
-1.81
-11.20
-18.07
-19.14
-12.80
-0.15
15.99
31.94
45.03
53.59
57.11
55.52
48.73
37.06
20.97
2.17
-17.48
-35.85
-51.76
-65.32
-78.08
-92.34
-109.42
-129.17
-148.84
-164.42
-172.02
-169.99
-160.00
-146.49
-134.92
-129.00
-129.57
-134.46
-140.59
-145.99
-150.74
-156.59
-165.50
-177.76
-191.65
-204.39
-213.22
-217.03
-216.48
-212.96
-204.80
-189.40
-163.40
-123.91
-70.19
-4.09
69.48
143.35
210.14
263.54
299.13
314.41
308.89
283.11
239.39
182.21
118.38
56.62
5.19
-30.34
-46.41
-44.90
-33.55
-18.78
-3.87
10.73
26.89
45.10
63.84
80.22
91.20
95.87
96.33
96.04
97.70
101.71
105.93
106.03
97.59
77.55
45.99
6.65
-34.73
-72.53
-103.08
-125.79
-143.02
-157.69
-172.75
-189.24
-205.97
-220.28
-229.77
-234.80
-236.02
-234.09
-228.60
-218.53
-202.26
-178.59
-148.38
-114.25
-79.71
-47.50
-18.83
6.97
31.63
57.20
84.90
114.72
145.34
174.82
201.10
222.22
236.98
244.89
246.94
245.32
243.05
242.58
244.52
247.11
246.45
238.68
221.79
197.23
169.01
141.97
119.21
100.64
83.87
65.67
44.46
20.68
-3.23
-25.01
-43.37
-58.03
-69.11
-75.72
-76.45
-69.74
-55.97
-37.55
-18.84
-4.48
2.68
2.27
-3.32
-10.66
-15.96
-16.47
-10.73
1.03
16.49
32.01
42.77
45.12
37.30
20.83
-0.58
-22.54
-41.24
-54.75
-62.17
-63.39
-57.92
-45.73
-27.94
-7.03
13.07
28.92
38.31
41.71
40.67
37.14
31.99
24.67
14.21
-0.14
-17.25
-35.02
-50.42
-61.21
-66.08
-64.73
-57.58
-45.10
-28.63
-9.65
9.96
28.96
46.70
63.35
79.55
95.27
109.76
121.29
129.28
133.69
136.29
139.38
143.63
147.42
146.48
138.55
120.55
90.86
49.65
-0.99
-56.68
-112.13
-159.81
-192.28
-203.95
-194.22
-168.07
-135.09
-106.67
-91.75
-94.09
-111.13
-136.19
-161.94
-183.84
-200.40
-211.45
-215.30
-207.32
-181.97
-136.46
-74.48
-6.48
53.94
96.21
117.60
122.62
121.08
122.29
130.76
144.68
158.16
165.57
164.59
156.85
145.71
134.31
123.67
112.77
99.94
84.17
66.07
47.64
31.28
18.75
10.52
5.59
2.10
-1.79
-7.08
-13.52
-20.01
-25.21
-28.30
-29.22
-28.70
-27.88
-27.70
-28.53
-30.08
-31.64
-32.50
-32.32
-31.16
-29.49
-27.85
-26.66
-26.03
-25.77
-25.54
-25.05
-24.16
-22.93
-21.52
-20.11
-18.84
-17.73
-16.76
-15.86
-14.97
-14.09
-13.21
-12.37
-11.57
-10.83
-10.15
-9.51
-8.93
-8.39
-7.87
-7.28
-6.68
-6.15
-5.71
-5.38
-5.16
-4.95
-4.69
-4.31
-3.79
-3.19
-2.62
-2.18
-1.93
-1.84
-1.82
-1.73
-1.47
-1.00
-0.41
0.14
0.50
0.56
0.37
0.10
0.01
0.32
1.10
2.15
3.11
3.57
3.34
2.54
1.67
1.43
2.34
4.52
7.48
10.25
11.87
11.78
10.26
8.34
7.40
8.57
12.11
17.18
22.10
25.17
25.47
23.39
20.58
19.18
20.73
25.64
32.73
39.84
45.09
47.16
45.63
40.62
32.73
23.50
16.16
15.15
24.26
44.18
70.28
93.27
102.54
91.12
59.28
14.62
-30.88
-66.96
-89.08
-98.73
-100.92
-100.44
-99.42
-97.97
-95.23
-92.13
-90.93
-93.30
-98.32
-101.59
-97.20
-80.76
-51.56
-13.37
26.78
60.91
82.53
87.83
76.19
50.05
14.26
-25.03
-61.84
-91.70
-112.08
-121.96
-120.88
-108.62
-85.59
-54.03
-18.83
13.61
37.40
49.69
51.68
47.54
41.93
37.74
35.50
34.08
32.23
29.65
27.01
25.27
24.84
25.38
26.05
25.85
24.33
21.71
18.75
16.31
14.98
14.82
15.35
15.86
15.72
14.68
12.96
11.09
9.61
8.85
8.79
9.10
9.37
9.26
8.69
7.78
6.85
6.14
5.81
5.78
5.90
5.95
5.77
5.34
4.76
4.16
3.66
3.33
3.14
3.02
2.90
2.71
2.44
2.07
1.64
1.12
0.54
-0.14
-0.93
-1.84
-2.88
-4.06
-5.40
-6.90
-8.60
-10.49
-12.59
-14.93
-17.50
-20.31
-23.38
-26.73
-30.36
-34.28
-38.51
-43.05
-47.93
-53.11
-58.64
-64.55
-70.88
-77.62
-84.78
-92.32
-100.12
-108.01
-115.66
-122.66
-128.49
-132.54
-134.18
-132.75
-127.72
-118.76
-106.07
-89.83
-70.52
-49.07
-26.54
-4.09
17.21
36.49
53.20
67.09
78.15
86.55
92.49
96.22
98.01
98.18
97.06
95.02
92.31
89.04
85.10
80.10
73.70
65.64
55.95
45.11
33.82
22.99
13.19
4.66
-2.87
-9.93
-16.95
-23.90
-30.01
-34.16
-35.10
-32.20
-25.69
-16.83
-7.46
0.82
7.34
12.85
19.02
27.75
39.89
54.71
69.74
81.79
88.31
88.66
84.80
80.26
79.04
83.87
95.49
112.22
130.53
146.25
155.37
155.32
145.44
127.64
104.69
80.91
60.21
44.03
30.77
16.42
-3.00
-28.98
-58.58
-85.05
-100.15
-97.65
-76.82
-43.21
-7.49
18.55
26.31
14.24
-11.64
-40.41
-61.03
-67.74
-61.94
-50.93
-42.92
-42.37
-47.75
-53.18
-53.28
-47.38
-41.01
-42.49
-57.78
-85.91
-118.01
-141.28
-144.53
-123.05
-79.79
-23.67
34.98
87.58
128.63
155.40
166.15
159.84
136.16
97.16
47.52
-5.40
-53.07
-87.85
-104.34
-100.64
-78.21
-41.80
1.21
41.54
69.45
77.05
60.78
23.91
-23.64
-67.21
-92.40
-90.13
-60.31
-12.14
39.54
79.44
97.95
93.32
71.41
41.75
13.21
-8.73
-22.88
-30.09
-31.79
-28.26
-19.59
-6.47
8.79
22.50
31.41
33.70
30.11
23.10
16.32
12.81
14.24
20.27
27.73
32.09
28.50
14.92
-6.88
-30.90
-49.63
-57.46
-52.73
-38.80
-21.44
-6.81
1.35
1.61
-5.24
-16.68
-29.37
-39.07
-42.29
-36.90
-23.95
-6.68
10.76
24.92
34.32
38.46
37.38
30.61
18.94
4.97
-6.56
-10.52
-4.85
7.71
19.73
23.47
14.42
-5.39
-28.42
-45.77
-51.27
-44.44
-29.33
-12.41
1.50
10.17
13.83
13.76
10.53
4.09
-5.81
-18.50
-33.13
-49.16
-67.24
-89.02
-115.31
-145.05
-174.57
-199.19
-215.15
-221.95
-222.49
-220.50
-220.40
-222.55
-224.56
-222.32
-212.03
-190.75
-156.37
-107.37
-43.27
33.87
118.81
203.15
276.94
331.68
363.25
373.04
366.69
351.47
333.45
315.80
299.21
282.80
265.27
245.46
222.11
193.50
157.55
114.08
63.32
7.92
-46.75
-93.69
-126.84
-143.54
-145.58
-138.82
-131.00
-128.73
-134.77
-147.97
-164.70
-181.15
-194.59
-203.42
-206.62
-201.91
-185.93
-155.17
-108.03
-46.64
22.46
89.18
142.10
172.56
178.11
163.20
137.19
110.17
89.00
75.44
67.17
60.58
53.45
45.98
39.77
36.09
34.69
33.83
31.41
26.20
18.56
10.22
3.39
-0.46
-1.20
0.03
1.42
1.40
-0.71
-4.45
-8.61
-11.78
-13.07
-12.50
-10.84
-9.13
-8.27
-8.55
-9.67
-10.96
-11.67
-11.40
-10.18
-8.44
-6.69
-5.32
-4.45
-3.94
-3.50
-2.78
-1.62
-0.02
1.87
3.88
5.84
7.66
9.33
10.67
11.53
11.78
11.26
9.87
7.60
4.62
1.19
-2.35
-5.61
-8.20
-9.73
-9.91
-8.54
-5.51
-0.87
5.12
11.88
18.65
24.56
28.72
30.37
29.00
24.42
16.74
6.27
-6.66
-21.58
-37.99
-55.20
-72.27
-87.90
-100.40
-108.13
-109.82
-104.97
-94.02
-78.19
-59.23
-38.28
-17.34
2.62
21.39
39.07
55.44
69.90
81.40
88.83
91.54
89.72
84.62
77.83
70.93
64.68
58.58
51.33
41.09
25.93
4.56
-22.89
-54.05
-83.52
-105.06
-112.83
-103.63
-78.73
-44.01
-8.39
18.61
29.60
21.41
-4.23
-41.57
-82.55
-119.16
-145.83
-159.47
-160.13
-150.07
-132.35
-109.84
-84.64
-58.26
-31.96
-8.08
11.83
27.21
38.64
47.44
54.76
61.19
66.53
69.89
70.45
68.24
63.95
58.67
53.58
49.41
46.36
44.16
42.39
40.60
38.80
37.02
35.20
33.17
30.65
27.51
23.89
20.44
17.95
17.12
17.95
19.62
20.76
20.04
16.88
11.80
6.52
2.94
2.62
5.71
10.93
16.05
18.65
16.90
9.87
-1.77
-15.63
-27.80
-33.66
-29.35
-13.38
11.95
40.49
63.65
73.48
65.63
41.24
6.45
-29.88
-59.47
-77.24
-81.92
-76.03
-63.37
-47.37
-30.19
-13.24
2.18
14.55
22.18
23.96
19.75
10.92
0.50
-7.12
-7.68
1.56
19.99
43.59
66.02
81.23
86.48
83.14
74.77
64.09
50.79
31.51
3.22
-33.67
-73.58
-107.34
-126.23
-126.19
-109.37
-82.01
-53.02
-28.51
-10.67
1.00
7.69
10.26
9.48
7.21
6.92
12.26
25.32
45.07
66.86
84.37
92.29
88.66
74.82
55.80
36.17
19.00
5.24
-5.55
-13.89
-19.78
-22.88
-23.16
-21.22
-18.48
-16.23
-15.38
-15.94
-17.29
-18.39
-18.42
-17.10
-14.69
-12.05
-10.03
-9.14
-9.35
-10.18
-10.93
-11.02
-10.22
-8.70
-7.00
-5.68
-5.09
-5.25
-5.88
-6.55
-6.89
-6.70
-6.05
-5.19
-4.45
-4.07
-4.12
-4.53
-5.11
-5.67
-6.11
-6.35
-6.49
-6.63
-6.92
-7.44
-8.22
-9.23
-10.33
-11.41
-12.37
-13.16
-13.90
-14.79
-16.03
-17.72
-19.81
-22.04
-24.08
-25.68
-26.75
-27.56
-28.57
-30.21
-32.64
-35.45
-37.83
-38.72
-37.15
-32.71
-25.64
-16.99
-7.81
1.01
9.14
16.69
24.03
31.20
37.66
42.03
42.58
38.19
28.50
14.95
-0.00
-13.53
-23.00
-26.20
-21.74
-9.19
10.21
32.90
53.39
65.69
65.77
53.16
32.66
11.72
-2.95
-8.19
-5.16
2.03
9.14
13.79
16.02
17.28
18.61
19.91
20.24
18.89
15.83
12.05
8.81
7.20
7.48
9.02
10.76
11.78
11.63
10.46
8.83
7.34
6.44
6.30
6.76
7.58
8.53
9.29
9.70
9.67
9.32
8.87
8.42
7.36
4.26
-2.58
-13.77
-27.70
-40.44
-46.95
-43.79
-30.95
-12.31
6.50
20.85
28.98
31.67
30.39
25.39
15.30
-1.16
-22.94
-45.66
-62.82
-68.94
-62.59
-47.01
-27.98
-10.85
1.46
9.13
13.88
17.33
19.91
21.12
20.44
18.12
15.26
13.22
13.10
15.01
17.95
20.40
21.09
19.55
16.51
13.27
11.32
11.53
13.74
16.85
19.17
18.72
13.59
2.83
-12.99
-31.01
-46.51
-54.41
-51.54
-38.40
-19.35
-1.49
9.14
9.67
1.67
-10.49
-21.89
-29.11
-30.63
-26.12
-15.77
-0.35
17.67
33.96
43.15
41.32
28.43
8.59
-10.63
-22.47
-23.66
-15.56
-2.63
10.15
19.43
23.94
23.60
18.75
10.22
0.19
-7.76
-9.28
-1.52
14.89
35.62
53.95
63.91
62.40
51.08
34.37
17.25
3.03
-7.31
-14.46
-19.55
-23.15
-25.14
-25.25
-23.69
-21.19
-18.74
-17.36
-17.50
-19.06
-21.37
-23.48
-24.46
-23.86
-21.79
-18.93
-16.42
-15.34
-16.38
-19.43
-23.58
-27.31
-29.20
-28.50
-25.45
-21.51
-18.66
-18.49
-21.56
-26.89
-32.42
-35.72
-34.78
-28.34
-16.21
0.72
20.19
38.54
51.37
54.97
48.14
32.79
14.65
0.21
-6.14
-3.80
4.14
12.64
17.22
16.14
10.96
5.86
5.64
13.48
29.49
50.55
71.28
86.10
91.37
86.84
74.54
58.73
42.66
27.61
13.37
-0.41
-13.12
-23.13
-28.60
-28.86
-24.96
-19.48
-15.10
-13.67
-15.28
-18.57
-21.53
-22.48
-20.85
-17.16
-12.91
-9.68
-8.41
-9.04
-10.72
-12.23
-12.61
-11.55
-9.38
-6.92
-5.01
-4.09
-4.13
-4.69
-5.20
-5.27
-4.78
-3.91
-3.05
-2.48
-2.33
-2.48
-2.70
-2.75
-2.57
-2.32
-2.23
-2.57
-3.36
-4.44
-5.43
-6.00
-5.99
-5.60
-5.33
-5.75
-7.28
-9.87
-12.97
-15.76
-17.50
-17.91
-17.38
-16.89
-17.57
-20.20
-24.71
-30.19
-35.21
-38.53
-39.67
-39.23
-38.73
-39.71
-43.25
-49.22
-56.33
-62.64
-66.10
-64.87
-57.36
-42.90
-22.05
2.35
25.28
40.81
44.52
35.88
18.83
0.84
-10.66
-11.59
-2.69
11.72
26.44
38.09
46.01
51.30
55.18
57.79
58.27
55.68
50.06
42.71
35.58
30.57
28.46
28.71
29.82
30.08
28.37
24.59
19.63
14.87
11.54
10.13
10.32
11.16
11.57
10.84
8.88
6.19
3.58
1.71
0.90
0.97
1.45
1.77
1.59
0.82
-0.29
-1.41
-2.21
-2.56
-2.51
-2.25
-1.98
-1.86
-1.93
-2.14
-2.39
-2.59
-2.69
-2.69
-2.62
-2.50
-2.41
-2.35
-2.33
-2.32
-2.30
-2.23
-2.12
-1.98
-1.88
-1.87
-1.98
-2.19
-2.43
-2.61
-2.65
-2.55
-2.35
-2.16
-2.11
-2.28
-2.63
-3.06
-3.39
-3.49
-3.30
-2.95
-2.63
-2.60
-2.98
-3.69
-4.49
-5.07
-5.21
-4.92
-4.52
-4.34
-4.69
-5.61
-6.81
-7.95
-8.79
-9.40
-9.98
-10.61
-11.03
-10.80
-9.66
-7.82
-6.04
-5.28
-6.27
-9.15
-13.43
-18.28
-22.90
-26.73
-29.53
-31.22
-32.00
-32.17
-32.20
-32.52
-33.63
-35.70
-39.01
-43.93
-50.41
-57.03
-60.94
-58.82
-48.64
-31.27
-10.45
8.92
23.29
32.14
37.75
43.20
50.04
57.32
62.45
63.25
59.64
53.68
48.25
45.24
44.63
44.92
44.42
42.36
38.97
35.28
32.37
30.98
30.90
31.48
31.88
31.46
30.09
28.17
26.47
25.67
26.08
27.43
29.10
30.44
31.06
31.02
30.76
30.89
31.79
33.38
35.26
36.30
35.64
32.81
27.94
21.68
14.97
8.64
3.19
-1.28
-4.91
-7.70
-9.47
-9.92
-8.83
-6.10
-1.85
3.89
11.42
21.05
32.29
43.07
49.71
48.34
36.85
16.48
-8.26
-31.31
-47.44
-54.50
-53.46
-47.46
-39.94
-33.28
-28.32
-25.00
-23.08
-22.41
-23.09
-24.16
-23.87
-20.26
-11.96
1.13
17.39
33.81
47.00
54.10
54.91
51.59
47.37
44.54
43.19
41.41
36.81
28.23
15.50
0.35
-15.23
-30.42
-45.66
-62.04
-80.56
-101.95
-120.58
-135.27
-147.09
-159.05
-175.08
-198.58
-231.26
-271.72
-315.14
-353.79
-379.77
-386.21
-369.93
-332.52
-279.60
-218.51
-155.49
-94.22
-35.79
19.53
72.04
121.60
167.35
207.52
239.55
261.32
272.52
275.71
275.48
276.63
280.51
283.37
277.72
256.83
219.51
171.54
122.47
79.29
42.12
4.60
-40.70
-95.46
-151.96
-195.85
-212.99
-196.19
-148.23
-79.56
-3.47
67.99
125.44
162.27
174.58
162.50
131.32
90.85
51.62
20.24
-3.71
-27.14
-59.22
-106.72
-171.12
-248.70
-332.72
-415.61
-489.96
-548.61
-585.21
-595.74
-580.31
-543.74
-494.26
-440.70
-389.50
-343.51
-302.36
-263.93
-226.12
-187.66
-148.15
-107.77
-66.82
-25.59
15.80
57.47
99.47
141.60
183.29
223.72
262.18
298.41
332.88
366.64
400.79
436.00
472.21
508.79
544.76
578.97
610.06
636.37
656.28
669.01
675.36
677.65
678.53
678.91
676.47
665.85
640.78
597.16
535.17
459.34
376.35
291.83
208.32
125.20
40.42
-47.25
-136.49
-223.09
-300.77
-363.36
-407.13
-432.62
-445.28
-454.38
-470.39
-501.24
-549.21
-609.65
-672.29
-724.75
-756.70
-762.93
-744.09
-705.24
-653.15
-593.82
-531.32
-468.01
-405.53
-345.61
-290.19
-240.41
-195.81
-154.28
-113.05
-70.09
-25.27
19.86
63.17
103.09
139.67
174.50
210.17
249.22
293.42
343.00
396.07
448.45
493.99
526.23
540.14
533.91
509.35
471.06
424.77
375.80
328.40
285.65
249.70
221.64
201.06
185.83
172.58
157.95
139.95
118.42
94.56
69.75
44.63
19.22
-6.21
-30.23
-50.26
-63.63
-68.89
-66.65
-59.23
-49.67
-40.31
-32.36
-26.40
-23.19
-24.25
-31.34
-45.18
-64.25
-84.85
-102.30
-112.95
-115.73
-112.44
-106.54
-101.24
-98.02
-96.20
-93.84
-89.13
-81.53
-72.16
-63.35
-57.72
-57.33
-63.00
-73.96
-87.91
-101.64
-111.92
-116.51
-114.70
-107.27
-95.77
-81.75
-66.07
-48.93
-30.28
-10.42
9.86
29.54
47.96
65.38
82.96
102.30
124.66
150.37
178.54
207.40
234.87
259.19
279.42
295.51
308.14
318.28
326.76
333.93
339.64
343.43
344.84
343.69
340.24
335.03
328.53
320.88
311.71
300.41
286.52
270.07
251.69
232.34
212.93
194.02
175.71
157.63
139.10
119.00
95.69
67.11
31.23
-13.27
-66.21
-125.66
-188.41
-250.84
-309.99
-364.21
-413.04
-456.87
-496.45
-532.88
-567.59
-602.24
-637.81
-673.49
-705.68
-728.32
-734.54
-719.02
-679.97
-619.61
-543.09
-456.49
-365.32
-274.16
-187.12
-108.57
-42.89
6.89
40.56
61.34
75.00
87.74
103.91
124.92
149.37
174.62
198.66
221.01
242.38
263.74
285.27
305.94
323.88
336.89
343.68
344.55
341.31
336.14
330.51
324.69
317.84
308.53
294.97
276.12
252.57
226.11
198.67
171.35
144.51
118.05
92.01
65.76
38.96
12.25
-12.78
-34.80
-53.34
-68.53
-80.91
-91.18
-101.53
-114.25
-130.49
-149.49
-169.96
-190.92
-211.74
-232.00
-243.31
-237.95
-216.66
-188.41
-161.01
-137.79
-119.05
-103.74
-90.54
-78.55
-69.10
-64.11
-65.11
-70.99
-79.48
-88.23
-95.38
-99.94
-101.80
-104.18
-107.94
-113.50
-119.23
-123.27
-124.21
-120.82
-111.30
-93.10
-64.39
-22.33
27.10
75.70
115.09
139.91
149.91
149.59
145.20
140.82
136.96
130.73
119.96
104.64
87.35
71.86
60.92
54.82
51.35
47.53
41.05
32.58
24.05
17.96
15.78
17.05
19.54
20.34
17.25
9.57
-1.00
-11.73
-19.84
-23.58
-22.65
-17.27
-9.78
-3.34
-1.55
-7.32
-21.77
-43.20
-67.40
-89.20
-104.85
-113.94
-119.23
-124.73
-132.30
-140.10
-142.55
-133.44
-109.65
-73.34
-31.29
8.31
38.69
57.50
64.43
61.13
50.42
36.48
23.86
15.91
13.30
13.29
11.50
3.69
-11.25
-30.58
-49.28
-63.58
-73.58
-82.91
-96.09
-114.94
-138.67
-164.45
-189.18
-209.66
-222.92
-226.45
-218.16
-197.55
-166.07
-128.92
-93.15
-64.64
-43.81
-27.54
-11.54
8.65
30.54
54.08
77.93
98.21
108.54
105.94
88.37
55.65
11.63
-34.31
-69.85
-86.62
-83.62
-66.38
-36.41
4.05
50.47
96.61
138.20
173.71
202.50
224.62
241.80
266.10
307.14
365.63
433.71
502.90
567.65
625.50
676.20
666.82
574.97
424.68
266.35
134.65
38.22
-29.58
-78.89
-118.21
-152.66
-175.64
-181.77
-168.86
-148.10
-129.16
-117.98
-117.16
-127.50
-147.86
-168.60
-181.52
-184.79
-182.96
-180.33
-182.22
-189.60
-202.11
-218.56
-233.19
-241.61
-243.36
-241.43
-237.80
-233.13
-227.27
-221.10
-216.38
-212.97
-210.64
-209.60
-210.39
-212.20
-213.43
-212.17
-207.28
-198.34
-184.69
-166.23
-143.54
-117.59
-88.67
-56.71
-21.71
14.87
49.96
79.14
98.08
104.20
97.89
82.98
65.59
52.45
48.62
56.01
72.83
94.51
115.63
132.33
143.79
152.42
162.28
177.04
198.27
224.70
252.48
276.05
289.41
287.68
268.88
235.19
193.05
151.44
118.62
98.89
90.91
88.90
86.05
78.07
64.91
49.82
36.50
26.58
18.87
10.61
-0.33
-13.95
-28.05
-39.42
-45.70
-46.57
-44.03
-41.24
-41.00
-44.22
-49.33
-52.76
-50.51
-39.99
-21.39
2.14
25.65
44.24
55.08
58.09
55.57
50.99
47.49
46.98
49.69
54.65
60.40
65.91
70.64
74.47
77.41
79.30
79.79
78.20
73.73
65.96
55.51
43.59
31.57
20.60
11.12
3.04
-4.48
-12.44
-21.47
-30.39
-37.89
-43.22
-46.37
-47.99
-48.27
-47.69
-46.92
-46.45
-44.56
-40.53
-35.36
-30.78
-28.27
-26.56
-23.74
-18.07
-8.36
8.74
33.76
63.64
93.71
119.49
140.63
157.60
170.65
179.80
188.88
199.43
209.62
216.31
216.63
212.59
206.52
199.90
167.58
103.13
21.70
-53.56
-100.97
-129.41
-146.80
-158.15
-168.01
-177.66
-183.25
-182.60
-177.11
-170.25
-166.05
-164.27
-164.34
-166.07
-169.06
-169.78
-166.25
-159.44
-151.90
-146.60
-143.18
-141.13
-140.48
-141.44
-142.35
-142.22
-141.07
-139.00
-135.71
-128.77
-116.39
-98.41
-76.07
-50.81
-24.88
-0.98
18.63
32.62
41.63
46.87
49.63
50.97
51.90
52.86
53.71
54.13
53.86
53.09
52.13
51.14
50.26
49.56
49.13
49.09
49.49
50.18
50.81
50.81
49.62
46.88
42.48
36.68
30.01
23.07
16.33
10.06
4.16
-1.59
-7.44
-13.55
-19.88
-26.29
-32.67
-39.04
-45.48
-52.12
-59.01
-66.13
-73.34
-80.34
-86.43
-90.54
-91.25
-87.22
-77.67
-62.80
-43.84
-22.68
-1.30
18.61
35.95
50.12
60.80
67.88
71.47
71.99
70.22
67.15
63.82
61.11
59.55
59.29
60.06
61.29
62.31
62.55
61.76
60.01
57.65
55.08
52.45
49.64
46.33
42.17
37.05
31.17
24.99
19.00
13.51
8.56
3.92
-0.77
-5.86
-11.54
-17.79
-24.41
-31.12
-37.62
-43.67
-49.16
-54.10
-58.69
-63.28
-68.30
-74.10
-80.62
-87.22
-92.60
-95.12
-93.20
-85.92
-73.29
-56.32
-36.69
-16.32
3.06
20.13
34.09
44.58
51.60
55.45
56.63
55.82
53.75
51.12
48.57
46.55
45.29
44.82
44.95
45.40
45.93
46.40
46.77
47.04
47.10
46.64
45.24
42.55
38.44
33.13
27.15
21.10
15.39
10.06
4.81
-0.74
-6.82
-13.29
-19.73
-25.68
-30.84
-35.31
-39.47
-43.85
-48.90
-54.85
-61.72
-69.30
-77.10
-84.27
-89.56
-91.52
-88.87
-80.92
-67.98
-51.33
-32.87
-14.59
1.96
15.89
26.95
35.24
40.99
44.38
45.60
44.95
42.93
40.25
37.67
35.82
35.06
35.39
36.48
37.84
38.98
39.56
39.44
38.65
37.34
35.61
33.48
30.87
27.59
23.51
18.52
12.67
6.13
-0.85
-7.99
-15.03
-21.77
-28.00
-33.62
-38.68
-43.51
-48.70
-54.92
-62.49
-70.97
-79.02
-84.60
-85.59
-80.59
-69.40
-53.08
-33.70
-13.60
5.08
20.84
32.96
41.43
46.69
49.40
50.17
49.41
47.28
43.89
39.47
34.51
29.62
25.44
22.39
20.64
20.23
21.18
23.57
27.34
32.04
36.65
39.78
40.03
36.53
29.30
19.11
7.14
-5.45
-17.77
-29.14
-38.85
-46.07
-49.92
-49.92
-46.45
-40.96
-35.85
-33.69
-36.26
-43.70
-54.26
-64.73
-71.57
-72.19
-65.89
-53.89
-38.69
-22.90
-8.32
4.38
15.43
25.25
34.00
41.50
47.42
51.54
53.94
54.87
54.61
53.35
51.26
48.56
45.62
42.91
40.78
39.37
38.54
37.97
37.29
36.23
34.64
32.49
29.81
26.64
23.01
18.93
14.37
9.25
3.47
-3.11
-10.50
-18.56
-26.89
-34.91
-41.97
-47.59
-51.64
-54.54
-57.13
-60.42
-65.08
-71.02
-77.19
-81.81
-83.00
-79.41
-70.74
-57.80
-42.15
-25.51
-9.36
5.40
18.27
29.01
37.42
43.36
46.84
48.15
47.90
46.86
45.73
45.01
44.89
45.33
46.15
47.14
48.07
48.75
48.99
48.64
47.66
46.12
44.13
41.77
38.99
35.63
31.52
26.66
21.22
15.56
10.07
4.96
0.21
-4.38
-9.04
-13.89
-18.84
-23.62
-27.96
-31.63
-34.64
-37.16
-39.51
-42.15
-45.58
-50.30
-56.60
-64.34
-72.72
-80.27
-85.15
-85.70
-80.88
-70.74
-56.33
-39.38
-21.72
-4.91
9.99
22.35
31.82
38.23
41.58
42.15
40.50
37.52
34.16
31.32
29.55
29.07
29.72
31.15
32.99
34.94
36.84
38.57
39.96
40.80
40.80
39.76
37.56
34.27
30.09
25.29
20.15
15.00
10.11
5.71
1.87
-1.54
-4.80
-8.27
-12.18
-16.56
-21.22
-25.80
-29.97
-33.57
-36.65
-39.49
-42.49
-46.12
-50.75
-56.52
-63.05
-69.40
-74.16
-75.78
-73.08
-65.64
-53.99
-39.43
-23.59
-7.96
6.35
18.66
28.54
35.72
40.05
41.55
40.60
37.94
34.50
31.20
28.70
27.31
26.99
27.47
28.44
29.68
31.03
32.42
33.74
34.80
35.28
34.81
33.12
30.10
25.89
20.89
15.65
10.62
6.08
1.98
-1.97
-6.19
-10.93
-16.19
-21.67
-26.93
-31.57
-35.39
-38.56
-41.44
-44.53
-48.34
-53.20
-59.22
-66.10
-73.09
-78.96
-82.22
-81.53
-76.13
-66.12
-52.51
-36.85
-20.78
-5.64
7.74
18.98
27.96
34.66
39.06
41.24
41.42
40.04
37.75
35.31
33.37
32.40
32.49
33.42
34.80
36.17
37.29
38.08
38.59
38.86
38.77
38.05
36.40
33.64
29.78
25.07
19.89
14.65
9.64
5.01
0.67
-3.57
-7.90
-12.49
-17.35
-22.35
-27.32
-32.03
-36.31
-40.01
-43.13
-45.82
-48.43
-51.49
-55.56
-61.01
-67.66
-74.67
-80.56
-83.65
-82.55
-76.59
-66.10
-52.20
-36.46
-20.42
-5.30
8.14
19.49
28.53
35.15
39.37
41.39
41.65
40.80
39.50
38.35
37.75
37.85
38.63
39.94
41.60
43.43
45.24
46.88
48.16
48.88
48.88
48.01
46.19
43.42
39.78
35.44
30.65
25.70
20.87
16.31
12.02
7.83
3.48
-1.21
-6.32
-11.72
-17.19
-22.46
-27.33
-31.69
-35.51
-38.86
-41.95
-45.18
-49.14
-54.37
-61.12
-69.02
-76.94
-83.18
-85.91
-83.78
-76.38
-64.34
-49.12
-32.52
-16.11
-1.01
12.19
23.18
31.82
37.92
41.41
42.40
41.35
38.96
36.07
33.35
31.24
29.86
29.16
29.05
29.49
30.51
32.04
33.92
35.78
37.11
37.39
36.22
33.45
29.28
24.17
18.75
13.59
9.01
5.04
1.45
-2.08
-5.75
-9.61
-13.48
-17.17
-20.56
-23.73
-26.88
-30.36
-34.55
-39.82
-46.36
-54.03
-62.17
-69.55
-74.58
-75.76
-72.14
-63.71
-51.38
-36.73
-21.50
-7.09
5.65
16.43
25.27
32.20
37.14
39.94
40.57
39.31
36.82
33.98
31.63
30.37
30.36
31.39
33.07
34.98
36.78
38.27
39.25
39.54
38.97
37.46
35.04
31.84
28.02
23.73
19.08
14.06
8.69
2.99
-2.98
-9.04
-15.04
-20.83
-26.39
-31.83
-37.42
-43.50
-50.43
-58.40
-67.17
-75.94
-83.37
-87.83
-87.87
-82.69
-72.47
-58.27
-41.73
-24.61
-8.38
5.97
17.89
27.13
33.69
37.68
39.40
39.25
37.80
35.65
33.39
31.56
30.50
30.42
31.29
32.95
35.18
37.71
40.27
42.51
44.08
44.58
43.73
41.45
37.89
33.37
28.26
22.84
17.25
11.47
5.46
-0.77
-7.12
-13.38
-19.33
-24.77
-29.61
-33.88
-37.77
-41.65
-46.03
-51.33
-57.68
-64.59
-70.96
-75.23
-75.89
-72.01
-63.58
-51.45
-37.06
-21.93
-7.25
6.16
17.89
27.70
35.40
40.84
44.02
45.18
44.78
43.51
42.04
40.90
40.32
40.29
40.63
41.20
41.99
43.06
44.45
45.95
47.13
47.40
46.33
43.74
39.82
35.01
29.80
24.56
19.45
14.45
9.44
4.31
-0.98
-6.39
-11.77
-16.97
-21.80
-26.18
-30.16
-33.98
-38.03
-42.83
-48.78
-55.91
-63.73
-71.07
-76.38
-78.12
-75.29
-67.77
-56.36
-42.41
-27.45
-12.74
0.84
12.77
22.71
30.42
35.74
38.66
39.46
38.62
36.82
34.72
32.88
31.66
31.23
31.52
32.42
33.70
35.18
36.66
37.90
38.65
38.61
37.55
35.36
32.12
28.07
23.54
18.81
14.06
9.29
4.44
-0.58
-5.79
-11.12
-16.37
-21.29
-25.67
-29.46
-32.81
-36.16
-40.04
-44.94
-50.97
-57.61
-63.74
-67.82
-68.40
-64.58
-56.38
-44.71
-31.06
-16.96
-3.61
8.32
18.54
26.95
33.35
37.51
39.29
38.87
36.79
33.86
30.94
28.67
27.40
27.17
27.84
29.22
31.08
33.14
35.05
36.43
36.95
36.37
34.67
31.95
28.43
24.37
19.96
15.28
10.32
5.00
-0.66
-6.53
-12.33
-17.72
-22.44
-26.47
-30.03
-33.57
-37.69
-42.86
-49.27
-56.62
-64.04
-70.16
-73.45
-72.59
-66.97
-56.88
-43.48
-28.40
-13.35
0.43
12.23
21.84
29.36
34.93
38.64
40.60
41.01
40.22
38.71
37.01
35.54
34.55
34.14
34.26
34.82
35.71
36.80
37.93
38.85
39.25
38.77
37.16
34.32
30.37
25.67
20.66
15.75
11.11
6.67
2.22
-2.47
-7.41
-12.46
-17.33
-21.77
-25.73
-29.34
-32.91
-36.84
-41.48
-47.07
-53.58
-60.51
-66.92
-71.49
-72.83
-69.92
-62.51
-51.23
-37.42
-22.71
-8.56
4.11
14.92
23.82
30.88
36.07
39.31
40.64
40.36
39.11
37.63
36.58
36.32
36.80
37.72
38.74
39.64
40.42
41.15
41.90
42.60
43.00
42.79
41.65
39.42
36.11
31.93
27.20
22.32
17.68
13.51
9.86
6.58
3.31
-0.31
-4.53
-9.32
-14.39
-19.33
-23.77
-27.56
-30.83
-33.95
-37.34
-41.39
-46.39
-52.42
-59.23
-66.11
-71.92
-75.28
-74.95
-70.25
-61.36
-49.27
-35.40
-21.22
-7.81
4.13
14.26
22.38
28.32
32.01
33.58
33.42
32.17
30.54
29.14
28.37
28.39
29.09
30.27
31.71
33.23
34.74
36.19
37.52
38.57
39.06
38.66
37.12
34.32
30.39
25.63
20.46
15.28
10.40
5.93
1.81
-2.14
-6.15
-10.37
-14.81
-19.31
-23.66
-27.62
-31.13
-34.29
-37.36
-40.73
-44.81
-49.82
-55.68
-61.78
-67.04
-70.04
-69.50
-64.74
-55.95
-44.12
-30.70
-17.16
-4.56
6.51
15.82
23.24
28.64
31.92
33.10
32.44
30.50
27.98
25.55
23.71
22.64
22.31
22.53
23.10
23.94
25.02
26.37
27.95
29.51
30.62
30.75
29.48
26.69
22.65
17.97
13.38
9.45
6.34
3.85
1.50
-1.08
-4.01
-7.12
-10.08
-12.70
-14.96
-17.01
-18.95
-20.79
-22.58
-24.61
-27.39
-31.49
-37.02
-43.32
-48.91
-52.03
-51.36
-46.60
-38.53
-28.66
-18.47
-8.94
-0.39
7.28
14.25
20.47
25.74
29.78
32.45
33.87
34.30
34.06
33.47
32.78
32.21
31.92
32.10
32.85
34.17
35.94
37.87
39.53
40.43
40.03
37.93
33.98
28.37
21.68
14.67
8.06
2.22
-2.88
-7.62
-12.41
-17.46
-22.70
-27.82
-32.55
-36.83
-40.84
-44.91
-49.34
-54.33
-59.91
-65.92
-71.97
-77.28
-80.80
-81.38
-78.15
-70.93
-60.30
-47.51
-34.02
-21.10
-9.50
0.46
8.77
15.40
20.30
23.37
24.65
24.41
23.14
21.48
20.04
19.24
19.25
19.99
21.21
22.61
23.94
25.05
25.82
26.17
25.95
25.01
23.18
20.38
16.60
11.90
6.44
0.44
-5.82
-12.07
-18.08
-23.69
-28.86
-33.63
-38.19
-42.79
-47.82
-53.64
-60.45
-68.02
-75.54
-81.67
-84.85
-83.77
-77.85
-67.44
-53.72
-38.33
-22.89
-8.65
3.65
13.70
21.49
27.11
30.68
32.36
32.39
31.13
29.08
26.86
25.02
24.02
24.05
24.99
26.49
28.08
29.40
30.24
30.58
30.47
29.89
28.77
26.97
24.34
20.81
16.33
10.91
4.64
-2.26
-9.33
-16.02
-21.75
-26.24
-29.64
-32.53
-35.82
-40.49
-47.20
-56.11
-66.63
-77.38
-86.43
-91.62
-91.16
-84.15
-70.92
-52.92
-32.42
-11.79
6.95
22.56
34.65
43.40
49.38
53.21
55.38
56.29
56.20
55.39
54.17
52.93
52.01
51.68
52.04
53.07
54.68
56.69
58.87
60.86
62.16
62.22
60.57
57.04
51.83
45.45
38.57
31.70
25.04
18.48
11.69
4.41
-3.42
-11.58
-19.67
-27.28
-34.19
-40.44
-46.31
-52.29
-58.97
-66.79
-75.77
-85.25
-93.79
-99.40
-100.06
-94.41
-82.33
-65.00
-44.57
-23.44
-3.57
13.84
28.38
40.05
48.97
55.20
58.76
59.80
58.71
56.19
53.07
50.25
48.44
48.08
49.22
51.58
54.57
57.51
59.75
60.85
60.59
58.96
56.07
52.05
47.06
41.28
34.92
28.29
21.69
15.35
9.37
3.71
-1.72
-7.01
-12.17
-17.25
-22.44
-28.15
-34.91
-43.11
-52.58
-62.41
-70.87
-75.87
-75.62
-69.17
-56.83
-39.99
-20.76
-1.34
16.48
31.60
43.57
52.41
58.39
61.77
62.83
61.89
59.40
55.96
52.32
49.18
47.08
46.21
46.43
47.40
48.67
49.86
50.66
50.83
50.11
48.31
45.29
41.01
35.64
29.42
22.62
15.47
8.10
0.60
-6.98
-14.51
-21.81
-28.67
-34.99
-40.84
-46.53
-52.59
-59.60
-67.93
-77.41
-87.08
-95.21
-99.65
-98.48
-90.66
-76.49
-57.54
-36.17
-14.79
4.75
21.49
35.12
45.68
53.22
57.70
59.16
57.98
54.94
51.10
47.54
45.07
44.04
44.37
45.71
47.58
49.53
51.17
52.23
52.55
52.03
50.62
48.24
44.78
40.13
34.31
27.48
20.02
12.38
4.96
-2.04
-8.65
-15.06
-21.55
-28.36
-35.69
-43.66
-52.24
-61.10
-69.46
-76.08
-79.43
-78.21
-71.75
-60.36
-45.28
-28.29
-11.19
4.58
18.15
29.16
37.46
43.07
46.03
46.60
45.23
42.68
39.80
37.32
35.69
34.95
34.85
35.00
35.09
34.99
34.75
34.44
33.98
33.10
31.40
28.51
24.27
18.84
12.60
6.08
-0.27
-6.17
-11.61
-16.82
-22.17
-28.09
-34.87
-42.56
-50.74
-58.49
-64.48
-67.28
-65.74
-59.42
-48.76
-34.93
-19.55
-4.26
9.63
21.30
30.36
36.73
40.54
42.08
41.74
40.05
37.57
34.81
32.20
30.06
28.51
27.56
27.10
26.95
26.95
26.91
26.67
26.04
24.79
22.64
19.36
14.83
9.18
2.84
-3.66
-9.76
-15.13
-19.78
-24.02
-28.37
-33.38
-39.40
-46.40
-53.89
-60.86
-66.02
-68.10
-66.19
-60.06
-50.23
-37.86
-24.31
-10.92
1.30
11.72
19.97
25.86
29.38
30.65
29.99
27.91
25.04
22.02
19.37
17.43
16.32
15.98
16.22
16.82
17.60
18.41
19.07
19.36
18.94
17.46
14.66
10.55
5.43
-0.15
-5.60
-10.45
-14.58
-18.19
-21.74
-25.75
-30.64
-36.50
-42.98
-49.30
-54.38
-57.07
-56.53
-52.42
-45.04
-35.23
-24.14
-12.93
-2.58
6.27
13.26
18.23
21.17
22.14
21.33
19.12
16.07
12.87
10.20
8.48
7.80
7.91
8.45
9.08
9.68
10.21
10.59
10.59
9.79
7.84
4.64
0.51
-3.93
-8.04
-11.46
-14.18
-16.55
-19.10
-22.36
-26.66
-32.08
-38.25
-44.40
-49.39
-51.97
-51.18
-46.67
-38.88
-28.89
-18.04
-7.55
1.75
9.48
15.57
20.03
22.91
24.23
24.05
22.57
20.16
17.31
14.56
12.38
11.09
10.75
11.26
12.38
13.79
15.21
16.39
17.12
17.16
16.35
14.55
11.81
8.31
4.40
0.43
-3.26
-6.55
-9.54
-12.52
-15.96
-20.30
-25.78
-32.19
-38.81
-44.44
-47.73
-47.62
-43.68
-36.36
-26.81
-16.48
-6.73
1.58
8.10
12.91
16.19
18.10
18.68
17.98
16.19
13.69
11.05
8.84
7.41
6.83
6.86
7.12
7.28
7.18
6.84
6.35
5.74
4.86
3.44
1.25
-1.84
-5.69
-9.96
-14.28
-18.31
-21.88
-25.00
-27.80
-30.45
-33.21
-36.35
-40.10
-44.60
-49.57
-54.31
-57.68
-58.48
-55.87
-49.73
-40.72
-30.03
-18.92
-8.33
1.21
9.50
16.46
21.95
25.76
27.78
28.07
26.94
24.95
22.71
20.77
19.52
19.08
19.37
20.11
20.97
21.62
21.88
21.72
21.25
20.63
19.95
19.12
17.89
15.93
13.02
9.22
4.89
0.52
-3.41
-6.73
-9.58
-12.33
-15.39
-19.12
-23.72
-29.19
-35.31
-41.46
-46.68
-49.74
-49.50
-45.41
-37.72
-27.54
-16.46
-5.96
2.97
9.99
15.26
19.06
21.54
22.68
22.39
20.72
17.99
14.81
11.84
9.68
8.65
8.70
9.55
10.79
12.03
13.04
13.77
14.29
14.67
14.89
14.84
14.30
13.06
10.97
8.02
4.34
0.16
-4.21
-8.49
-12.45
-16.02
-19.25
-22.35
-25.64
-29.46
-34.01
-39.20
-44.49
-48.91
-51.25
-50.45
-45.99
-38.13
-27.87
-16.62
-5.76
3.70
11.29
16.91
20.65
22.60
22.84
21.53
18.99
15.79
12.63
10.17
8.89
8.92
10.07
11.84
13.69
15.11
15.88
16.04
15.84
15.54
15.25
14.86
14.07
12.59
10.28
7.30
4.02
0.83
-1.99
-4.45
-6.78
-9.40
-12.69
-16.90
-21.99
-27.63
-33.12
-37.55
-39.92
-39.41
-35.53
-28.39
-18.65
-7.36
4.24
15.06
24.32
31.62
36.81
39.91
40.96
40.04
37.39
33.47
28.98
24.75
21.54
19.73
19.32
19.86
20.70
21.28
21.32
20.81
19.99
19.03
17.90
16.32
13.89
10.34
5.68
0.32
-5.16
-10.19
-14.47
-18.06
-21.25
-24.46
-28.10
-32.46
-37.72
-43.84
-50.36
-56.37
-60.56
-61.53
-58.29
-50.69
-39.49
-26.20
-12.50
0.28
11.36
20.52
27.81
33.29
36.89
38.50
38.19
36.28
33.46
30.54
28.29
27.19
27.35
28.46
30.01
31.46
32.45
32.88
32.81
32.34
31.44
29.86
27.27
23.44
18.41
12.54
6.43
0.64
-4.47
-8.81
-12.57
-16.05
-19.57
-23.43
-27.90
-33.20
-39.34
-45.95
-52.14
-56.62
-58.02
-55.40
-48.62
-38.53
-26.57
-14.37
-3.19
6.34
14.13
20.36
25.20
28.67
30.67
31.24
30.57
29.11
27.38
25.86
24.86
24.42
24.43
24.63
24.81
24.84
24.72
24.53
24.34
24.06
23.45
22.16
19.85
16.39
11.95
6.96
1.99
-2.50
-6.31
-9.57
-12.66
-16.01
-19.98
-24.75
-30.27
-36.26
-42.12
-46.97
-49.82
-49.80
-46.45
-39.96
-31.15
-21.19
-11.24
-2.17
5.63
12.05
17.11
20.75
22.84
23.29
22.22
20.05
17.47
15.23
13.91
13.75
14.57
15.92
17.29
18.30
18.83
18.99
18.94
18.81
18.50
17.75
16.21
13.61
9.88
5.30
0.37
-4.33
-8.40
-11.72
-14.53
-17.28
-20.42
-24.26
-28.79
-33.70
-38.37
-42.01
-43.75
-42.88
-39.00
-32.23
-23.19
-12.89
-2.48
7.02
14.92
20.90
24.92
27.17
27.91
27.49
26.29
24.77
23.36
22.39
22.01
22.11
22.45
22.77
22.87
22.72
22.37
21.87
21.19
20.11
18.38
15.84
12.48
8.56
4.44
0.47
-3.15
-6.48
-9.78
-13.42
-17.72
-22.81
-28.44
-33.91
-38.25
-40.36
-39.45
-35.31
-28.40
-19.74
-10.55
-1.89
5.57
11.59
16.19
19.45
21.41
22.11
21.65
20.33
18.58
16.92
15.78
15.38
15.64
16.23
16.73
16.81
16.32
15.39
14.26
13.16
12.19
11.18
9.83
7.81
4.98
1.39
-2.69
-6.91
-11.03
-14.93
-18.61
-22.13
-25.55
-28.92
-32.33
-35.92
-39.66
-43.28
-46.12
-47.25
-45.78
-41.24
-33.85
-24.48
-14.38
-4.78
3.51
10.13
15.19
18.95
21.66
23.46
24.41
24.55
24.06
23.18
22.27
21.62
21.43
21.72
22.42
23.34
24.31
25.13
25.57
25.36
24.31
22.39
19.79
16.91
14.27
12.32
11.23
10.83
10.67
10.15
8.78
6.31
2.88
-1.09
-5.07
-8.64
-11.73
-14.59
-17.72
-21.58
-26.38
-31.81
-37.13
-41.20
-42.97
-41.73
-37.41
-30.62
-22.44
-14.06
-6.45
-0.13
4.85
8.67
11.56
13.65
14.95
15.43
15.15
14.34
13.36
12.56
12.17
12.19
12.40
12.52
12.43
12.33
12.71
14.16
16.93
20.70
24.57
27.30
27.83
25.78
21.54
16.18
10.94
6.73
3.93
2.24
1.09
-0.09
-1.65
-3.69
-6.17
-9.09
-12.40
-15.95
-19.38
-22.23
-24.18
-25.43
-26.67
-28.74
-32.05
-36.15
-39.79
-41.43
-39.98
-35.32
-28.25
-20.03
-11.79
-4.13
2.78
8.96
14.33
18.63
21.54
22.93
22.97
22.03
20.62
19.23
18.19
17.62
17.46
17.51
17.60
17.60
17.53
17.50
17.61
17.83
17.92
17.55
16.38
14.23
11.19
7.64
4.10
1.10
-1.07
-2.49
-3.57
-4.86
-6.82
-9.57
-12.83
-16.10
-18.84
-20.80
-22.04
-22.91
-23.87
-25.31
-27.51
-30.57
-34.36
-38.47
-42.14
-44.37
-44.25
-41.17
-35.15
-26.83
-17.41
-8.10
0.15
6.94
12.25
16.22
18.92
20.30
20.29
18.98
16.69
14.01
11.59
9.90
8.94
8.47
8.13
7.65
6.89
5.89
4.83
3.85
2.96
1.68
-0.35
-3.24
-6.87
-11.07
-15.69
-20.53
-25.42
-30.21
-35.42
-41.23
-47.35
-53.35
-59.13
-64.80
-70.46
-76.00
-81.28
-87.15
-93.96
-101.51
-109.35
-117.29
-124.99
-131.45
-134.91
-133.36
-126.46
-114.08
-96.43
-74.63
-50.88
-27.56
-6.08
13.37
39.19
71.98
105.63
132.94
151.31
162.58
169.83
174.92
177.72
177.02
170.89
160.16
148.68
140.99
139.47
142.94
148.14
151.21
149.60
142.22
130.69
118.58
109.07
103.11
99.43
95.86
90.63
82.99
73.91
64.27
54.68
44.52
32.01
15.43
-5.29
-28.20
-50.13
-68.56
-82.75
-93.87
-104.60
-117.98
-135.92
-158.08
-181.82
-202.67
-215.77
-217.48
-206.54
-184.81
-156.85
-128.34
-104.21
-87.14
-77.07
-71.85
-68.58
-64.63
-58.53
-50.01
-39.68
-28.60
-17.85
-8.15
0.09
6.70
11.64
14.93
16.71
17.34
17.33
17.21
17.27
17.36
16.99
15.55
12.54
7.83
1.73
-5.20
-12.26
-18.86
-24.70
-29.73
-34.20
-38.46
-42.84
-47.51
-52.49
-57.68
-63.03
-68.68
-74.95
-82.14
-90.14
-98.18
-104.71
-107.79
-105.71
-97.62
-83.88
-65.93
-45.71
-25.00
-5.07
13.38
29.90
44.02
55.18
62.90
67.15
68.47
67.92
66.68
65.66
65.26
65.40
65.79
66.26
66.92
68.03
69.79
72.07
74.30
75.71
75.55
73.48
69.62
64.47
58.61
52.47
46.19
39.64
32.59
24.82
16.29
7.18
-2.19
-11.38
-19.96
-27.62
-34.35
-40.46
-46.66
-53.75
-62.27
-72.05
-81.95
-89.98
-93.77
-91.37
-81.88
-65.82
-44.95
-21.67
1.62
23.04
41.41
56.18
67.18
74.45
78.22
78.92
77.23
74.03
70.30
66.90
64.41
63.02
62.56
62.64
62.87
62.94
62.70
62.09
61.06
59.46
57.10
53.77
49.33
43.71
36.99
29.33
21.00
12.37
3.81
-4.31
-11.76
-18.48
-24.61
-30.43
-36.34
-42.83
-50.38
-59.19
-68.95
-78.57
-86.20
-89.62
-86.93
-77.22
-60.96
-39.94
-16.72
6.11
26.59
43.62
56.89
66.56
72.97
76.44
77.28
75.94
73.09
69.54
66.13
63.48
61.93
61.40
61.58
62.08
62.51
62.63
62.24
61.20
59.33
56.48
52.60
47.71
41.90
35.27
27.90
19.89
11.38
2.66
-5.96
-14.17
-21.77
-28.74
-35.22
-41.50
-48.00
-55.21
-63.57
-73.22
-83.67
-93.59
-100.91
-103.31
-99.03
-87.49
-69.62
-47.53
-23.90
-1.20
18.87
35.41
48.23
57.40
63.14
65.75
65.73
63.82
61.01
58.21
56.12
55.02
54.80
55.12
55.69
56.35
57.13
58.11
59.21
60.11
60.31
59.21
56.42
51.84
45.75
38.70
31.36
24.24
17.59
11.31
5.02
-1.65
-8.90
-16.60
-24.35
-31.62
-38.02
-43.52
-48.48
-53.65
-59.89
-67.86
-77.60
-88.23
-97.94
-104.39
-105.34
-99.39
-86.50
-67.94
-45.93
-22.90
-0.94
18.54
34.76
47.43
56.54
62.21
64.78
64.79
63.00
60.28
57.54
55.47
54.46
54.53
55.39
56.60
57.80
58.81
59.62
60.24
60.51
60.06
58.33
54.89
49.62
42.82
35.15
27.35
19.98
13.27
7.07
0.98
-5.37
-12.13
-19.20
-26.28
-33.02
-39.22
-44.86
-50.07
-55.10
-60.32
-66.15
-72.93
-80.70
-88.82
-95.89
-99.96
-99.05
-91.91
-78.52
-60.18
-39.07
-17.61
2.20
19.12
32.68
42.91
50.10
54.59
56.75
56.96
55.74
53.66
51.37
49.49
48.46
48.46
49.34
50.72
52.14
53.21
53.75
53.72
53.14
52.01
50.21
47.59
44.05
39.58
34.34
28.49
22.21
15.57
8.63
1.49
-5.66
-12.50
-18.72
-24.08
-28.63
-32.67
-36.77
-41.57
-47.57
-54.84
-62.72
-69.87
-74.48
-74.83
-69.83
-59.45
-44.75
-27.49
-9.66
7.07
21.63
33.47
42.41
48.40
51.44
51.59
49.12
44.56
38.71
32.49
26.80
22.37
19.56
18.39
18.55
19.59
21.02
22.51
23.85
24.94
25.59
25.42
23.95
20.72
15.60
8.90
1.37
-6.10
-12.80
-18.45
-23.20
-27.47
-31.69
-36.18
-41.13
-46.62
-52.58
-58.68
-64.21
-68.09
-69.08
-66.22
-59.11
-48.22
-34.68
-20.00
-5.65
7.31
18.30
27.16
33.91
38.57
41.07
41.31
39.44
35.97
31.79
27.98
25.43
24.52
25.05
26.34
27.59
28.23
28.06
27.23
26.02
24.62
23.02
20.98
18.19
14.41
9.59
3.87
-2.43
-8.94
-15.33
-21.35
-26.91
-32.02
-36.86
-41.76
-47.09
-53.11
-59.72
-66.34
-71.87
-74.96
-74.43
-69.65
-60.81
-48.85
-35.16
-21.17
-8.05
3.48
13.08
20.65
26.21
29.82
31.63
31.87
30.87
29.07
26.94
24.95
23.47
22.69
22.61
23.08
23.79
24.43
24.77
24.69
24.13
23.07
21.37
18.83
15.27
10.63
5.10
-0.90
-6.83
-12.20
-16.78
-20.60
-23.94
-27.22
-30.94
-35.51
-41.18
-47.85
-54.92
-61.32
-65.67
-66.72
-63.72
-56.73
-46.58
-34.59
-22.19
-10.52
-0.30
8.16
14.74
19.48
22.41
23.67
23.51
22.35
20.71
19.13
18.03
17.65
17.97
18.82
19.90
20.93
21.69
22.06
21.97
21.38
20.18
18.22
15.36
11.57
7.03
2.08
-2.84
-7.38
-11.36
-14.83
-18.06
-21.40
-25.19
-29.68
-34.85
-40.37
-45.55
-49.47
-51.19
-50.02
-45.77
-38.78
-29.77
-19.71
-9.52
0.04
8.41
15.19
20.09
23.01
23.98
23.27
21.37
18.93
16.60
14.90
14.09
14.13
14.74
15.54
16.21
16.62
16.76
16.70
16.41
15.74
14.47
12.38
9.44
5.80
1.77
-2.30
-6.17
-9.75
-13.14
-16.48
-19.97
-23.76
-27.96
-32.57
-37.39
-41.95
-45.51
-47.20
-46.29
-42.44
-35.85
-27.22
-17.52
-7.77
1.23
9.00
15.30
20.07
23.33
25.10
25.47
24.63
22.93
20.84
18.80
17.18
16.15
15.72
15.75
16.06
16.51
16.94
17.25
17.32
17.07
16.42
15.34
13.82
11.88
9.52
6.78
3.66
0.23
-3.42
-7.16
-10.82
-14.20
-17.16
-19.69
-21.92
-24.13
-26.67
-29.90
-33.99
-38.82
-43.91
-48.40
-51.28
-51.62
-48.89
-43.12
-34.92
-25.26
-15.16
-5.51
3.07
10.18
15.58
19.15
20.89
21.01
19.88
17.99
15.88
14.00
12.65
11.96
11.91
12.40
13.36
14.74
16.44
18.33
20.07
21.25
21.43
20.34
18.02
14.82
11.23
7.71
4.49
1.58
-1.19
-4.01
-7.00
-10.14
-13.30
-16.36
-19.25
-21.93
-24.46
-26.90
-29.40
-32.18
-35.41
-39.17
-43.26
-47.08
-49.71
-50.15
-47.69
-42.16
-34.09
-24.44
-14.41
-4.97
3.24
9.95
15.09
18.67
20.71
21.26
20.53
18.94
17.03
15.34
14.26
13.89
14.15
14.81
15.70
16.69
17.76
18.81
19.69
20.12
19.83
18.63
16.55
13.81
10.73
7.59
4.53
1.51
-1.62
-4.98
-8.56
-12.23
-15.77
-19.01
-21.89
-24.49
-27.00
-29.69
-32.77
-36.37
-40.41
-44.55
-48.13
-50.24
-50.01
-46.86
-40.80
-32.43
-22.76
-12.81
-3.39
5.07
12.37
18.38
22.91
25.74
26.78
26.20
24.49
22.32
20.32
18.93
18.28
18.28
18.72
19.41
20.24
21.15
22.06
22.84
23.26
23.03
21.95
19.94
17.16
13.90
10.49
7.18
4.07
1.11
-1.84
-4.86
-7.92
-10.87
-13.49
-15.66
-17.38
-18.87
-20.49
-22.62
-25.62
-29.70
-34.90
-40.97
-47.33
-53.00
-56.80
-57.62
-54.77
-48.22
-38.66
-27.22
-15.17
-3.55
7.02
16.22
23.92
30.01
34.33
36.79
37.45
36.59
34.65
32.18
29.73
27.74
26.47
26.01
26.27
27.05
28.15
29.38
30.60
31.64
32.28
32.25
31.28
29.23
26.18
22.43
18.40
14.50
10.95
7.76
4.77
1.75
-1.50
-5.02
-8.76
-12.59
-16.33
-19.90
-23.26
-26.48
-29.70
-33.11
-36.93
-41.33
-46.32
-51.54
-56.22
-59.31
-59.71
-56.69
-50.14
-40.62
-29.17
-16.98
-5.12
5.64
14.79
22.00
27.08
29.97
30.79
29.90
27.88
25.40
23.11
21.51
20.80
20.95
21.74
22.94
24.34
25.79
27.18
28.33
29.04
29.05
28.21
26.52
24.09
21.17
18.03
14.89
11.82
8.78
5.58
2.07
-1.84
-6.02
-10.19
-14.03
-17.31
-19.98
-22.22
-24.35
-26.71
-29.60
-33.21
-37.56
-42.36
-46.97
-50.39
-51.56
-49.61
-44.26
-35.93
-25.56
-14.33
-3.29
6.88
15.81
23.30
29.15
33.11
34.95
34.60
32.34
28.75
24.66
20.92
18.21
16.91
16.99
18.17
20.00
21.98
23.73
25.00
25.62
25.51
24.66
23.05
20.73
17.76
14.27
10.38
6.19
1.79
-2.73
-7.26
-11.63
-15.71
-19.37
-22.63
-25.67
-28.79
-32.37
-36.70
-41.78
-47.18
-51.99
-55.01
-55.09
-51.54
-44.36
-34.34
-22.76
-11.01
-0.15
9.21
16.92
23.02
27.55
30.41
31.54
31.03
29.24
26.80
24.43
22.67
21.80
21.77
22.39
23.41
24.66
26.03
27.36
28.42
28.87
28.42
26.93
24.45
21.21
17.51
13.57
9.52
5.41
1.24
-2.97
-7.15
-11.23
-15.15
-18.86
-22.34
-25.65
-28.98
-32.67
-37.08
-42.40
-48.34
-54.07
-58.28
-59.66
-57.29
-51.06
-41.67
-30.36
-18.41
-6.82
3.79
13.13
21.01
27.20
31.48
33.76
34.24
33.39
31.86
30.27
29.03
28.29
27.97
27.93
28.07
28.47
29.21
30.36
31.71
32.88
33.35
32.70
30.77
27.73
24.03
20.12
16.38
12.91
9.62
6.26
2.63
-1.35
-5.58
-9.85
-13.89
-17.54
-20.82
-23.90
-27.12
-30.84
-35.34
-40.66
-46.48
-52.12
-56.60
-58.86
-58.06
-53.88
-46.64
-37.21
-26.78
-16.46
-7.02
1.17
8.05
13.69
18.16
21.49
23.69
24.89
25.34
25.33
25.18
25.15
25.35
25.78
26.37
27.08
27.87
28.79
29.83
30.95
31.97
32.57
32.37
31.05
28.51
24.95
20.83
16.68
12.94
9.74
6.88
3.98
0.66
-3.21
-7.51
-11.88
-15.99
-19.64
-22.89
-25.93
-29.07
-32.57
-36.65
-41.39
-46.73
-52.32
-57.47
-61.19
-62.45
-60.47
-55.07
-46.73
-36.45
-25.37
-14.48
-4.40
4.51
12.05
18.03
22.23
24.53
25.09
24.28
22.75
21.13
19.93
19.43
19.68
20.61
22.07
23.93
26.06
28.25
30.17
31.49
31.88
31.16
29.40
26.84
23.80
20.54
17.14
13.54
9.67
5.48
1.08
-3.35
-7.63
-11.64
-15.39
-18.95
-22.44
-26.01
-29.85
-34.17
-39.11
-44.60
-50.20
-55.05
-58.05
-58.18
-54.82
-48.03
-38.52
-27.42
-15.92
-5.01
4.72
12.96
19.61
24.57
27.80
29.34
29.42
28.45
26.98
25.56
24.62
24.44
25.10
26.53
28.57
30.97
33.44
35.66
37.30
38.04
37.63
35.96
33.10
29.36
25.14
20.94
17.05
13.57
10.29
6.86
2.92
-1.68
-6.82
-12.19
-17.35
-22.00
-26.04
-29.59
-32.99
-36.62
-40.89
-46.09
-52.29
-59.16
-65.88
-71.23
-73.85
-72.66
-67.20
-57.87
-45.70
-32.04
-18.14
-4.96
6.87
16.99
25.11
31.07
34.86
36.73
37.18
36.86
36.35
36.09
36.31
37.02
38.17
39.64
41.37
43.30
45.36
47.39
49.08
50.06
49.98
48.59
45.86
42.02
37.48
32.72
28.19
24.16
20.68
17.62
14.67
11.53
7.96
3.87
-0.64
-5.35
-10.07
-14.63
-18.96
-23.06
-26.97
-30.81
-34.83
-39.40
-44.88
-51.37
-58.46
-65.12
-69.90
-71.35
-68.50
-61.19
-50.12
-36.49
-21.69
-6.93
6.86
19.00
29.01
36.55
41.50
44.01
44.50
43.57
41.95
40.26
38.99
38.44
38.70
39.70
41.24
43.05
44.85
46.36
47.32
47.56
47.01
45.69
43.74
41.34
38.62
35.61
32.27
28.53
24.42
20.07
15.72
11.59
7.77
4.20
0.75
-2.74
-6.28
-9.81
-13.26
-16.63
-20.03
-23.63
-27.53
-31.77
-36.31
-41.20
-46.55
-52.48
-58.88
-65.17
-70.35
-73.15
-72.51
-67.91
-59.58
-48.39
-35.50
-22.03
-8.90
3.23
13.82
22.38
28.58
32.32
33.84
33.72
32.67
31.35
30.21
29.46
29.11
29.13
29.52
30.33
31.62
33.39
35.48
37.60
39.38
40.41
40.41
39.19
36.78
33.34
29.21
24.80
20.50
16.58
13.10
9.89
6.66
3.16
-0.69
-4.67
-8.47
-11.75
-14.42
-16.70
-18.98
-21.74
-25.30
-29.78
-35.07
-40.81
-46.39
-50.96
-53.53
-53.19
-49.40
-42.23
-32.37
-20.97
-9.28
1.66
11.23
19.08
24.94
28.43
29.11
26.78
21.78
15.21
8.68
3.78
1.50
1.87
4.00
6.62
8.66
9.72
10.08
10.35
10.98
12.01
13.04
13.55
13.19
11.90
9.87
7.36
4.52
1.36
-2.18
-6.12
-10.29
-14.41
-18.20
-21.50
-24.46
-27.47
-31.04
-35.53
-40.87
-46.41
-51.02
-53.46
-52.76
-48.65
-41.54
-32.35
-22.17
-11.94
-2.29
6.35
13.73
19.64
23.97
26.69
27.96
28.04
27.32
26.16
24.91
23.83
23.13
22.90
23.14
23.76
24.57
25.40
26.03
26.30
26.04
25.17
23.66
21.56
18.95
15.95
12.61
8.97
5.03
0.84
-3.45
-7.64
-11.55
-15.06
-18.20
-21.12
-24.02
-27.08
-30.49
-34.43
-39.05
-44.29
-49.74
-54.51
-57.45
-57.47
-53.94
-46.99
-37.44
-26.51
-15.45
-5.19
3.83
11.50
17.84
22.88
26.53
28.69
29.41
28.95
27.80
26.56
25.75
25.59
26.01
26.72
27.45
28.06
28.60
29.20
29.87
30.45
30.59
29.95
28.28
25.60
22.12
18.23
14.31
10.70
7.55
4.83
2.37
-0.13
-2.89
-6.00
-9.35
-12.69
-15.77
-18.46
-20.82
-23.05
-25.43
-28.21
-31.59
-35.66
-40.31
-45.17
-49.49
-52.29
-52.56
-49.70
-43.72
-35.33
-25.65
-15.80
-6.54
1.78
9.15
15.53
20.81
24.74
27.14
28.06
27.79
26.79
25.49
24.23
23.22
22.57
22.39
22.70
23.44
24.44
25.47
26.28
26.70
26.64
26.10
25.06
23.54
21.58
19.27
16.72
14.04
11.30
8.54
5.75
2.96
0.22
-2.39
-4.82
-7.07
-9.23
-11.37
-13.52
-15.62
-17.58
-19.39
-21.17
-23.17
-25.70
-29.00
-33.17
-37.98
-42.93
-47.24
-49.99
-50.37
-47.91
-42.67
-35.19
-26.43
-17.38
-8.86
-1.35
4.98
10.14
14.14
16.94
18.49
18.81
18.07
16.61
14.79
13.00
11.53
10.54
10.09
10.22
10.87
11.95
13.28
14.60
15.62
16.11
15.96
15.19
13.95
12.38
10.56
8.50
6.14
3.39
0.23
-3.25
-6.88
-10.40
-13.56
-16.14
-18.06
-19.37
-20.30
-21.24
-22.64
-24.79
-27.64
-30.66
-32.95
-33.47
-31.48
-26.79
-19.91
-11.81
-3.56
4.02
10.52
15.85
20.05
23.06
24.71
24.83
23.42
20.79
17.47
14.16
11.46
9.77
9.16
9.47
10.34
11.38
12.24
12.71
12.69
12.24
11.48
10.50
9.32
7.86
6.01
3.64
0.72
-2.65
-6.27
-9.93
-13.42
-16.65
-19.59
-22.27
-24.76
-27.17
-29.67
-32.45
-35.69
-39.31
-42.89
-45.67
-46.73
-45.28
-41.01
-34.22
-25.74
-16.65
-7.91
-0.15
6.37
11.63
15.69
18.62
20.44
21.20
21.05
20.29
19.27
18.36
17.78
17.63
17.80
18.11
18.38
18.48
18.42
18.24
17.98
17.60
16.98
15.94
14.33
12.07
9.16
5.74
2.05
-1.66
-5.10
-8.11
-10.66
-12.87
-14.99
-17.24
-19.78
-22.71
-26.09
-29.97
-34.36
-39.04
-43.46
-46.73
-47.86
-46.12
-41.35
-34.08
-25.35
-16.32
-7.92
-0.60
5.60
10.89
15.45
19.25
22.12
23.89
24.53
24.33
23.75
23.26
23.16
23.43
23.80
23.95
23.68
23.04
22.32
21.80
21.67
21.81
21.90
21.57
20.55
18.79
16.43
13.68
10.69
7.48
3.98
0.10
-4.11
-8.38
-12.35
-15.68
-18.20
-20.04
-21.57
-23.33
-25.86
-29.49
-34.12
-39.20
-43.73
-46.58
-46.84
-44.12
-38.68
-31.32
-23.01
-14.58
-6.54
0.89
7.63
13.56
18.49
22.21
24.63
25.82
26.06
25.66
24.98
24.28
23.74
23.43
23.33
23.39
23.57
23.91
24.44
25.13
25.81
26.16
25.80
24.48
22.19
19.22
15.97
12.79
9.83
7.01
4.11
0.94
-2.53
-6.19
-9.84
-13.30
-16.50
-19.44
-22.17
-24.83
-27.61
-30.77
-34.50
-38.79
-43.26
-47.10
-49.28
-48.93
-45.64
-39.69
-31.89
-23.31
-14.86
-7.06
-0.09
6.05
11.30
15.46
18.25
19.58
19.62
18.88
17.97
17.38
17.37
17.87
18.70
19.67
20.69
21.73
22.75
23.63
24.21
24.34
23.95
23.04
21.62
19.67
17.10
13.84
9.93
5.54
1.00
-3.32
-7.10
-10.22
-12.79
-15.12
-17.64
-20.72
-24.61
-29.32
-34.59
-39.90
-44.48
-47.43
-47.93
-45.46
-40.05
-32.30
-23.18
-13.80
-4.96
2.89
9.69
15.44
20.09
23.44
25.26
25.49
24.34
22.34
20.13
18.33
17.34
17.30
18.07
19.34
20.75
21.96
22.81
23.22
23.23
22.89
22.12
20.73
18.48
15.20
10.94
6.02
0.94
-3.77
-7.78
-10.99
-13.61
-16.01
-18.67
-22.05
-26.51
-32.16
-38.71
-45.31
-50.75
-53.69
-53.16
-48.87
-41.35
-31.68
-21.14
-10.81
-1.36
6.92
13.94
19.64
23.90
26.58
27.63
27.18
25.60
23.46
21.40
19.92
19.30
19.53
20.34
21.38
22.31
22.89
23.01
22.67
21.92
20.84
19.44
17.64
15.31
12.30
8.54
4.06
-0.93
-6.19
-11.44
-16.48
-21.22
-25.65
-29.83
-33.94
-38.23
-42.94
-48.17
-53.66
-58.73
-62.35
-63.41
-61.11
-55.22
-46.17
-34.95
-22.76
-10.72
0.38
10.10
18.27
24.81
29.67
32.82
34.30
34.38
33.51
32.27
31.21
30.74
30.96
31.75
32.81
33.87
34.72
35.30
35.61
35.64
35.29
34.33
32.50
29.55
25.40
20.18
14.23
8.02
2.03
-3.36
-8.04
-12.15
-16.02
-20.13
-24.92
-30.70
-37.47
-44.86
-52.08
-58.00
-61.43
-61.39
-57.43
-49.76
-39.26
-27.12
-14.58
-2.59
8.27
17.72
25.64
31.91
36.42
39.09
39.98
39.37
37.70
35.57
33.59
32.25
31.80
32.19
33.16
34.25
35.08
35.41
35.20
34.52
33.36
31.58
28.87
24.93
19.68
13.37
6.56
-0.04
-5.88
-10.72
-14.74
-18.38
-22.21
-26.66
-31.99
-38.18
-44.93
-51.61
-57.34
-61.06
-61.79
-58.90
-52.33
-42.62
-30.74
-17.86
-5.06
6.85
17.26
25.72
31.89
35.51
36.57
35.42
32.83
29.77
27.19
25.70
25.41
26.04
27.13
28.28
29.34
30.31
31.21
31.94
32.17
31.44
29.33
25.70
20.74
14.94
8.92
3.24
-1.77
-6.08
-9.95
-13.80
-18.14
-23.37
-29.60
-36.55
-43.44
-49.12
-52.29
-51.94
-47.59
-39.53
-28.66
-16.25
-3.53
8.51
19.28
28.45
35.83
41.21
44.43
45.46
44.51
42.11
39.06
36.14
33.98
32.88
32.72
33.20
33.90
34.54
34.93
35.01
34.71
33.96
32.62
30.55
27.62
23.79
19.13
13.81
8.14
2.42
-3.06
-8.15
-12.82
-17.16
-21.32
-25.49
-29.91
-34.88
-40.66
-47.21
-54.07
-60.23
-64.28
-64.91
-61.29
-53.43
-42.16
-28.84
-14.97
-1.72
10.13
20.20
28.33
34.44
38.53
40.74
41.42
41.08
40.28
39.50
39.01
38.89
39.08
39.46
39.97
40.56
41.18
41.70
41.90
41.54
40.41
38.39
35.46
31.78
27.57
23.11
18.60
14.16
9.78
5.33
0.72
-4.04
-8.77
-13.17
-17.00
-20.22
-23.10
-26.18
-30.08
-35.20
-41.49
-48.31
-54.49
-58.64
-59.56
-56.61
-49.92
-40.31
-28.95
-17.04
-5.51
5.02
14.20
21.80
27.61
31.47
33.40
33.64
32.74
31.36
30.13
29.45
29.38
29.70
30.09
30.30
30.27
30.10
29.95
29.84
29.61
28.94
27.58
25.44
22.65
19.52
16.29
13.07
9.80
6.36
2.63
-1.34
-5.38
-9.26
-12.74
-15.69
-18.10
-20.13
-22.05
-24.28
-27.25
-31.28
-36.38
-42.09
-47.44
-51.19
-52.15
-49.66
-43.78
-35.33
-25.57
-15.84
-7.09
0.16
5.90
10.27
13.44
15.45
16.30
16.06
14.94
13.34
11.76
10.65
10.29
10.71
11.71
12.93
14.01
14.70
14.90
14.68
14.14
13.39
12.44
11.23
9.65
7.62
5.12
2.22
-0.94
-4.15
-7.20
-9.91
-12.20
-14.10
-15.72
-17.32
-19.13
-21.41
-24.29
-27.75
-31.48
-34.86
-37.07
-37.29
-35.05
-30.33
-23.69
-16.01
-8.26
-1.18
4.82
9.64
13.32
15.89
17.33
17.59
16.71
14.96
12.76
10.66
9.11
8.41
8.55
9.32
10.35
11.29
11.86
11.99
11.70
11.09
10.28
9.32
8.17
6.68
4.69
2.13
-0.96
-4.34
-7.71
-10.83
-13.60
-16.09
-18.46
-20.84
-23.30
-25.90
-28.72
-31.86
-35.30
-38.74
-41.52
-42.74
-41.62
-37.79
-31.57
-23.82
-15.67
-8.15
-1.86
3.04
6.71
9.38
11.24
12.34
12.68
12.34
11.46
10.29
9.10
8.12
7.50
7.27
7.41
7.80
8.33
8.85
9.24
9.39
9.23
8.71
7.77
6.39
4.56
2.33
-0.21
-2.89
-5.57
-8.11
-10.51
-12.81
-15.08
-17.37
-19.64
-21.79
-23.77
-25.66
-27.68
-30.12
-33.07
-36.25
-38.98
-40.33
-39.50
-36.14
-30.53
-23.43
-15.80
-8.42
-1.79
3.93
8.71
12.50
15.18
16.68
17.00
16.37
15.14
13.73
12.48
11.56
11.00
10.76
10.78
11.02
11.48
12.10
12.73
13.19
13.23
12.72
11.64
10.11
8.35
6.55
4.80
3.06
1.17
-1.05
-3.69
-6.73
-9.97
-13.12
-15.91
-18.18
-19.95
-21.44
-22.96
-24.88
-27.52
-31.08
-35.46
-40.19
-44.39
-47.00
-47.05
-44.07
-38.29
-30.57
-22.10
-13.92
-6.65
-0.41
4.90
9.41
13.03
15.52
16.73
16.71
15.79
14.42
13.02
11.88
11.13
10.84
11.07
11.86
13.14
14.67
16.10
17.02
17.18
16.54
15.25
13.54
11.61
9.48
7.11
4.42
1.39
-1.93
-5.41
-8.92
-12.31
-15.47
-18.32
-20.81
-22.97
-25.01
-27.21
-29.97
-33.51
-37.75
-42.12
-45.70
-47.44
-46.59
-42.95
-36.88
-29.20
-20.82
-12.49
-4.65
2.44
8.55
13.40
16.63
18.00
17.56
15.75
13.34
11.18
9.94
9.88
10.84
12.35
13.87
15.08
15.92
16.53
17.09
17.61
17.90
17.61
16.40
14.15
10.94
7.10
3.04
-0.90
-4.48
-7.66
-10.54
-13.31
-16.18
-19.42
-23.24
-27.68
-32.51
-37.14
-40.71
-42.29
-41.18
-37.13
-30.42
-21.80
-12.19
-2.50
6.54
14.45
20.90
25.65
28.54
29.54
28.83
26.83
24.16
21.51
19.49
18.45
18.38
19.01
19.92
20.77
21.39
21.81
22.13
22.40
22.48
22.10
20.86
18.46
14.78
10.02
4.62
-0.88
-5.99
-10.44
-14.23
-17.55
-20.71
-24.07
-27.95
-32.55
-37.83
-43.40
-48.44
-51.85
-52.49
-49.61
-43.13
-33.67
-22.41
-10.66
0.49
10.36
18.69
25.44
30.63
34.24
36.25
36.76
36.10
34.82
33.56
32.81
32.78
33.32
34.03
34.53
34.58
34.22
33.62
33.01
32.46
31.86
30.95
29.42
27.02
23.69
19.58
14.96
10.16
5.48
1.11
-2.86
-6.43
-9.66
-12.73
-15.95
-19.74
-24.44
-30.08
-36.18
-41.69
-45.31
-45.84
-42.68
-36.00
-26.64
-15.84
-4.78
5.66
14.99
22.99
29.54
34.49
37.73
39.25
39.31
38.33
36.85
35.33
34.07
33.17
32.64
32.46
32.63
33.10
33.76
34.35
34.54
34.05
32.74
30.69
28.11
25.26
22.31
19.32
16.19
12.83
9.17
5.25
1.21
-2.77
-6.52
-9.94
-12.99
-15.73
-18.30
-20.99
-24.17
-28.15
-33.00
-38.33
-43.26
-46.60
-47.26
-44.60
-38.74
-30.41
-20.74
-10.82
-1.46
6.88
14.00
19.73
23.90
26.37
27.14
26.44
24.75
22.68
20.78
19.46
18.91
19.12
19.97
21.22
22.60
23.84
24.72
25.09
24.90
24.15
22.86
20.99
18.53
15.46
11.92
8.17
4.51
1.18
-1.73
-4.32
-6.78
-9.23
-11.70
-14.13
-16.51
-18.97
-21.78
-25.18
-29.07
-32.89
-35.70
-36.46
-34.47
-29.64
-22.53
-14.16
-5.53
2.57
9.75
15.87
20.89
24.66
26.99
27.73
26.91
24.86
22.12
19.34
17.12
15.85
15.64
16.30
17.47
18.73
19.69
20.08
19.82
18.97
17.69
16.15
14.45
12.57
10.40
7.78
4.66
1.08
-2.76
-6.61
-10.23
-13.49
-16.36
-18.90
-21.23
-23.52
-26.00
-28.92
-32.47
-36.59
-40.78
-44.20
-45.79
-44.73
-40.75
-34.21
-25.99
-17.15
-8.53
-0.68
6.17
11.88
16.31
19.30
20.84
21.12
20.56
19.63
18.70
17.97
17.50
17.26
17.26
17.55
18.12
18.90
19.77
20.56
21.13
21.35
21.12
20.32
18.89
16.80
14.16
11.12
7.90
4.64
1.43
-1.68
-4.65
-7.44
-10.01
-12.41
-14.81
-17.50
-20.73
-24.69
-29.34
-34.44
-39.44
-43.60
-46.06
-46.09
-43.30
-37.83
-30.36
-21.91
-13.50
-5.87
0.67
6.18
10.81
14.60
17.37
18.87
18.94
17.72
15.65
13.38
11.47
10.28
9.88
10.09
10.65
11.30
11.89
12.32
12.57
12.55
12.18
11.36
10.05
8.25
6.06
3.64
1.14
-1.36
-3.87
-6.45
-9.20
-12.11
-15.03
-17.77
-20.17
-22.20
-24.07
-26.11
-28.67
-31.86
-35.40
-38.59
-40.45
-40.10
-37.08
-31.53
-24.16
-15.99
-7.96
-0.70
5.53
10.68
14.75
17.62
19.12
19.19
17.95
15.79
13.24
10.83
8.97
7.84
7.45
7.66
8.28
9.08
9.90
10.59
11.07
11.22
10.90
9.92
8.15
5.55
2.28
-1.34
-4.91
-8.06
-10.62
-12.67
-14.43
-16.23
-18.34
-21.00
-24.32
-28.33
-32.78
-37.12
-40.47
-41.83
-40.44
-36.06
-29.16
-20.75
-11.98
-3.75
3.52
9.75
15.03
19.33
22.44
24.09
24.16
22.82
20.57
18.08
15.96
14.60
14.14
14.46
15.32
16.46
17.64
18.72
19.59
20.19
20.50
20.46
20.02
19.06
17.47
15.15
12.09
8.44
4.54
0.80
-2.38
-4.73
-6.27
-7.26
-8.15
-9.39
-11.30
-13.93
-17.05
-20.31
-23.37
-26.08
-28.49
-30.86
-33.50
-36.71
-40.67
-45.36
-50.48
-55.41
-59.31
-61.23
-60.36
-56.29
-49.13
-39.54
-28.57
-17.40
-7.02
1.91
9.13
14.66
18.66
21.24
22.44
22.29
20.97
18.94
16.86
15.38
14.90
15.40
16.48
17.65
18.54
19.05
19.33
19.56
19.78
19.78
19.17
17.57
14.76
10.78
5.97
0.79
-4.32
-9.03
-13.21
-16.95
-20.41
-23.87
-27.67
-32.12
-37.38
-43.32
-49.33
-54.38
-57.23
-56.86
-52.83
-45.46
-35.71
-24.82
-13.92
-3.72
5.43
13.40
20.05
25.15
28.50
30.04
30.00
28.90
27.35
25.96
25.11
24.96
25.45
26.39
27.54
28.64
29.50
30.03
30.23
30.11
29.62
28.55
26.64
23.64
19.56
14.62
9.23
3.82
-1.35
-6.23
-10.88
-15.38
-19.75
-24.05
-28.39
-32.93
-37.73
-42.51
-46.50
-48.64
-47.91
-43.78
-36.43
-26.74
-15.92
-5.11
4.89
13.69
21.10
26.92
30.91
32.85
32.74
30.92
28.08
25.02
22.50
20.97
20.53
21.06
22.25
23.80
25.48
27.12
28.50
29.36
29.37
28.22
25.73
21.99
17.37
12.47
7.86
3.90
0.62
-2.30
-5.32
-8.87
-13.22
-18.38
-24.05
-29.65
-34.35
-37.21
-37.37
-34.30
-28.04
-19.24
-8.98
1.55
11.42
20.11
27.45
33.43
37.98
40.86
41.86
40.97
38.54
35.27
31.99
29.39
27.74
26.95
26.69
26.65
26.70
26.91
27.37
27.99
28.46
28.24
26.78
23.73
19.12
13.36
7.14
1.15
-4.11
-8.48
-12.13
-15.47
-18.97
-23.03
-27.88
-33.45
-39.37
-44.87
-48.93
-50.48
-48.70
-43.34
-34.84
-24.24
-12.84
-1.86
7.93
16.19
22.92
28.20
32.06
34.41
35.19
34.54
32.84
30.73
28.84
27.64
27.25
27.44
27.81
28.04
27.97
27.67
27.22
26.65
25.75
24.24
21.90
18.67
14.77
10.53
6.28
2.21
-1.61
-5.23
-8.70
-12.04
-15.31
-18.64
-22.32
-26.63
-31.67
-37.11
-42.15
-45.66
-46.49
-43.94
-38.01
-29.50
-19.61
-9.57
-0.22
8.07
15.30
21.51
26.59
30.28
32.34
32.78
31.96
30.47
28.95
27.86
27.37
27.34
27.56
27.79
27.88
27.81
27.59
27.24
26.72
25.91
24.63
22.72
20.01
16.48
12.17
7.29
2.13
-2.96
-7.64
-11.66
-14.89
-17.40
-19.48
-21.54
-24.08
-27.48
-31.79
-36.63
-41.19
-44.40
-45.27
-43.23
-38.34
-31.24
-22.92
-14.37
-6.31
0.87
7.02
12.03
15.74
17.99
18.70
18.06
16.55
14.77
13.33
12.58
12.58
13.10
13.85
14.54
15.09
15.54
15.96
16.36
16.60
16.38
15.43
13.59
10.91
7.65
4.13
0.65
-2.61
-5.58
-8.29
-10.80
-13.14
-15.39
-17.69
-20.24
-23.20
-26.57
-29.97
-32.75
-34.10
-33.39
-30.39
-25.38
-19.00
-12.03
-5.12
1.30
7.02
11.90
15.74
18.29
19.38
18.99
17.38
15.04
12.53
10.37
8.84
7.98
7.61
7.50
7.46
7.47
7.62
7.98
8.49
8.87
8.73
7.71
5.63
2.61
-0.95
-4.50
-7.54
-9.80
-11.32
-12.41
-13.54
-15.15
-17.54
-20.82
-24.88
-29.36
-33.66
-36.98
-38.42
-37.27
-33.29
-26.79
-18.67
-10.03
-1.92
5.03
10.63
14.97
18.23
20.46
21.61
21.59
20.49
18.57
16.31
14.18
12.59
11.71
11.44
11.57
11.80
11.95
11.89
11.64
11.22
10.60
9.71
8.44
6.72
4.52
1.93
-0.94
-3.91
-6.83
-9.60
-12.18
-14.64
-17.07
-19.56
-22.17
-24.95
-27.97
-31.32
-35.00
-38.77
-42.10
-44.13
-43.96
-41.04
-35.39
-27.72
-19.14
-10.74
-3.27
3.03
8.27
12.60
16.03
18.36
19.35
18.97
17.54
15.69
14.10
13.22
13.12
13.53
14.04
14.33
14.39
14.42
14.64
15.14
15.68
15.86
15.28
13.82
11.65
9.15
6.71
4.51
2.46
0.32
-2.13
-4.98
-8.09
-11.23
-14.14
-16.69
-18.86
-20.75
-22.51
-24.34
-26.44
-29.04
-32.28
-36.09
-40.04
-43.43
-45.34
-44.99
-42.00
-36.52
-29.16
-20.75
-12.12
-3.89
3.52
9.88
15.00
18.70
20.85
21.44
20.69
19.05
17.17
15.67
14.97
15.15
15.91
16.83
17.54
17.97
18.30
18.85
19.76
20.87
21.73
21.79
20.68
18.35
15.12
11.49
7.97
4.93
2.51
0.62
-0.95
-2.44
-4.08
-6.01
-8.30
-10.91
-13.77
-16.74
-19.72
-22.62
-25.41
-28.17
-31.09
-34.45
-38.50
-43.30
-48.56
-53.53
-57.20
-58.55
-56.89
-52.08
-44.56
-35.22
-25.11
-15.18
-6.08
1.80
8.29
13.29
16.71
18.51
18.75
17.69
15.83
13.75
12.01
10.97
10.73
11.17
12.08
13.30
14.72
16.18
17.52
18.48
18.85
18.53
17.60
16.27
14.74
13.07
11.18
8.86
5.94
2.43
-1.47
-5.44
-9.16
-12.44
-15.28
-17.85
-20.49
-23.53
-27.30
-31.84
-36.85
-41.56
-44.88
-45.70
-43.24
-37.42
-28.87
-18.73
-8.23
1.67
10.44
17.94
24.15
28.99
32.22
33.55
32.88
30.42
26.77
22.81
19.39
17.17
16.36
16.80
18.06
19.66
21.18
22.35
22.97
22.90
22.04
20.42
18.17
15.56
12.85
10.18
7.50
4.58
1.15
-2.94
-7.65
-12.71
-17.74
-22.41
-26.58
-30.37
-34.15
-38.35
-43.32
-49.02
-54.96
-60.16
-63.45
-63.74
-60.41
-53.49
-43.61
-31.82
-19.31
-7.11
4.01
13.58
21.36
27.27
31.32
33.65
34.48
34.14
33.05
31.60
30.21
29.16
28.64
28.70
29.29
30.31
31.64
33.12
34.50
35.47
35.69
34.92
33.11
30.41
27.15
23.63
20.04
16.36
12.48
8.30
3.83
-0.79
-5.38
-9.78
-13.96
-17.95
-21.86
-25.81
-30.02
-34.74
-40.12
-46.04
-51.86
-56.49
-58.61
-57.13
-51.64
-42.56
-30.99
-18.29
-5.66
6.11
16.60
25.57
32.84
38.16
41.41
42.70
42.42
41.18
39.62
38.25
37.38
37.04
37.12
37.44
37.89
38.48
39.26
40.28
41.41
42.29
42.44
41.38
38.92
35.26
30.89
26.44
22.34
18.70
15.30
11.80
7.95
3.73
-0.64
-4.88
-8.76
-12.21
-15.32
-18.23
-21.21
-24.55
-28.59
-33.59
-39.48
-45.72
-51.22
-54.63
-54.74
-51.00
-43.66
-33.74
-22.60
-11.51
-1.33
7.60
15.20
21.49
26.37
29.59
30.95
30.41
28.32
25.26
22.02
19.31
17.59
17.02
17.48
18.71
20.43
22.37
24.29
25.90
26.87
26.96
26.03
24.15
21.54
18.48
15.19
11.78
8.28
4.65
0.94
-2.71
-6.10
-9.00
-11.28
-13.04
-14.56
-16.32
-18.83
-22.39
-26.93
-31.85
-36.14
-38.62
-38.32
-34.80
-28.30
-19.62
-9.84
0.01
9.15
17.10
23.63
28.61
31.93
33.54
33.50
32.07
29.71
26.96
24.39
22.42
21.25
20.88
21.14
21.74
22.45
23.04
23.41
23.46
23.07
22.12
20.53
18.29
15.52
12.44
9.24
6.03
2.77
-0.65
-4.31
-8.18
-12.12
-15.91
-19.38
-22.48
-25.34
-28.23
-31.48
-35.33
-39.77
-44.39
-48.39
-50.73
-50.45
-47.04
-40.63
-31.97
-22.13
-12.19
-2.91
5.34
12.41
18.19
22.50
25.16
26.09
25.50
23.90
21.94
20.22
19.10
18.63
18.66
18.99
19.47
20.09
20.88
21.80
22.67
23.18
22.99
21.93
20.03
17.51
14.68
11.85
9.17
6.65
4.16
1.52
-1.40
-4.65
-8.16
-11.71
-15.05
-17.97
-20.39
-22.47
-24.52
-26.95
-30.10
-34.04
-38.47
-42.71
-45.79
-46.79
-45.04
-40.42
-33.38
-24.77
-15.56
-6.61
1.52
8.52
14.23
18.55
21.42
22.87
23.09
22.44
21.35
20.21
19.30
18.74
18.53
18.61
18.90
19.30
19.78
20.30
20.86
21.38
21.74
21.70
21.00
19.50
17.25
14.52
11.68
9.07
6.81
4.80
2.74
0.36
-2.43
-5.54
-8.68
-11.55
-13.94
-15.84
-17.38
-18.84
-20.55
-22.77
-25.74
-29.54
-34.01
-38.71
-42.90
-45.68
-46.21
-44.01
-39.12
-32.12
-23.91
-15.40
-7.28
0.10
6.60
12.11
16.46
19.36
20.60
20.15
18.34
15.77
13.14
11.08
9.92
9.66
10.08
10.84
11.71
12.56
13.36
14.05
14.48
14.42
13.66
12.10
9.90
7.38
4.93
2.86
1.26
-0.05
-1.40
-3.12
-5.40
-8.14
-11.04
-13.70
-15.82
-17.33
-18.43
-19.44
-20.70
-22.48
-24.93
-28.04
-31.63
-35.24
-38.11
-39.35
-38.21
-34.37
-28.13
-20.28
-11.86
-3.76
3.44
9.55
14.56
18.45
21.10
22.31
22.01
20.32
17.68
14.70
12.01
10.06
9.01
8.73
8.91
9.25
9.58
9.88
10.25
10.69
11.07
11.13
10.58
9.25
7.22
4.73
2.09
-0.44
-2.83
-5.17
-7.67
-10.49
-13.71
-17.29
-21.11
-25.03
-28.90
-32.59
-35.96
-38.92
-41.46
-43.75
-46.09
-48.77
-51.80
-54.69
-56.50
-56.06
-52.40
-45.12
-34.55
-21.60
-7.48
6.51
19.19
29.54
36.87
40.94
42.10
41.24
39.47
37.77
36.75
36.60
37.19
38.35
39.94
41.74
43.48
44.71
45.03
44.21
42.36
39.83
37.04
34.31
31.74
29.20
26.43
23.13
19.08
14.20
8.57
2.48
-3.67
-9.51
-14.75
-19.36
-23.44
-27.20
-30.75
-34.12
-37.24
-40.05
-42.66
-45.36
-48.58
-52.75
-58.07
-64.31
-70.77
-76.36
-79.84
-80.24
-77.10
-70.60
-61.51
-50.84
-39.62
-28.58
-18.20
-8.75
-0.41
6.57
11.98
15.67
17.67
18.24
17.88
17.20
16.82
17.15
18.33
20.23
22.49
24.75
26.71
28.28
29.47
30.38
31.04
31.41
31.31
30.52
28.85
26.25
22.90
19.14
15.37
11.92
8.90
6.18
3.44
0.35
-3.33
-7.62
-12.36
-17.29
-22.12
-26.61
-30.65
-34.29
-37.72
-41.34
-45.62
-51.05
-57.86
-65.82
-74.06
-81.16
-85.50
-85.72
-81.19
-72.23
-59.97
-45.94
-31.58
-17.96
-5.66
4.97
13.73
20.41
24.92
27.38
28.20
28.04
27.61
27.52
28.11
29.47
31.49
33.98
36.72
39.51
42.17
44.53
46.46
47.84
48.53
48.40
47.26
45.00
41.65
37.44
32.81
28.25
24.07
20.30
16.63
12.64
7.99
2.63
-3.15
-8.92
-14.28
-19.02
-23.19
-26.98
-30.68
-34.64
-39.20
-44.75
-51.51
-59.34
-67.52
-74.73
-79.31
-79.76
-75.17
-65.61
-52.00
-35.88
-18.87
-2.38
12.56
25.30
35.37
42.52
46.66
48.01
47.15
44.91
42.22
39.93
38.57
38.39
39.35
41.26
43.87
46.88
50.00
52.89
55.17
56.42
56.32
54.67
51.54
47.17
42.02
36.59
31.24
26.13
21.14
15.94
10.20
3.74
-3.31
-10.53
-17.40
-23.50
-28.74
-33.43
-38.23
-43.90
-51.06
-59.82
-69.62
-79.15
-86.58
-89.95
-87.82
-79.63
-65.94
-48.23
-28.48
-8.68
9.64
25.49
38.35
48.03
54.54
58.06
58.98
57.93
55.79
53.42
51.57
50.64
50.68
51.50
52.77
54.25
55.82
57.44
59.02
60.33
60.97
60.45
58.42
54.80
49.84
44.04
37.97
32.05
26.40
20.82
15.02
8.72
1.92
-5.09
-11.90
-18.10
-23.54
-28.34
-32.92
-37.83
-43.69
-50.97
-59.80
-69.75
-79.66
-87.72
-91.84
-90.25
-82.19
-68.22
-50.06
-30.07
-10.43
7.35
22.55
35.07
44.94
52.17
56.71
58.64
58.41
56.81
54.81
53.24
52.54
52.72
53.48
54.46
55.45
56.43
57.47
58.63
59.70
60.29
59.86
57.94
54.34
49.23
43.12
36.66
30.45
24.85
19.86
15.22
10.48
5.27
-0.58
-6.94
-13.46
-19.73
-25.41
-30.41
-34.93
-39.43
-44.56
-50.91
-58.79
-67.89
-77.15
-84.86
-89.08
-88.22
-81.56
-69.53
-53.50
-35.36
-16.96
0.23
15.28
27.68
37.21
43.84
47.69
49.09
48.57
46.83
44.60
42.53
41.11
40.58
40.97
42.07
43.64
45.35
46.98
48.32
49.18
49.34
48.61
46.77
43.77
39.70
34.83
29.56
24.24
19.06
14.03
8.97
3.73
-1.74
-7.29
-12.63
-17.46
-21.64
-25.26
-28.66
-32.31
-36.71
-42.22
-48.87
-56.23
-63.33
-68.78
-71.10
-69.11
-62.37
-51.34
-37.24
-21.70
-6.30
7.74
19.69
29.17
36.06
40.36
42.20
41.93
40.08
37.31
34.33
31.70
29.83
28.88
28.81
29.52
30.75
32.26
33.76
34.96
35.57
35.32
34.00
31.53
27.98
23.60
18.76
13.80
8.96
4.31
-0.22
-4.76
-9.40
-14.10
-18.72
-23.08
-27.07
-30.75
-34.39
-38.41
-43.20
-48.98
-55.50
-61.99
-67.25
-69.89
-68.85
-63.64
-54.62
-42.79
-29.52
-16.14
-3.69
7.20
16.22
23.24
28.23
31.20
32.31
31.88
30.42
28.54
26.86
25.80
25.52
25.92
26.76
27.78
28.83
29.83
30.74
31.39
31.52
30.77
28.90
25.94
22.18
18.11
14.15
10.49
7.04
3.50
-0.43
-4.85
-9.66
-14.56
-19.18
-23.27
-26.70
-29.57
-32.13
-34.82
-38.16
-42.61
-48.30
-54.82
-61.12
-65.69
-67.08
-64.34
-57.46
-47.31
-35.31
-22.97
-11.40
-1.25
7.26
14.11
19.28
22.77
24.66
25.20
24.83
24.05
23.29
22.77
22.56
22.57
22.71
22.96
23.37
24.03
25.03
26.32
27.69
28.78
29.13
28.36
26.29
23.04
19.04
14.87
11.06
7.86
5.21
2.76
0.08
-3.08
-6.71
-10.58
-14.35
-17.75
-20.69
-23.28
-25.74
-28.33
-31.34
-35.03
-39.57
-44.91
-50.57
-55.66
-58.95
-59.31
-56.08
-49.36
-40.01
-29.32
-18.62
-8.85
-0.49
6.33
11.65
15.46
17.70
18.41
17.88
16.58
15.06
13.80
13.01
12.69
12.67
12.83
13.12
13.61
14.32
15.21
16.06
16.62
16.63
15.89
14.36
12.13
9.39
6.43
3.50
0.75
-1.85
-4.43
-7.19
-10.20
-13.37
-16.42
-19.09
-21.20
-22.84
-24.27
-25.92
-28.24
-31.54
-35.88
-40.90
-45.77
-49.32
-50.36
-48.10
-42.44
-34.10
-24.31
-14.40
-5.34
2.40
8.79
13.94
17.88
20.43
21.38
20.71
18.68
15.90
13.09
10.87
9.64
9.44
10.10
11.30
12.74
14.17
15.42
16.31
16.61
16.13
14.76
12.56
9.78
6.73
3.69
0.76
-2.11
-5.10
-8.38
-11.99
-15.78
-19.50
-22.84
-25.60
-27.80
-29.69
-31.73
-34.41
-38.06
-42.58
-47.29
-51.10
-52.76
-51.39
-46.78
-39.44
-30.39
-20.72
-11.29
-2.58
5.20
11.88
17.24
20.97
22.89
23.08
21.95
20.11
18.20
16.66
15.70
15.34
15.51
16.05
16.87
17.84
18.80
19.56
19.88
19.58
18.54
16.77
14.36
11.52
8.42
5.19
1.87
-1.59
-5.27
-9.18
-13.28
-17.43
-21.42
-25.10
-28.44
-31.63
-35.00
-38.96
-43.82
-49.56
-55.73
-61.41
-65.42
-66.66
-64.42
-58.61
-49.84
-39.13
-27.66
-16.42
-6.07
3.01
10.69
16.87
21.51
24.61
26.29
26.80
26.49
25.73
24.81
23.96
23.39
23.24
23.63
24.57
25.93
27.36
28.47
28.84
28.24
26.64
24.26
21.41
18.38
15.28
12.08
8.60
4.70
0.32
-4.40
-9.20
-13.75
-17.85
-21.51
-24.98
-28.70
-33.15
-38.66
-45.23
-52.42
-59.26
-64.53
-66.96
-65.66
-60.41
-51.67
-40.48
-28.13
-15.80
-4.40
5.50
13.61
19.78
23.98
26.26
26.82
26.02
24.37
22.45
20.89
20.14
20.48
21.84
23.90
26.16
28.14
29.52
30.20
30.24
29.72
28.66
26.96
24.45
21.03
16.76
11.92
6.86
1.99
-2.40
-6.21
-9.57
-12.73
-16.03
-19.86
-24.54
-30.29
-37.08
-44.52
-51.74
-57.45
-60.24
-58.96
-53.21
-43.44
-30.87
-17.07
-3.47
8.92
19.55
28.20
34.70
38.90
40.69
40.22
38.00
34.89
31.89
29.84
29.19
29.91
31.56
33.53
35.29
36.56
37.28
37.55
37.39
36.67
35.12
32.44
28.48
23.40
17.58
11.56
5.79
0.52
-4.26
-8.73
-13.16
-17.77
-22.79
-28.40
-34.76
-41.84
-49.20
-55.90
-60.54
-61.70
-58.40
-50.51
-38.86
-24.95
-10.43
3.34
15.55
25.84
34.12
40.30
44.29
46.09
45.94
44.37
42.11
39.92
38.34
37.59
37.64
38.24
39.21
40.40
41.74
43.10
44.20
44.61
43.86
41.71
38.21
33.75
28.87
24.01
19.33
14.67
9.72
4.27
-1.67
-7.80
-13.68
-18.97
-23.56
-27.64
-31.68
-36.26
-41.92
-48.94
-57.10
-65.54
-72.86
-77.36
-77.53
-72.56
-62.59
-48.71
-32.65
-16.24
-1.00
12.14
22.86
31.22
37.46
41.82
44.50
45.71
45.79
45.24
44.61
44.38
44.79
45.79
47.12
48.44
49.56
50.45
51.21
51.88
52.38
52.41
51.59
49.59
46.30
41.91
36.84
31.65
26.77
22.43
18.57
14.88
10.87
6.11
0.31
-6.47
-13.82
-21.02
-27.26
-31.98
-35.03
-36.83
-38.16
-39.97
-43.12
-48.11
-55.07
-63.54
-72.54
-80.60
-85.96
-87.03
-82.74
-72.97
-58.55
-41.11
-22.55
-4.71
11.11
24.10
34.02
40.98
45.28
47.39
47.83
47.18
46.00
44.81
44.01
43.83
44.33
45.43
46.93
48.59
50.14
51.31
51.87
51.68
50.70
48.97
46.61
43.75
40.50
36.95
33.13
29.12
24.94
20.63
16.24
11.86
7.61
3.57
-0.23
-3.89
-7.60
-11.52
-15.70
-20.05
-24.35
-28.39
-32.08
-35.47
-38.81
-42.46
-46.81
-52.17
-58.57
-65.60
-72.27
-77.19
-78.84
-76.11
-68.70
-57.31
-43.31
-28.39
-13.96
-0.94
10.25
19.46
26.58
31.45
33.95
34.19
32.66
30.11
27.45
25.44
24.51
24.70
25.74
27.22
28.77
30.20
31.42
32.46
33.31
33.87
33.95
33.31
31.79
29.35
26.10
22.32
18.33
14.44
10.88
7.70
4.82
2.04
-0.90
-4.16
-7.75
-11.52
-15.19
-18.53
-21.43
-23.97
-26.37
-28.91
-31.89
-35.56
-40.09
-45.41
-51.11
-56.34
-59.96
-60.78
-57.99
-51.46
-41.80
-30.17
-17.87
-6.02
4.59
13.56
20.65
25.73
28.77
29.82
29.14
27.22
24.67
22.17
20.27
19.28
19.28
20.07
21.36
22.83
24.28
25.57
26.63
27.40
27.75
27.54
26.62
24.94
22.55
19.63
16.43
13.18
10.09
7.27
4.74
2.42
0.16
-2.22
-4.91
-8.04
-11.62
-15.54
-19.59
-23.46
-26.93
-29.86
-32.35
-34.70
-37.37
-40.87
-45.50
-51.09
-56.93
-61.75
-64.14
-62.96
-57.77
-49.02
-37.83
-25.64
-13.72
-2.92
6.33
13.88
19.69
23.70
25.93
26.49
25.73
24.11
22.17
20.40
19.16
18.64
18.88
19.77
21.04
22.42
23.65
24.60
25.21
25.49
25.42
24.93
23.93
22.32
20.09
17.33
14.16
10.79
7.40
4.12
1.04
-1.85
-4.64
-7.48
-10.52
-13.82
-17.31
-20.81
-24.13
-27.16
-29.90
-32.42
-34.78
-37.13
-39.66
-42.66
-46.42
-50.93
-55.69
-59.65
-61.45
-59.94
-54.62
-45.92
-34.98
-23.24
-11.99
-2.00
6.42
13.29
18.66
22.54
24.85
25.60
24.97
23.35
21.28
19.31
17.90
17.30
17.49
18.29
19.44
20.76
22.12
23.46
24.70
25.71
26.29
26.24
25.45
23.91
21.70
18.98
15.90
12.58
9.15
5.80
2.68
-0.07
-2.47
-4.66
-6.90
-9.44
-12.41
-15.77
-19.39
-23.08
-26.70
-30.16
-33.46
-36.68
-39.99
-43.67
-48.02
-53.17
-58.87
-64.33
-68.35
-69.67
-67.37
-61.29
-52.03
-40.75
-28.78
-17.21
-6.76
2.26
9.70
15.47
19.47
21.63
22.05
21.07
19.19
17.06
15.25
14.17
14.01
14.77
16.30
18.40
20.81
23.28
25.47
27.09
27.85
27.57
26.22
23.93
20.99
17.78
14.62
11.72
9.05
6.42
3.50
0.07
-3.89
-8.17
-12.36
-16.06
-19.05
-21.41
-23.51
-25.92
-29.15
-33.52
-38.94
-44.83
-50.16
-53.72
-54.40
-51.55
-45.22
-36.06
-25.13
-13.57
-2.30
8.01
16.93
24.15
29.39
32.46
33.37
32.40
30.11
27.22
24.46
22.43
21.46
21.62
22.74
24.50
26.53
28.55
30.33
31.73
32.62
32.82
32.11
30.34
27.53
23.92
19.93
16.00
12.39
9.09
5.83
2.21
-1.99
-6.74
-11.73
-16.50
-20.68
-24.17
-27.13
-29.95
-33.08
-36.94
-41.85
-47.84
-54.62
-61.39
-66.93
-69.77
-68.69
-63.10
-53.32
-40.51
-26.32
-12.34
0.28
10.99
19.71
26.57
31.72
35.16
36.92
37.16
36.24
34.75
33.34
32.49
32.44
33.11
34.24
35.57
36.92
38.24
39.57
40.85
41.90
42.41
42.02
40.47
37.71
33.96
29.67
25.33
21.34
17.82
14.65
11.46
7.89
3.72
-0.99
-5.92
-10.68
-14.93
-18.56
-21.70
-24.68
-27.90
-31.77
-36.63
-42.58
-49.39
-56.32
-62.19
-65.59
-65.30
-60.69
-51.99
-40.20
-26.72
-12.99
-0.09
11.34
20.98
28.72
34.50
38.31
40.27
40.67
39.98
38.76
37.54
36.74
36.55
36.93
37.70
38.60
39.43
40.13
40.74
41.32
41.86
42.16
41.89
40.75
38.58
35.46
31.72
27.76
23.88
20.27
16.94
13.80
10.74
7.66
4.46
1.04
-2.68
-6.67
-10.82
-14.91
-18.74
-22.19
-25.31
-28.32
-31.57
-35.48
-40.38
-46.26
-52.67
-58.60
-62.71
-63.68
-60.67
-53.64
-43.36
-31.13
-18.36
-6.21
4.57
13.59
20.70
25.87
29.15
30.70
30.81
29.92
28.51
27.07
25.96
25.41
25.47
26.01
26.82
27.71
28.56
29.39
30.21
30.95
31.39
31.22
30.12
27.99
24.93
21.29
17.47
13.83
10.52
7.53
4.68
1.72
-1.51
-5.06
-8.76
-12.29
-15.27
-17.45
-18.84
-19.78
-20.86
-22.79
-26.06
-30.77
-36.43
-42.03
-46.29
-47.99
-46.38
-41.40
-33.63
-24.09
-13.90
-3.98
5.09
12.96
19.41
24.23
27.25
28.42
27.91
26.14
23.70
21.21
19.13
17.71
16.98
16.87
17.27
18.11
19.35
20.89
22.50
23.80
24.35
23.83
22.20
19.68
16.70
13.68
10.88
8.29
5.70
2.86
-0.37
-3.90
-7.54
-10.98
-13.98
-16.48
-18.54
-20.44
-22.54
-25.28
-28.98
-33.74
-39.19
-44.56
-48.69
-50.41
-48.89
-43.94
-36.07
-26.36
-16.04
-6.19
2.49
9.67
15.29
19.36
21.91
23.01
22.86
21.81
20.35
18.97
18.02
17.62
17.69
18.02
18.42
18.81
19.24
19.76
20.35
20.81
20.85
20.20
18.71
16.48
13.75
10.86
8.07
5.53
3.18
0.90
-1.51
-4.22
-7.22
-10.39
-13.48
-16.24
-18.52
-20.33
-21.93
-23.70
-26.07
-29.38
-33.75
-38.97
-44.40
-49.06
-51.83
-51.72
-48.28
-41.70
-32.81
-22.78
-12.75
-3.56
4.37
10.92
16.11
19.94
22.42
23.58
23.58
22.73
21.48
20.24
19.33
18.89
18.89
19.19
19.66
20.23
20.90
21.65
22.41
22.98
23.07
22.41
20.82
18.36
15.33
12.11
9.10
6.48
4.20
2.03
-0.27
-2.87
-5.70
-8.59
-11.34
-13.79
-15.94
-17.90
-19.85
-21.99
-24.56
-27.76
-31.77
-36.52
-41.58
-46.12
-49.07
-49.39
-46.52
-40.56
-32.28
-22.86
-13.48
-4.98
2.22
8.12
12.84
16.51
19.09
20.53
20.83
20.20
18.96
17.52
16.16
15.04
14.18
13.58
13.31
13.49
14.18
15.31
16.62
17.67
18.05
17.49
15.98
13.76
11.14
8.44
5.87
3.45
1.14
-1.19
-3.63
-6.25
-9.04
-11.87
-14.57
-16.95
-18.92
-20.55
-22.06
-23.83
-26.24
-29.52
-33.63
-38.13
-42.16
-44.67
-44.72
-41.78
-35.97
-28.05
-19.12
-10.29
-2.35
4.33
9.71
13.85
16.79
18.50
18.95
18.25
16.65
14.57
12.50
10.88
10.03
10.04
10.81
12.06
13.47
14.71
15.61
16.08
16.15
15.81
15.05
13.77
11.93
9.54
6.69
3.58
0.39
-2.70
-5.58
-8.23
-10.69
-13.05
-15.43
-18.01
-20.99
-24.57
-28.86
-33.66
-38.39
-42.10
-43.73
-42.46
-38.01
-30.85
-21.98
-12.63
-3.86
3.68
9.77
14.47
17.92
20.18
21.30
21.36
20.54
19.15
17.51
15.95
14.70
13.91
13.64
13.87
14.55
15.52
16.53
17.31
17.57
17.16
16.07
14.43
12.46
10.28
7.92
5.26
2.22
-1.21
-4.86
-8.50
-11.88
-14.92
-17.74
-20.49
-23.41
-26.62
-30.24
-34.36
-38.96
-43.76
-48.14
-51.13
-51.71
-49.22
-43.66
-35.73
-26.55
-17.26
-8.62
-0.90
5.93
11.99
17.20
21.35
24.15
25.51
25.59
24.78
23.59
22.46
21.69
21.41
21.58
22.10
22.80
23.51
24.09
24.45
24.54
24.32
23.75
22.72
21.11
18.77
15.66
11.86
7.64
3.34
-0.74
-4.39
-7.56
-10.39
-13.07
-15.82
-18.84
-22.35
-26.51
-31.38
-36.76
-42.10
-46.46
-48.72
-47.96
-43.76
-36.44
-26.95
-16.54
-6.35
2.90
10.91
17.66
23.19
27.47
30.37
31.83
31.98
31.10
29.64
28.08
26.80
26.00
25.74
25.93
26.41
27.03
27.66
28.21
28.58
28.63
28.12
26.88
24.80
21.98
18.65
15.10
11.58
8.14
4.79
1.45
-1.84
-5.02
-8.00
-10.77
-13.48
-16.42
-19.95
-24.33
-29.58
-35.30
-40.62
-44.38
-45.44
-43.10
-37.37
-28.99
-19.19
-9.22
-0.03
7.93
14.55
19.88
23.85
26.29
27.04
26.20
24.14
21.57
19.22
17.72
17.33
17.96
19.23
20.66
21.80
22.43
22.56
22.32
21.89
21.30
20.47
19.15
17.12
14.32
10.90
7.22
3.67
0.53
-2.13
-4.44
-6.62
-8.93
-11.54
-14.63
-18.30
-22.56
-27.14
-31.42
-34.54
-35.56
-33.84
-29.25
-22.22
-13.65
-4.57
4.09
11.68
17.89
22.59
25.79
27.52
27.83
26.81
24.76
22.13
19.55
17.63
16.80
17.14
18.37
19.98
21.46
22.45
22.83
22.67
22.08
21.12
19.72
17.73
15.08
11.81
8.12
4.28
0.59
-2.75
-5.67
-8.22
-10.55
-12.85
-15.35
-18.32
-22.01
-26.52
-31.69
-36.98
-41.48
-44.14
-44.04
-40.75
-34.46
-25.93
-16.29
-6.65
2.11
9.47
15.22
19.37
22.05
23.42
23.70
23.18
22.17
20.99
19.92
19.15
18.80
18.88
19.30
19.94
20.67
21.37
21.96
22.33
22.35
21.80
20.54
18.52
15.88
12.91
9.91
7.10
4.48
1.91
-0.82
-3.84
-7.10
-10.40
-13.52
-16.27
-18.62
-20.76
-22.98
-25.68
-29.17
-33.54
-38.47
-43.25
-46.83
-48.13
-46.43
-41.59
-34.19
-25.30
-16.11
-7.61
-0.31
5.74
10.71
14.78
18.01
20.30
21.57
21.85
21.32
20.32
19.25
18.49
18.25
18.58
19.37
20.43
21.53
22.52
23.31
23.86
24.09
23.88
23.06
21.50
19.17
16.18
12.80
9.35
6.17
3.51
1.53
0.25
-0.46
-0.88
-1.37
-2.29
-3.92
-6.39
-9.65
-13.49
-17.61
-21.67
-25.42
-28.75
-31.79
-34.82
-38.10
-41.64
-44.98
-47.26
-47.51
-45.02
-39.72
-32.24
-23.61
-14.93
-6.96
-0.03
5.86
10.74
14.56
17.15
18.36
18.24
17.13
15.55
14.07
13.12
12.89
13.30
14.10
15.02
15.83
16.50
17.12
17.81
18.63
19.46
20.01
19.96
19.10
17.37
14.99
12.28
9.58
7.10
4.89
2.79
0.61
-1.86
-4.69
-7.80
-10.99
-14.01
-16.66
-18.88
-20.77
-22.56
-24.55
-27.03
-30.23
-34.16
-38.58
-42.88
-46.19
-47.53
-46.17
-41.87
-35.03
-26.54
-17.47
-8.77
-1.00
5.66
11.18
15.54
18.59
20.16
20.20
18.92
16.80
14.43
12.38
11.01
10.44
10.65
11.51
12.89
14.63
16.55
18.35
19.73
20.33
19.94
18.50
16.19
13.32
10.28
7.40
4.82
2.43
0.01
-2.74
-5.95
-9.56
-13.31
-16.86
-19.96
-22.57
-24.89
-27.31
-30.28
-34.11
-38.78
-43.84
-48.41
-51.38
-51.69
-48.76
-42.62
-33.97
-23.95
-13.72
-4.17
4.21
11.26
16.96
21.29
24.15
25.47
25.35
24.11
22.26
20.34
18.79
17.83
17.50
17.72
18.39
19.39
20.57
21.80
22.86
23.51
23.55
22.81
21.24
18.92
16.01
12.78
9.49
6.32
3.29
0.23
-3.13
-6.99
-11.39
-16.10
-20.72
-24.83
-28.24
-31.06
-33.73
-36.86
-40.96
-46.23
-52.34
-58.45
-63.31
-65.58
-64.22
-58.81
-49.77
-38.20
-25.58
-13.30
-2.33
6.92
14.49
20.54
25.17
28.35
29.99
30.20
29.31
27.88
26.54
25.73
25.62
26.13
27.03
28.15
29.42
30.85
32.38
33.79
34.72
34.74
33.55
31.12
27.70
23.70
19.57
15.58
11.77
8.01
4.09
-0.13
-4.66
-9.33
-13.91
-18.19
-22.12
-25.82
-29.55
-33.73
-38.77
-44.89
-51.95
-59.30
-65.76
-69.87
-70.35
-66.46
-58.38
-47.10
-34.11
-20.87
-8.49
2.48
11.85
19.59
25.61
29.79
32.06
32.56
31.71
30.08
28.28
26.81
25.94
25.80
26.36
27.56
29.28
31.33
33.43
35.22
36.29
36.30
35.08
32.67
29.33
25.46
21.41
17.42
13.50
9.56
5.46
1.19
-3.14
-7.34
-11.27
-14.91
-18.44
-22.14
-26.33
-31.26
-36.96
-43.13
-49.03
-53.55
-55.43
-53.64
-47.77
-38.25
-26.19
-13.10
-0.37
11.05
20.68
28.38
34.06
37.56
38.74
37.67
34.79
30.92
27.03
23.95
22.16
21.66
22.11
23.07
24.16
25.22
26.26
27.29
28.25
28.90
28.93
28.02
26.02
22.96
19.09
14.77
10.35
6.05
1.99
-1.82
-5.43
-8.89
-12.28
-15.79
-19.73
-24.48
-30.17
-36.52
-42.59
-47.00
-48.28
-45.44
-38.40
-27.94
-15.51
-2.65
9.41
19.91
28.52
35.12
39.68
42.17
42.74
41.73
39.68
37.23
34.96
33.24
32.26
31.99
32.29
33.00
33.99
35.19
36.48
37.71
38.57
38.66
37.63
35.30
31.84
27.64
23.20
18.95
15.04
11.37
7.71
3.82
-0.34
-4.64
-8.82
-12.67
-16.09
-19.21
-22.33
-25.80
-30.01
-35.21
-41.42
-48.23
-54.74
-59.62
-61.45
-59.22
-52.66
-42.49
-30.15
-17.32
-5.39
4.84
13.22
19.91
25.13
28.96
31.37
32.43
32.38
31.65
30.78
30.20
30.13
30.51
31.14
31.79
32.37
32.92
33.54
34.29
35.10
35.76
35.99
35.54
34.25
32.09
29.15
25.62
21.78
17.94
14.38
11.27
8.60
6.15
3.64
0.87
-2.20
-5.46
-8.67
-11.66
-14.37
-16.87
-19.34
-22.00
-25.10
-28.89
-33.56
-39.16
-45.37
-51.44
-56.24
-58.58
-57.55
-52.87
-44.99
-34.95
-24.02
-13.32
-3.62
4.68
11.49
16.82
20.72
23.26
24.58
24.88
24.46
23.60
22.61
21.74
21.19
21.03
21.25
21.78
22.51
23.39
24.37
25.37
26.24
26.72
26.55
25.53
23.68
21.22
18.46
15.69
13.04
10.48
7.94
5.40
2.91
0.60
-1.47
-3.33
-5.15
-7.09
-9.27
-11.67
-14.22
-16.77
-19.23
-21.55
-23.73
-25.80
-27.84
-30.07
-32.78
-36.23
-40.41
-44.91
-48.82
-51.06
-50.69
-47.29
-41.17
-33.14
-24.27
-15.47
-7.37
-0.25
5.74
10.48
13.84
15.71
16.19
15.56
14.29
12.89
11.76
11.17
11.18
11.71
12.58
13.62
14.67
15.64
16.48
17.13
17.51
17.50
16.97
15.86
14.25
12.31
10.26
8.28
6.44
4.67
2.89
1.01
-0.99
-3.08
-5.24
-7.44
-9.65
-11.80
-13.73
-15.33
-16.56
-17.52
-18.48
-19.77
-21.69
-24.42
-27.90
-31.72
-35.23
-37.53
-37.77
-35.44
-30.51
-23.57
-15.59
-7.60
-0.39
5.66
10.54
14.36
17.16
18.85
19.24
18.32
16.34
13.86
11.50
9.82
9.03
9.04
9.55
10.22
10.85
11.41
11.98
12.63
13.27
13.70
13.64
12.89
11.41
9.33
6.91
4.41
2.06
-0.06
-1.95
-3.72
-5.51
-7.43
-9.56
-11.84
-14.15
-16.31
-18.18
-19.70
-20.95
-22.10
-23.35
-24.88
-26.84
-29.40
-32.63
-36.43
-40.34
-43.59
-45.17
-44.20
-40.30
-33.75
-25.41
-16.46
-7.96
-0.60
5.36
9.98
13.40
15.70
16.92
17.11
16.45
15.21
13.73
12.35
11.30
10.71
10.61
10.96
11.66
12.59
13.62
14.61
15.46
16.06
16.32
16.12
15.40
14.10
12.27
10.06
7.71
5.47
3.48
1.82
0.38
-0.97
-2.38
-3.97
-5.80
-7.83
-10.00
-12.25
-14.47
-16.60
-18.61
-20.50
-22.36
-24.32
-26.62
-29.51
-33.15
-37.48
-42.08
-46.19
-48.84
-49.13
-46.57
-41.25
-33.81
-25.24
-16.52
-8.37
-1.16
5.03
10.21
14.34
17.27
18.87
19.13
18.28
16.77
15.15
13.90
13.32
13.47
14.26
15.51
17.00
18.54
20.00
21.25
22.19
22.73
22.78
22.27
21.16
19.46
17.26
14.74
12.08
9.45
6.95
4.61
2.39
0.25
-1.83
-3.85
-5.81
-7.70
-9.55
-11.38
-13.23
-15.14
-17.17
-19.39
-21.88
-24.73
-28.09
-32.10
-36.82
-42.06
-47.25
-51.50
-53.80
-53.30
-49.70
-43.29
-34.89
-25.53
-16.16
-7.41
0.33
6.86
11.99
15.54
17.40
17.65
16.58
14.69
12.57
10.73
9.53
9.12
9.51
10.64
12.38
14.56
16.96
19.26
21.05
21.99
21.87
20.72
18.80
16.51
14.23
12.17
10.39
8.76
7.07
5.13
2.82
0.13
-2.84
-5.89
-8.82
-11.47
-13.82
-15.98
-18.15
-20.65
-23.78
-27.72
-32.45
-37.61
-42.42
-45.82
-46.74
-44.45
-38.86
-30.58
-20.71
-10.43
-0.72
7.82
14.93
20.46
24.31
26.37
26.70
25.63
23.77
21.84
20.43
19.84
20.03
20.74
21.71
22.78
23.95
25.31
26.86
28.44
29.73
30.31
29.86
28.25
25.60
22.23
18.53
14.79
11.20
7.74
4.31
0.80
-2.83
-6.51
-10.10
-13.47
-16.54
-19.42
-22.37
-25.81
-30.16
-35.65
-42.11
-48.87
-54.79
-58.51
-58.86
-55.20
-47.69
-37.23
-25.16
-12.88
-1.51
8.30
16.30
22.54
27.13
30.24
32.04
32.78
32.76
32.36
31.89
31.60
31.60
31.92
32.54
33.45
34.61
36.01
37.53
38.98
40.10
40.58
40.11
38.53
35.84
32.25
28.13
23.86
19.73
15.84
12.12
8.39
4.46
0.28
-4.03
-8.27
-12.21
-15.74
-18.93
-22.05
-25.55
-29.85
-35.22
-41.49
-48.03
-53.72
-57.22
-57.40
-53.63
-46.07
-35.59
-23.46
-11.03
0.67
11.01
19.75
26.77
32.06
35.60
37.48
38.01
37.66
36.95
36.32
36.05
36.19
36.67
37.35
38.10
38.85
39.55
40.15
40.59
40.71
40.35
39.30
37.45
34.80
31.51
27.84
24.12
20.61
17.43
14.53
11.78
8.96
5.93
2.61
-0.97
-4.64
-8.20
-11.43
-14.28
-16.86
-19.48
-22.56
-26.52
-31.59
-37.60
-43.93
-49.50
-53.07
-53.57
-50.46
-43.91
-34.76
-24.19
-13.37
-3.20
5.80
13.37
19.42
23.82
26.50
27.49
27.00
25.41
23.29
21.21
19.72
19.20
19.78
21.35
23.57
25.99
28.17
29.80
30.67
30.73
29.96
28.37
26.05
23.16
19.98
16.85
14.05
11.69
9.64
7.60
5.21
2.31
-1.04
-4.51
-7.69
-10.25
-12.14
-13.60
-15.08
-17.09
-20.03
-24.02
-28.84
-33.87
-38.17
-40.69
-40.55
-37.31
-31.20
-23.02
-13.96
-5.14
2.62
8.98
13.98
17.79
20.54
22.20
22.70
22.04
20.42
18.27
16.10
14.37
13.39
13.25
13.87
15.05
16.55
18.10
19.43
20.26
20.37
19.63
18.07
15.85
13.24
10.51
7.84
5.24
2.61
-0.18
-3.19
-6.37
-9.55
-12.54
-15.24
-17.70
-20.08
-22.59
-25.48
-28.86
-32.71
-36.79
-40.54
-43.26
-44.17
-42.73
-38.71
-32.43
-24.54
-15.94
-7.46
0.27
6.94
12.45
16.80
19.96
21.84
22.35
21.55
19.71
17.31
14.97
13.18
12.26
12.19
12.77
13.70
14.72
15.66
16.41
16.90
17.00
16.58
15.53
13.83
11.60
9.03
6.32
3.61
0.87
-2.01
-5.13
-8.48
-11.90
-15.12
-17.87
-20.04
-21.75
-23.32
-25.23
-27.93
-31.64
-36.22
-41.04
-45.11
-47.33
-46.83
-43.30
-37.05
-28.95
-20.05
-11.27
-3.26
3.67
9.36
13.72
16.69
18.31
18.78
18.43
17.72
16.98
16.41
16.00
15.71
15.45
15.30
15.35
15.72
16.41
17.28
18.06
18.44
18.17
17.15
15.45
13.29
10.97
8.69
6.54
4.44
2.21
-0.33
-3.26
-6.50
-9.85
-13.08
-15.97
-18.47
-20.68
-22.85
-25.28
-28.30
-32.06
-36.49
-41.11
-45.10
-47.46
-47.34
-44.35
-38.72
-31.22
-22.82
-14.44
-6.68
0.16
5.95
10.57
13.89
15.79
16.30
15.65
14.23
12.51
10.91
9.73
9.18
9.34
10.18
11.53
13.09
14.52
15.49
15.83
15.54
14.75
13.63
12.28
10.66
8.69
6.32
3.61
0.75
-2.12
-4.90
-7.63
-10.39
-13.24
-16.11
-18.88
-21.51
-24.10
-26.90
-30.10
-33.66
-37.10
-39.60
-40.27
-38.52
-34.28
-28.04
-20.66
-12.97
-5.58
1.21
7.28
12.54
16.75
19.61
20.87
20.49
18.73
16.17
13.50
11.40
10.26
10.14
10.81
11.90
13.05
14.05
14.87
15.49
15.83
15.69
14.81
13.05
10.47
7.34
4.03
0.85
-2.07
-4.74
-7.25
-9.69
-12.11
-14.55
-17.10
-19.93
-23.23
-27.11
-31.45
-35.81
-39.47
-41.55
-41.28
-38.25
-32.61
-24.98
-16.29
-7.51
0.59
7.55
13.17
17.46
20.47
22.21
22.74
22.16
20.69
18.71
16.70
15.13
14.36
14.54
15.55
17.08
18.70
20.02
20.77
20.85
20.29
19.14
17.48
15.32
12.65
9.53
6.08
2.51
-0.94
-4.06
-6.79
-9.20
-11.46
-13.79
-16.37
-19.30
-22.69
-26.65
-31.20
-36.17
-41.05
-45.04
-47.13
-46.50
-42.74
-36.08
-27.26
-17.35
-7.38
1.85
9.86
16.44
21.52
25.10
27.23
28.02
27.68
26.54
25.00
23.46
22.25
21.56
21.43
21.74
22.34
23.05
23.72
24.23
24.48
24.38
23.86
22.84
21.27
19.13
16.44
13.27
9.75
6.06
2.38
-1.16
-4.45
-7.44
-10.15
-12.66
-15.16
-17.94
-21.34
-25.61
-30.71
-36.24
-41.40
-45.14
-46.47
-44.72
-39.80
-32.21
-22.90
-12.99
-3.44
5.12
12.40
18.37
23.07
26.49
28.58
29.35
28.97
27.82
26.36
25.04
24.14
23.73
23.74
24.04
24.51
25.06
25.58
25.95
26.06
25.79
25.12
24.02
22.51
20.55
18.12
15.19
11.81
8.06
4.06
-0.01
-3.95
-7.58
-10.74
-13.46
-15.91
-18.48
-21.60
-25.60
-30.45
-35.69
-40.44
-43.63
-44.28
-41.89
-36.52
-28.88
-19.99
-10.91
-2.43
5.02
11.30
16.37
20.13
22.41
23.08
22.22
20.24
17.81
15.67
14.39
14.22
14.97
16.20
17.42
18.27
18.66
18.73
18.71
18.71
18.65
18.22
17.04
14.91
11.87
8.24
4.45
0.94
-2.09
-4.64
-6.87
-9.05
-11.42
-14.21
-17.53
-21.32
-25.24
-28.68
-30.83
-30.97
-28.71
-24.11
-17.75
-10.43
-2.95
4.08
10.35
15.69
20.02
23.19
25.02
25.42
24.48
22.57
20.25
18.14
16.68
16.00
15.92
16.10
16.20
16.13
15.98
15.94
16.08
16.23
16.00
14.92
12.71
9.37
5.28
1.02
-2.83
-5.88
-8.08
-9.76
-11.47
-13.85
-17.38
-22.21
-28.04
-34.17
-39.59
-43.21
-44.14
-41.93
-36.72
-29.22
-20.49
-11.65
-3.55
3.37
9.07
13.72
17.45
20.23
21.88
22.23
21.35
19.57
17.39
15.32
13.67
12.52
11.76
11.31
11.17
11.42
12.10
13.04
13.92
14.26
13.72
12.20
9.86
7.05
4.14
1.35
-1.27
-3.85
-6.59
-9.67
-13.23
-17.25
-21.54
-25.64
-28.93
-30.73
-30.46
-27.87
-23.09
-16.62
-9.23
-1.70
5.28
11.25
16.00
19.46
21.67
22.67
22.49
21.24
19.11
16.44
13.68
11.29
9.66
8.92
8.99
9.58
10.35
10.91
11.03
10.59
9.59
8.14
6.36
4.34
2.16
-0.18
-2.67
-5.30
-8.11
-11.19
-14.69
-18.76
-23.32
-27.99
-32.00
-34.40
-34.35
-31.50
-26.13
-19.06
-11.33
-3.86
2.81
8.51
13.26
17.06
19.79
21.28
21.45
20.41
18.54
16.32
14.18
12.39
11.02
10.03
9.34
8.96
8.93
9.29
9.99
10.76
11.24
11.02
9.84
7.67
4.77
1.52
-1.70
-4.68
-7.44
-10.14
-13.00
-16.13
-19.52
-22.97
-26.13
-28.52
-29.55
-28.70
-25.69
-20.70
-14.33
-7.51
-1.14
4.22
8.44
11.76
14.41
16.45
17.66
17.73
16.53
14.31
11.63
9.12
7.25
6.13
5.57
5.29
5.09
5.00
5.14
5.61
6.29
6.83
6.73
5.60
3.37
0.34
-2.93
-5.88
-8.18
-9.83
-11.14
-12.54
-14.41
-16.94
-20.08
-23.51
-26.69
-28.93
-29.52
-27.96
-24.11
-18.34
-11.42
-4.31
2.09
7.18
10.79
12.98
13.99
14.02
13.20
11.64
9.50
7.04
4.68
2.79
1.67
1.38
1.79
2.62
3.55
4.30
4.71
4.70
4.28
3.52
2.46
1.16
-0.34
-2.02
-3.83
-5.73
-7.65
-9.62
-11.76
-14.26
-17.29
-20.78
-24.31
-27.14
-28.43
-27.49
-24.07
-18.50
-11.51
-4.08
2.87
8.70
13.03
15.73
16.78
16.30
14.50
11.76
8.61
5.64
3.42
2.27
2.25
3.14
4.53
6.01
7.22
7.97
8.21
7.92
7.11
5.72
3.72
1.16
-1.77
-4.77
-7.51
-9.77
-11.58
-13.24
-15.20
-17.91
-21.61
-26.20
-31.17
-35.66
-38.66
-39.26
-36.92
-31.71
-24.29
-15.77
-7.34
-0.01
5.61
9.39
11.53
12.38
12.29
11.52
10.25
8.63
6.86
5.16
3.76
2.81
2.34
2.25
2.39
2.63
2.93
3.23
3.44
3.34
2.65
1.13
-1.22
-4.15
-7.24
-10.05
-12.39
-14.33
-16.22
-18.54
-21.65
-25.70
-30.48
-35.38
-39.56
-42.02
-41.97
-39.01
-33.35
-25.76
-17.29
-9.01
-1.67
4.33
8.94
12.26
14.36
15.31
15.17
14.14
12.60
11.01
9.80
9.21
9.20
9.54
9.91
10.10
10.08
9.93
9.79
9.68
9.48
8.89
7.65
5.58
2.77
-0.50
-3.86
-7.01
-9.87
-12.57
-15.46
-18.94
-23.30
-28.51
-34.12
-39.24
-42.75
-43.65
-41.37
-36.01
-28.29
-19.29
-10.12
-1.63
5.70
11.70
16.36
19.71
21.79
22.69
22.60
21.80
20.64
19.44
18.45
17.79
17.53
17.65
18.11
18.83
19.67
20.42
20.81
20.60
19.59
17.70
15.01
11.76
8.27
4.88
1.87
-0.69
-2.97
-5.35
-8.30
-12.15
-16.94
-22.22
-27.12
-30.53
-31.46
-29.31
-24.09
-16.40
-7.24
2.30
11.31
19.18
25.61
30.47
33.70
35.30
35.29
33.90
31.56
28.84
26.34
24.52
23.56
23.41
23.82
24.51
25.21
25.74
25.89
25.46
24.23
22.07
19.01
15.28
11.31
7.55
4.32
1.67
-0.62
-3.02
-6.02
-10.01
-15.06
-20.84
-26.63
-31.41
-34.12
-33.90
-30.32
-23.57
-14.44
-4.14
6.00
14.89
21.88
26.87
30.10
31.96
32.74
32.59
31.60
29.95
27.99
26.15
24.83
24.16
24.03
24.15
24.24
24.19
24.06
23.95
23.84
23.51
22.60
20.76
17.87
14.07
9.77
5.50
1.70
-1.41
-3.91
-6.11
-8.53
-11.70
-15.97
-21.37
-27.43
-33.20
-37.39
-38.83
-36.74
-31.14
-22.81
-13.10
-3.46
4.92
11.44
16.08
19.19
21.26
22.64
23.50
23.87
23.71
23.03
21.99
20.81
19.75
18.99
18.60
18.50
18.51
18.46
18.26
17.91
17.51
17.08
16.54
15.63
14.06
11.64
8.37
4.55
0.62
-2.95
-5.91
-8.23
-10.12
-11.90
-13.93
-16.48
-19.70
-23.50
-27.54
-31.18
-33.61
-34.06
-32.10
-27.78
-21.66
-14.61
-7.55
-1.15
4.26
8.64
12.10
14.75
16.56
17.43
17.30
16.28
14.70
13.07
11.88
11.42
11.65
12.26
12.80
12.97
12.72
12.25
11.82
11.53
11.23
10.60
9.32
7.24
4.54
1.57
-1.27
-3.68
-5.59
-7.13
-8.50
-9.88
-11.45
-13.30
-15.57
-18.39
-21.79
-25.56
-29.21
-31.93
-32.89
-31.48
-27.57
-21.65
-14.65
-7.58
-1.27
3.84
7.71
10.47
12.22
12.99
12.75
11.60
9.84
7.92
6.29
5.28
4.91
5.00
5.27
5.52
5.67
5.81
6.04
6.40
6.77
6.87
6.38
5.10
3.01
0.34
-2.53
-5.20
-7.39
-9.04
-10.29
-11.40
-12.67
-14.35
-16.62
-19.49
-22.77
-26.00
-28.48
-29.45
-28.31
-24.84
-19.37
-12.65
-5.67
0.68
5.82
9.53
11.90
13.17
13.55
13.17
12.17
10.69
8.95
7.28
5.97
5.25
5.17
5.58
6.19
6.67
6.81
6.56
6.06
5.49
4.95
4.40
3.62
2.31
0.28
-2.47
-5.70
-9.00
-11.98
-14.37
-16.14
-17.50
-18.79
-20.38
-22.58
-25.56
-29.26
-33.41
-37.41
-40.43
-41.56
-40.02
-35.48
-28.31
-19.47
-10.33
-2.16
4.16
8.36
10.66
11.49
11.29
10.35
8.92
7.27
5.78
4.82
4.67
5.37
6.68
8.17
9.39
10.05
10.08
9.64
9.01
8.39
7.86
7.31
6.56
5.41
3.83
1.86
-0.34
-2.63
-4.94
-7.28
-9.69
-12.22
-14.87
-17.60
-20.41
-23.33
-26.46
-29.92
-33.74
-37.69
-41.22
-43.57
-43.96
-41.84
-37.17
-30.42
-22.42
-14.07
-6.17
0.80
6.56
11.00
14.08
15.78
16.18
15.51
14.10
12.40
10.82
9.68
9.13
9.15
9.60
10.35
11.28
12.33
13.41
14.39
15.03
15.06
14.29
12.65
10.27
7.37
4.18
0.87
-2.48
-5.83
-9.18
-12.49
-15.68
-18.68
-21.43
-23.91
-26.21
-28.56
-31.33
-34.89
-39.41
-44.59
-49.58
-53.11
-53.93
-51.23
-45.01
-36.01
-25.51
-14.81
-4.93
3.53
10.33
15.41
18.68
20.08
19.62
17.55
14.40
10.99
8.18
6.69
6.84
8.50
11.10
13.93
16.31
17.90
18.69
18.89
18.80
18.55
18.09
17.17
15.56
13.13
9.96
6.29
2.44
-1.34
-4.91
-8.27
-11.45
-14.52
-17.56
-20.73
-24.31
-28.59
-33.71
-39.45
-45.06
-49.36
-51.08
-49.21
-43.44
-34.22
-22.64
-10.10
2.11
13.02
22.08
29.05
33.88
36.62
37.40
36.48
34.34
31.59
28.89
26.79
25.63
25.49
26.22
27.59
29.31
31.10
32.68
33.73
33.98
33.24
31.55
29.13
26.27
23.23
20.08
16.73
12.96
8.66
3.86
-1.26
-6.42
-11.36
-15.92
-20.07
-23.93
-27.80
-32.09
-37.27
-43.58
-50.76
-57.90
-63.53
-66.03
-64.13
-57.42
-46.47
-32.65
-17.65
-2.98
10.27
21.58
30.75
37.77
42.67
45.50
46.46
45.90
44.35
42.41
40.62
39.34
38.71
38.67
39.10
39.86
40.92
42.21
43.64
44.91
45.57
45.16
43.37
40.23
36.13
31.66
27.36
23.49
19.94
16.31
12.19
7.41
2.13
-3.23
-8.19
-12.43
-16.00
-19.21
-22.58
-26.65
-31.78
-38.06
-45.21
-52.43
-58.53
-62.04
-61.67
-56.76
-47.58
-35.39
-22.03
-9.28
1.68
10.60
17.96
24.48
30.55
36.02
40.31
42.89
43.68
43.18
42.27
41.73
41.97
42.89
44.12
45.30
46.33
47.36
48.53
49.82
50.92
51.36
50.70
48.74
45.61
41.72
37.61
33.73
30.22
26.90
23.33
18.98
13.55
7.09
0.05
-6.95
-13.28
-18.58
-22.80
-26.19
-29.20
-32.29
-35.92
-40.41
-45.87
-52.12
-58.59
-64.30
-68.01
-68.40
-64.50
-55.97
-43.41
-28.29
-12.63
1.50
12.59
20.02
24.08
25.65
25.77
25.29
24.69
24.21
23.92
23.93
24.40
25.46
27.02
28.82
30.42
31.41
31.54
30.79
29.33
27.37
25.04
22.48
19.80
17.28
15.34
14.52
15.25
17.55
20.82
23.77
24.77
22.44
16.20
6.62
-4.70
-15.72
-24.71
-30.85
-34.29
-35.87
-36.50
-36.70
-36.54
-35.78
-34.29
-32.17
-29.61
-26.63
-22.94
-18.02
-11.48
-3.44
5.29
13.38
19.45
22.51
22.41
19.82
15.94
12.14
9.51
8.65
9.62
12.14
15.68
19.61
23.27
25.94
26.87
25.37
21.16
14.61
6.86
-0.37
-5.34
-6.91
-4.99
-0.61
4.50
8.46
9.97
8.54
4.56
-1.00
-7.04
-12.62
-17.27
-21.05
-24.41
-28.07
-32.58
-37.99
-43.59
-48.07
-49.95
-48.16
-42.59
-34.16
-24.51
-15.41
-8.10
-3.01
0.15
2.12
3.70
5.54
8.04
11.34
15.28
19.38
22.97
25.33
26.02
25.05
22.84
20.06
17.37
15.20
13.74
12.97
12.79
13.02
13.37
13.37
12.57
10.67
7.68
3.89
-0.25
-4.44
-8.55
-12.59
-16.49
-19.90
-22.34
-23.48
-23.42
-22.83
-22.77
-24.09
-27.02
-30.87
-34.19
-35.34
-33.08
-27.11
-18.13
-7.58
2.95
12.23
19.65
25.24
29.30
32.15
33.90
34.51
33.92
32.19
29.58
26.44
23.17
20.07
17.33
15.02
13.12
11.53
10.06
8.49
6.60
4.28
1.57
-1.30
-4.00
-6.24
-7.86
-9.01
-10.03
-11.24
-12.86
-14.80
-16.82
-18.60
-20.01
-21.14
-22.26
-23.73
-25.86
-28.82
-32.55
-36.76
-40.85
-43.98
-45.24
-43.93
-39.80
-33.21
-25.06
-16.45
-8.39
-1.59
3.70
7.47
9.84
10.93
10.87
9.88
8.31
6.63
5.31
4.65
4.75
5.51
6.69
8.06
9.45
10.77
11.95
12.95
13.71
14.18
14.29
13.95
13.06
11.55
9.45
6.94
4.32
1.88
-0.19
-1.91
-3.47
-5.16
-7.23
-9.82
-12.89
-16.21
-19.34
-21.62
-22.35
-20.98
-17.30
-11.68
-4.88
2.14
8.56
13.92
18.04
20.86
22.27
22.08
20.18
16.80
12.51
8.19
4.65
2.42
1.57
1.83
2.76
3.99
5.28
6.50
7.60
8.42
8.75
8.34
7.00
4.75
1.82
-1.33
-4.18
-6.36
-7.81
-8.79
-9.78
-11.28
-13.63
-16.86
-20.76
-24.89
-28.66
-31.37
-32.37
-31.17
-27.65
-22.22
-15.65
-8.89
-2.69
2.60
7.05
10.89
14.25
16.97
18.67
18.96
17.75
15.33
12.33
9.51
7.54
6.73
7.02
8.09
9.48
10.77
11.75
12.34
12.54
12.34
11.58
10.06
7.63
4.39
0.75
-2.72
-5.45
-7.11
-7.77
-7.82
-7.85
-8.42
-10.04
-12.98
-17.25
-22.45
-27.76
-32.04
-34.14
-33.25
-29.19
-22.55
-14.38
-5.88
1.97
8.58
13.71
17.36
19.63
20.69
20.76
20.11
19.01
17.71
16.36
15.07
13.93
13.01
12.33
11.92
11.74
11.74
11.88
12.06
12.21
12.24
12.04
11.51
10.56
9.13
7.21
4.82
2.10
-0.76
-3.50
-5.90
-7.85
-9.36
-10.60
-11.83
-13.37
-15.55
-18.59
-22.53
-27.02
-31.33
-34.36
-35.03
-32.63
-27.16
-19.38
-10.60
-2.22
4.69
9.63
12.61
13.96
14.09
13.32
11.89
10.01
7.92
5.95
4.45
3.68
3.73
4.48
5.63
6.79
7.63
7.97
7.83
7.31
6.58
5.70
4.66
3.35
1.70
-0.31
-2.59
-4.96
-7.21
-9.13
-10.58
-11.54
-12.14
-12.64
-13.38
-14.64
-16.62
-19.31
-22.47
-25.62
-28.15
-29.33
-28.55
-25.44
-20.06
-12.93
-5.00
2.63
8.97
13.39
15.75
16.34
15.69
14.33
12.64
10.82
8.95
7.17
5.75
5.01
5.16
6.14
7.57
8.93
9.82
10.10
9.96
9.72
9.60
9.55
9.30
8.54
7.09
4.99
2.47
-0.23
-2.90
-5.46
-7.84
-9.99
-11.89
-13.59
-15.21
-17.00
-19.23
-22.05
-25.42
-29.03
-32.25
-34.31
-34.45
-32.19
-27.51
-20.84
-13.04
-5.10
2.10
7.92
12.10
14.68
15.86
15.93
15.17
13.92
12.46
11.09
10.04
9.46
9.41
9.80
10.53
11.42
12.35
13.22
13.92
14.28
14.11
13.21
11.48
9.01
6.03
2.93
0.05
-2.36
-4.32
-5.96
-7.56
-9.32
-11.31
-13.48
-15.67
-17.72
-19.54
-21.20
-22.90
-24.97
-27.75
-31.39
-35.66
-39.92
-43.19
-44.46
-42.98
-38.58
-31.75
-23.45
-14.82
-6.84
-0.11
5.21
9.23
12.22
14.37
15.79
16.48
16.48
15.92
15.09
14.38
14.12
14.49
15.41
16.64
17.89
18.96
19.78
20.42
20.90
21.20
21.15
20.58
19.38
17.58
15.37
13.06
10.86
8.94
7.22
5.49
3.52
1.14
-1.61
-4.53
-7.36
-9.89
-12.05
-13.92
-15.70
-17.55
-19.66
-22.23
-25.48
-29.57
-34.47
-39.75
-44.53
-47.67
-48.12
-45.29
-39.32
-30.99
-21.47
-11.97
-3.36
3.90
9.72
14.24
17.59
19.83
20.97
21.10
20.43
19.38
18.43
18.00
18.27
19.16
20.38
21.61
22.68
23.60
24.47
25.38
26.23
26.83
26.86
26.14
24.62
22.44
19.85
17.10
14.43
12.01
9.93
8.18
6.64
5.10
3.29
0.99
-1.86
-5.13
-8.57
-11.91
-14.96
-17.74
-20.42
-23.29
-26.62
-30.55
-34.92
-39.22
-42.61
-44.08
-42.83
-38.49
-31.36
-22.31
-12.51
-3.08
5.15
11.77
16.68
19.95
21.69
22.07
21.30
19.77
17.92
16.21
15.06
14.68
15.15
16.35
18.05
20.01
21.97
23.68
25.02
25.86
26.15
25.89
25.08
23.82
22.19
20.28
18.14
15.69
12.80
9.31
5.19
0.66
-3.79
-7.61
-10.35
-11.96
-12.82
-13.60
-15.04
-17.63
-21.43
-26.04
-30.72
-34.50
-36.51
-36.12
-33.16
-27.91
-20.99
-13.17
-5.15
2.51
9.42
15.25
19.73
22.67
24.06
24.10
23.16
21.68
20.05
18.54
17.34
16.55
16.17
16.10
16.07
15.81
15.20
14.38
13.75
13.70
14.41
15.76
17.27
18.39
18.69
17.99
16.30
13.72
10.36
6.30
1.70
-3.16
-7.88
-12.03
-15.32
-17.69
-19.38
-20.84
-22.61
-25.21
-28.90
-33.54
-38.48
-42.69
-44.94
-44.26
-40.23
-33.16
-23.97
-13.91
-4.17
4.43
11.50
16.99
21.04
23.83
25.44
25.96
25.55
24.44
22.99
21.58
20.49
19.86
19.67
19.79
20.08
20.46
20.90
21.41
21.93
22.33
22.37
21.81
20.53
18.53
16.03
13.31
10.58
7.93
5.22
2.20
-1.35
-5.46
-9.87
-14.15
-17.82
-20.55
-22.30
-23.34
-24.20
-25.46
-27.61
-30.82
-34.75
-38.60
-41.27
-41.69
-39.24
-33.96
-26.54
-18.09
-9.72
-2.27
3.84
8.52
11.91
14.17
15.48
15.98
15.83
15.22
14.38
13.57
13.05
12.97
13.37
14.10
14.93
15.60
16.01
16.20
16.29
16.41
16.55
16.60
16.39
15.79
14.71
13.10
10.85
7.85
4.03
-0.47
-5.29
-9.90
-13.80
-16.74
-18.82
-20.48
-22.22
-24.45
-27.17
-30.06
-32.52
-33.88
-33.66
-31.60
-27.77
-22.43
-15.99
-8.92
-1.70
5.23
11.43
16.52
20.22
22.38
23.02
22.36
20.75
18.64
16.53
14.83
13.81
13.51
13.82
14.49
15.28
16.02
16.62
17.05
17.24
17.01
16.10
14.27
11.43
7.72
3.57
-0.51
-4.06
-6.94
-9.30
-11.57
-14.19
-17.46
-21.43
-25.94
-30.79
-35.78
-40.66
-45.03
-48.25
-49.51
-48.07
-43.58
-36.25
-26.88
-16.61
-6.58
2.32
9.59
15.07
18.82
20.97
21.69
21.19
19.76
17.79
15.74
14.08
13.19
13.31
14.47
16.40
18.61
20.49
21.45
21.19
19.76
17.56
15.23
13.37
12.31
11.92
11.60
10.61
8.36
4.83
0.55
-3.59
-6.79
-8.68
-9.49
-9.86
-10.57
-12.30
-15.51
-20.45
-27.08
-34.92
-42.88
-49.27
-52.29
-50.60
-43.93
-33.26
-20.46
-7.53
3.97
13.35
20.65
26.15
30.07
32.30
32.66
31.22
28.50
25.53
23.52
23.39
25.40
29.06
33.28
36.82
38.73
38.66
36.92
34.24
31.44
29.04
27.15
25.53
23.77
21.65
19.25
16.93
15.14
14.13
13.80
13.75
13.38
12.16
9.70
5.83
0.59
-5.67
-12.28
-18.30
-22.89
-25.71
-27.33
-29.03
-32.29
-37.91
-45.37
-52.83
-57.82
-58.31
-53.62
-44.56
-33.03
-21.15
-10.53
-2.02
4.17
8.12
9.90
9.55
7.26
3.43
-1.13
-5.33
-8.06
-8.41
-5.84
-0.25
8.02
18.22
29.25
39.74
48.17
53.22
54.15
51.26
45.87
39.96
35.35
33.00
32.64
33.12
33.15
31.99
29.72
26.99
24.37
21.91
19.08
15.18
9.93
3.69
-2.61
-8.05
-12.24
-15.49
-18.62
-22.35
-26.78
-31.22
-34.42
-35.18
-32.88
-27.72
-20.53
-12.43
-4.37
3.02
9.41
14.61
18.44
20.77
21.57
20.95
19.15
16.50
13.39
10.33
7.82
6.36
6.22
7.30
9.13
11.03
12.36
12.85
12.55
11.80
10.93
10.08
9.18
7.95
6.16
3.74
0.80
-2.42
-5.69
-8.87
-11.92
-14.94
-18.01
-21.22
-24.59
-28.13
-31.76
-35.26
-38.18
-39.89
-39.73
-37.27
-32.50
-25.93
-18.41
-10.90
-4.15
1.44
5.82
9.08
11.30
12.53
12.76
12.12
10.89
9.50
8.40
7.90
8.10
8.90
10.08
11.39
12.61
13.61
14.27
14.50
14.18
13.21
11.55
9.23
6.41
3.33
0.27
-2.54
-5.01
-7.16
-9.15
-11.22
-13.59
-16.43
-19.79
-23.55
-27.32
-30.45
-32.13
-31.62
-28.56
-23.05
-15.78
-7.74
0.04
6.80
12.14
15.98
18.40
19.47
19.30
18.05
16.02
13.68
11.56
10.08
9.43
9.54
10.11
10.77
11.22
11.34
11.17
10.78
10.27
9.61
8.70
7.41
5.58
3.21
0.42
-2.57
-5.48
-8.11
-10.38
-12.35
-14.24
-16.34
-19.00
-22.47
-26.80
-31.58
-36.01
-38.97
-39.41
-36.75
-31.18
-23.61
-15.35
-7.63
-1.19
3.80
7.56
10.43
12.58
14.01
14.62
14.41
13.59
12.55
11.71
11.41
11.75
12.60
13.66
14.61
15.25
15.55
15.61
15.61
15.58
15.43
14.87
13.59
11.40
8.34
4.65
0.73
-2.99
-6.22
-8.82
-10.84
-12.47
-13.99
-15.72
-17.98
-20.96
-24.59
-28.46
-31.81
-33.74
-33.44
-30.50
-25.13
-18.05
-10.30
-2.89
3.42
8.31
11.78
14.04
15.33
15.87
15.84
15.41
14.74
14.01
13.33
12.77
12.32
11.95
11.65
11.46
11.43
11.61
12.00
12.59
13.29
13.99
14.45
14.36
13.38
11.27
8.08
4.25
0.42
-2.75
-4.93
-6.19
-6.90
-7.54
-8.42
-9.63
-11.14
-13.00
-15.37
-18.44
-22.10
-25.77
-28.41
-28.87
-26.37
-20.84
-13.04
-4.25
4.11
11.01
15.98
19.12
20.84
21.59
21.65
21.14
20.18
18.93
17.66
16.69
16.19
16.13
16.25
16.23
15.85
15.13
14.33
13.75
13.60
13.78
13.95
13.69
12.69
10.92
8.65
6.28
4.20
2.60
1.43
0.48
-0.53
-1.76
-3.27
-4.94
-6.67
-8.30
-9.74
-10.97
-12.01
-12.97
-14.06
-15.54
-17.56
-20.05
-22.54
-24.29
-24.52
-22.68
-18.71
-13.11
-6.72
-0.49
4.85
8.89
11.58
13.03
13.45
13.04
12.01
10.61
9.10
7.76
6.81
6.35
6.32
6.60
6.97
7.30
7.50
7.61
7.69
7.76
7.75
7.55
7.03
6.10
4.75
3.12
1.38
-0.31
-1.79
-2.98
-3.86
-4.47
-4.92
-5.39
-6.07
-7.11
-8.51
-10.19
-11.91
-13.41
-14.50
-15.13
-15.46
-15.81
-16.57
-18.01
-20.11
-22.45
-24.30
-24.79
-23.30
-19.63
-14.21
-7.90
-1.69
3.55
7.29
9.39
10.02
9.48
8.18
6.51
4.83
3.44
2.51
2.07
2.07
2.33
2.70
3.02
3.19
3.16
2.90
2.50
2.03
1.62
1.33
1.13
0.93
0.59
-0.02
-0.93
-2.09
-3.36
-4.58
-5.63
-6.47
-7.14
-7.74
-8.36
-9.08
-9.91
-10.79
-11.62
-12.32
-12.80
-13.07
-13.26
-13.56
-14.24
-15.52
-17.40
-19.57
-21.45
-22.33
-21.58
-18.90
-14.42
-8.70
-2.55
3.17
7.75
10.77
12.13
12.01
10.74
8.68
6.15
3.40
0.68
-1.77
-3.64
-4.69
-4.76
-3.90
-2.39
-0.58
1.13
2.53
3.50
4.07
4.27
4.12
3.60
2.69
1.43
-0.06
-1.67
-3.27
-4.84
-6.43
-8.08
-9.77
-11.35
-12.65
-13.54
-14.01
-14.17
-14.26
-14.53
-15.22
-16.44
-18.16
-20.14
-21.88
-22.75
-22.13
-19.69
-15.53
-10.23
-4.62
0.42
4.26
6.66
7.68
7.57
6.61
5.10
3.22
1.16
-0.89
-2.71
-4.11
-4.91
-5.03
-4.50
-3.50
-2.26
-1.05
-0.05
0.61
0.95
1.00
0.81
0.37
-0.35
-1.39
-2.76
-4.43
-6.35
-8.44
-10.61
-12.80
-14.97
-17.09
-19.12
-21.05
-22.86
-24.63
-26.53
-28.83
-31.74
-35.29
-39.16
-42.65
-44.81
-44.75
-42.01
-36.70
-29.59
-21.75
-14.30
-8.03
-3.30
-0.06
1.93
2.94
3.14
2.65
1.50
-0.18
-2.15
-4.07
-5.56
-6.26
-5.99
-4.77
-2.80
-0.46
1.83
3.74
5.02
5.55
5.29
4.21
2.31
-0.32
-3.53
-7.07
-10.69
-14.19
-17.51
-20.67
-23.78
-26.92
-30.12
-33.37
-36.72
-40.32
-44.44
-49.37
-55.14
-61.40
-67.33
-71.76
-73.52
-71.71
-66.05
-56.89
-45.18
-32.19
-19.22
-7.35
2.70
10.60
16.35
20.11
22.15
22.75
22.23
20.98
19.44
18.10
17.40
17.58
18.72
20.64
23.07
25.66
28.06
29.98
31.23
31.70
31.39
30.37
28.71
26.37
23.22
19.13
14.08
8.27
2.10
-3.97
-9.52
-14.40
-18.74
-22.88
-27.34
-32.60
-39.01
-46.56
-54.64
-62.11
-67.39
-68.93
-65.66
-57.35
-44.67
-29.00
-12.07
4.51
19.40
31.73
41.03
47.21
50.48
51.23
50.03
47.59
44.65
42.02
40.31
39.91
40.85
42.85
45.43
48.07
50.35
51.96
52.72
52.53
51.42
49.55
47.10
44.23
40.91
37.01
32.36
26.93
20.91
14.65
8.52
2.78
-2.52
-7.52
-12.49
-17.76
-23.72
-30.62
-38.44
-46.59
-53.89
-58.63
-59.13
-54.17
-43.56
-28.23
-10.00
8.86
26.25
40.63
51.30
58.28
62.14
63.67
63.64
62.64
61.03
59.07
57.03
55.20
53.91
53.44
53.83
54.94
56.42
57.84
58.85
59.20
58.79
57.63
55.76
53.21
49.94
45.89
41.01
35.37
29.15
22.64
16.19
10.09
4.53
-0.46
-4.94
-9.12
-13.28
-17.75
-22.93
