1679652433.00
64.000000
-0.00
-0.00
-0.00
-0.00
-0.00
-0.00
-0.00
-0.00
-0.00
-0.00
0.00
0.01
0.01
-0.00
-0.03
-0.05
-0.05
0.00
0.13
0.36
0.66
1.01
1.37
1.72
2.06
2.40
2.79
3.24
3.80
4.42
5.06
5.66
6.20
6.68
7.15
7.68
8.31
9.14
10.09
11.04
11.88
12.56
13.14
13.76
14.65
15.96
17.91
20.32
22.90
25.38
27.58
29.57
31.68
34.32
37.81
42.54
48.15
54.10
59.83
64.97
69.58
74.14
79.34
85.71
93.76
103.00
112.62
121.73
129.77
136.75
143.30
150.75
157.77
166.64
177.95
191.79
206.97
220.57
228.25
225.36
208.53
176.87
132.76
80.05
23.07
-34.94
-92.44
-149.16
-205.23
-260.37
-313.74
-363.87
-409.83
-450.91
-486.50
-515.74
-537.23
-549.22
-549.96
-538.37
-514.21
-478.67
-433.88
-382.45
-327.02
-269.84
-212.63
-156.66
-102.95
-52.37
-5.90
35.58
71.43
101.35
125.50
144.38
158.69
169.15
176.37
180.75
182.57
182.07
179.51
175.23
169.65
163.18
156.15
148.81
141.30
133.69
126.02
118.33
110.69
103.16
95.80
88.68
81.83
75.25
68.95
62.95
57.25
51.86
46.78
42.03
37.59
33.45
29.61
26.07
22.81
19.83
17.11
14.67
12.48
10.54
8.83
7.35
6.07
4.97
4.05
3.27
2.62
2.09
1.65
1.30
1.01
0.79
0.61
0.48
0.37
0.29
0.24
0.20
0.18
0.17
0.17
0.18
0.20
0.23
0.26
0.30
0.34
0.38
0.42
0.47
0.52
0.57
0.62
0.67
0.73
0.79
0.86
0.93
1.01
1.10
1.20
1.31
1.43
1.57
1.73
1.90
2.10
2.31
2.55
2.82
3.11
3.43
3.78
4.17
4.59
5.04
5.54
6.06
6.64
7.25
7.90
8.60
9.34
10.13
10.96
11.84
12.77
13.74
14.78
15.87
17.04
18.26
19.53
20.81
22.07
23.22
24.18
24.83
25.03
24.69
23.68
21.98
19.54
16.42
12.68
8.49
4.02
-0.51
-4.89
-8.91
-12.40
-15.24
-17.35
-18.70
-19.32
-19.28
-18.67
-17.61
-16.22
-14.63
-12.95
-11.26
-9.58
-7.92
-6.26
-4.60
-2.93
-1.25
0.45
2.13
3.80
5.52
7.37
9.34
11.45
13.72
16.13
18.63
21.16
23.69
26.28
29.13
32.16
35.41
38.87
42.48
46.09
49.49
52.61
55.54
58.65
61.94
65.56
69.58
73.83
77.97
81.50
84.12
85.87
87.23
88.25
89.18
90.03
90.32
89.04
84.82
76.12
61.21
43.30
23.82
3.97
-15.55
-34.63
-53.63
-73.30
-94.50
-118.03
-144.23
-173.27
-203.71
-232.46
-255.33
-268.24
-268.72
-256.94
-235.60
-208.85
-181.27
-155.80
-133.53
-114.11
-96.84
-81.31
-67.61
-55.97
-46.19
-37.84
-30.08
-22.16
-13.85
-5.54
1.89
7.69
11.55
13.86
15.33
16.78
18.76
21.23
23.71
25.50
26.10
25.30
23.20
20.03
16.07
11.63
6.92
2.11
-2.72
-7.54
-12.31
-16.88
-20.90
-23.98
-25.75
-26.16
-25.46
-24.23
-23.15
-22.86
-23.70
-25.61
-28.05
-30.02
-30.31
-27.80
-21.90
-12.76
-1.28
11.21
23.35
34.04
42.69
49.11
53.38
55.70
56.41
55.88
54.57
52.95
51.37
50.06
49.06
48.26
47.53
46.75
45.96
45.36
45.24
45.86
47.22
49.00
50.58
51.24
50.48
48.19
44.67
40.55
36.49
32.99
30.28
28.37
27.06
26.12
25.28
24.25
22.79
20.79
18.32
15.62
13.02
10.79
8.97
7.50
6.16
4.84
3.56
2.49
1.79
1.50
1.49
1.41
0.88
-0.38
-2.44
-5.10
-8.01
-10.76
-13.10
-15.05
-16.88
-18.98
-21.73
-25.25
-29.38
-33.65
-37.55
-40.62
-42.71
-43.99
-44.89
-45.95
-47.75
-50.78
-55.26
-60.77
-65.94
-68.43
-65.38
-54.42
-34.71
-7.58
23.66
54.85
82.34
104.09
119.80
130.31
136.59
139.06
137.51
131.62
121.61
108.46
93.72
78.87
64.84
51.85
39.58
27.71
16.32
5.92
-2.84
-9.48
-14.02
-16.98
-19.12
-21.14
-23.37
-25.72
-27.84
-29.35
-29.99
-29.76
-28.96
-28.05
-27.45
-27.49
-28.18
-29.31
-30.46
-31.17
-31.09
-30.07
-28.24
-25.87
-23.31
-20.88
-18.80
-17.13
-15.81
-14.72
-13.70
-12.68
-11.61
-10.51
-9.40
-8.29
-7.18
-6.06
-4.95
-3.90
-2.99
-2.23
-1.62
-1.05
-0.40
0.38
1.21
1.89
2.17
1.94
1.21
0.19
-0.90
-1.81
-2.46
-2.85
-3.04
-3.17
-3.30
-3.52
-3.88
-4.39
-5.06
-5.85
-6.68
-7.48
-8.16
-8.59
-8.61
-8.10
-6.97
-5.30
-3.30
-1.29
0.41
1.54
2.08
2.11
1.84
1.49
1.28
1.28
1.55
2.05
2.73
3.49
4.21
4.74
4.94
4.78
4.32
3.70
3.12
2.69
2.38
2.12
1.79
1.33
0.76
0.11
-0.60
-1.37
-2.21
-3.07
-3.81
-4.32
-4.60
-4.83
-5.30
-6.24
-7.68
-9.32
-10.67
-11.31
-10.97
-9.73
-7.87
-5.78
-3.75
-1.97
-0.53
0.54
1.23
1.57
1.60
1.45
1.26
1.21
1.35
1.67
2.09
2.49
2.75
2.86
2.87
2.93
3.17
3.66
4.36
5.11
5.71
6.07
6.12
5.93
5.56
5.04
4.36
3.49
2.44
1.24
-0.02
-1.29
-2.48
-3.52
-4.34
-4.89
-5.19
-5.39
-5.70
-6.31
-7.34
-8.74
-10.35
-11.89
-13.09
-13.74
-13.74
-13.07
-11.87
-10.31
-8.64
-7.09
-5.85
-5.01
-4.56
-4.34
-4.14
-3.67
-2.68
-1.06
1.07
3.40
5.49
6.95
7.54
7.22
6.14
4.66
3.37
2.96
4.21
7.68
13.55
21.51
30.73
40.11
48.51
54.88
58.42
58.61
55.35
49.01
40.49
31.05
21.98
14.22
8.09
3.46
-0.11
-3.07
-5.74
-8.34
-11.00
-13.86
-16.95
-20.11
-23.01
-25.27
-26.61
-26.98
-26.53
-25.50
-24.11
-22.44
-20.58
-18.59
-16.65
-14.90
-13.50
-12.44
-11.58
-10.73
-9.70
-8.43
-7.00
-5.62
-4.50
-3.80
-3.46
-3.28
-2.98
-2.39
-1.51
-0.53
0.28
0.70
0.70
0.41
0.09
-0.09
-0.05
0.10
0.21
0.11
-0.27
-0.90
-1.69
-2.50
-3.24
-3.80
-4.09
-4.04
-3.72
-3.28
-3.01
-3.20
-3.92
-5.05
-6.22
-6.99
-7.07
-6.38
-5.09
-3.48
-1.81
-0.23
1.17
2.32
3.12
3.45
3.24
2.57
1.64
0.75
0.21
0.22
0.79
1.75
2.78
3.56
3.87
3.70
3.18
2.56
2.06
1.81
1.82
2.01
2.27
2.56
2.83
3.04
3.10
2.92
2.45
1.77
1.06
0.49
0.16
0.02
-0.07
-0.27
-0.67
-1.20
-1.75
-2.27
-2.83
-3.60
-4.74
-6.25
-7.98
-9.57
-10.71
-11.18
-11.00
-10.30
-9.35
-8.42
-7.70
-7.34
-7.32
-7.52
-7.73
-7.76
-7.56
-7.27
-7.18
-7.56
-8.48
-9.73
-10.91
-11.57
-11.46
-10.58
-9.16
-7.55
-6.10
-5.18
-5.16
-6.31
-8.48
-10.94
-12.32
-11.03
-5.95
2.99
14.61
27.01
38.29
47.32
54.00
58.94
62.77
65.63
67.07
66.40
63.15
57.38
49.65
40.71
31.20
21.58
12.14
3.14
-5.11
-12.26
-18.05
-22.34
-25.15
-26.63
-27.05
-26.74
-26.08
-25.42
-25.00
-24.80
-24.63
-24.14
-23.11
-21.57
-19.81
-18.28
-17.30
-16.90
-16.78
-16.48
-15.59
-13.99
-11.82
-9.45
-7.26
-5.57
-4.52
-4.06
-4.07
-4.26
-4.38
-4.24
-3.79
-3.16
-2.57
-2.26
-2.36
-2.82
-3.47
-4.10
-4.57
-4.78
-4.77
-4.61
-4.42
-4.33
-4.45
-4.86
-5.54
-6.41
-7.31
-8.04
-8.42
-8.31
-7.71
-6.72
-5.52
-4.32
-3.21
-2.22
-1.27
-0.32
0.59
1.38
1.95
2.30
2.51
2.74
3.08
3.52
3.94
4.21
4.27
4.15
3.95
3.73
3.53
3.35
3.16
2.93
2.60
2.08
1.24
0.05
-1.45
-3.04
-4.44
-5.38
-5.74
-5.61
-5.20
-4.81
-4.65
-4.82
-5.23
-5.71
-6.06
-6.18
-6.05
-5.79
-5.51
-5.26
-5.06
-4.83
-4.52
-4.10
-3.55
-2.82
-1.88
-0.74
0.52
1.72
2.65
3.14
3.12
2.69
2.06
1.49
1.19
1.27
1.74
2.54
3.49
4.43
5.21
5.69
5.82
5.60
5.05
4.28
3.44
2.71
2.25
2.09
2.15
2.24
2.16
1.83
1.26
0.61
-0.02
-0.56
-1.06
-1.65
-2.44
-3.49
-4.76
-6.15
-7.51
-8.73
-9.68
-10.29
-10.48
-10.24
-9.63
-8.75
-7.79
-6.91
-6.28
-5.94
-5.83
-5.78
-5.58
-4.97
-3.80
-2.05
0.16
2.52
4.71
6.42
7.52
8.05
8.21
8.21
8.23
8.38
8.63
8.95
9.23
9.39
9.33
9.01
8.41
7.55
6.44
5.08
3.45
1.56
-0.44
-2.36
-3.92
-4.90
-5.16
-4.62
-3.30
-1.30
1.15
3.68
5.81
7.17
7.64
7.38
6.85
6.49
6.58
7.06
7.59
7.80
7.47
6.62
5.45
4.24
3.16
2.31
1.64
1.13
0.77
0.58
0.63
0.91
1.44
2.15
3.03
4.06
5.21
6.35
7.20
7.41
6.62
4.64
1.58
-2.17
-6.04
-9.50
-12.22
-14.13
-15.36
-16.21
-16.92
-17.62
-18.38
-19.10
-19.72
-20.12
-20.30
-20.33
-20.39
-20.67
-21.27
-22.10
-22.84
-23.02
-22.20
-20.08
-16.63
-12.11
-6.94
-1.68
3.06
6.83
9.32
10.49
10.54
9.84
8.80
7.75
6.88
6.19
5.60
4.98
4.19
3.20
2.11
1.22
0.86
1.36
2.85
5.20
8.02
10.81
13.13
14.72
15.51
15.62
15.23
14.55
13.71
12.75
11.61
10.22
8.51
6.54
4.49
2.61
1.13
0.15
-0.40
-0.70
-0.90
-1.14
-1.42
-1.64
-1.66
-1.34
-0.63
0.45
1.72
2.96
3.96
4.61
4.93
5.08
5.24
5.58
6.12
6.82
7.57
8.25
8.73
8.89
8.63
7.96
6.95
5.84
4.88
4.34
4.34
4.85
5.68
6.52
7.06
7.09
6.61
5.79
4.92
4.27
4.02
4.15
4.51
4.86
4.97
4.66
3.86
2.62
1.12
-0.40
-1.71
-2.72
-3.49
-4.23
-5.19
-6.50
-8.11
-9.75
-11.08
-11.79
-11.70
-10.83
-9.36
-7.57
-5.75
-4.11
-2.80
-1.80
-1.10
-0.62
-0.31
-0.06
0.22
0.61
1.14
1.74
2.30
2.75
3.08
3.43
3.95
4.77
5.82
6.89
7.70
8.06
7.96
7.50
6.87
6.15
5.35
4.39
3.26
2.02
0.81
-0.27
-1.14
-1.83
-2.46
-3.13
-3.95
-4.93
-6.04
-7.23
-8.40
-9.38
-10.01
-10.18
-9.83
-9.00
-7.79
-6.31
-4.63
-2.79
-0.88
0.96
2.52
3.62
4.17
4.30
4.25
4.30
4.63
5.25
5.98
6.61
7.01
7.16
7.17
7.17
7.26
7.44
7.70
7.97
8.19
8.30
8.23
7.94
7.42
6.74
5.99
5.29
4.64
4.05
3.44
2.77
2.03
1.21
0.26
-0.89
-2.29
-3.94
-5.78
-7.67
-9.47
-11.11
-12.51
-13.56
-14.10
-13.91
-12.92
-11.16
-8.90
-6.48
-4.22
-2.29
-0.75
0.47
1.42
2.12
2.61
2.96
3.33
3.84
4.55
5.40
6.24
6.89
7.29
7.50
7.59
7.63
7.57
7.32
6.84
6.18
5.49
4.96
4.70
4.70
4.81
4.85
4.66
4.16
3.37
2.39
1.31
0.25
-0.70
-1.48
-2.09
-2.57
-3.05
-3.67
-4.52
-5.63
-6.94
-8.27
-9.37
-10.02
-10.03
-9.40
-8.31
-7.02
-5.88
-5.05
-4.54
-4.16
-3.64
-2.81
-1.67
-0.37
0.85
1.81
2.49
3.01
3.53
4.17
4.94
5.75
6.55
7.31
8.10
9.00
10.00
10.92
11.52
11.57
11.01
9.97
8.72
7.55
6.62
5.93
5.33
4.64
3.77
2.72
1.64
0.68
-0.06
-0.62
-1.15
-1.88
-2.96
-4.40
-6.08
-7.75
-9.19
-10.29
-10.98
-11.25
-11.06
-10.32
-8.96
-7.05
-4.86
-2.78
-1.20
-0.28
0.06
0.14
0.32
0.78
1.53
2.38
3.15
3.71
4.04
4.20
4.28
4.40
4.65
5.05
5.57
6.08
6.43
6.48
6.16
5.60
4.96
4.41
4.00
3.64
3.16
2.48
1.61
0.66
-0.21
-0.96
-1.69
-2.54
-3.68
-5.12
-6.76
-8.33
-9.53
-10.12
-10.01
-9.23
-7.93
-6.28
-4.41
-2.45
-0.49
1.35
2.92
4.06
4.69
4.82
4.56
4.10
3.56
3.07
2.70
2.50
2.56
2.93
3.65
4.61
5.64
6.49
6.93
6.88
6.36
5.52
4.52
3.49
2.50
1.54
0.58
-0.40
-1.41
-2.45
-3.55
-4.74
-6.02
-7.28
-8.33
-8.95
-9.03
-8.67
-8.15
-7.81
-7.89
-8.40
-9.12
-9.72
-9.89
-9.49
-8.50
-7.04
-5.22
-3.12
-0.88
1.34
3.28
4.68
5.44
5.63
5.52
5.43
5.60
6.07
6.66
7.13
7.28
7.10
6.69
6.26
5.95
5.84
5.87
5.91
5.88
5.64
5.15
4.46
3.64
2.88
2.29
1.95
1.78
1.65
1.44
1.07
0.60
0.11
-0.34
-0.74
-1.14
-1.59
-2.12
-2.74
-3.40
-4.09
-4.81
-5.54
-6.26
-6.87
-7.24
-7.21
-6.63
-5.51
-3.97
-2.25
-0.66
0.56
1.30
1.60
1.56
1.30
0.88
0.34
-0.26
-0.79
-1.10
-1.02
-0.54
0.27
1.22
2.15
3.00
3.76
4.41
4.90
5.10
4.89
4.26
3.33
2.35
1.53
1.00
0.72
0.54
0.33
0.04
-0.26
-0.46
-0.50
-0.45
-0.48
-0.83
-1.62
-2.80
-4.18
-5.47
-6.40
-6.85
-6.81
-6.39
-5.74
-4.93
-4.01
-2.95
-1.75
-0.50
0.68
1.63
2.25
2.56
2.64
2.67
2.76
3.02
3.44
3.99
4.57
5.06
5.31
5.25
4.85
4.24
3.64
3.23
3.10
3.14
3.11
2.81
2.20
1.40
0.64
0.11
-0.18
-0.31
-0.43
-0.63
-0.91
-1.27
-1.78
-2.51
-3.54
-4.84
-6.20
-7.29
-7.83
-7.70
-6.96
-5.85
-4.60
-3.37
-2.21
-1.15
-0.19
0.61
1.20
1.57
1.80
2.01
2.33
2.80
3.33
3.76
3.99
4.03
4.02
4.18
4.64
5.43
6.39
7.29
7.92
8.22
8.22
8.05
7.78
7.39
6.80
5.95
4.88
3.73
2.62
1.63
0.73
-0.11
-0.92
-1.64
-2.17
-2.50
-2.76
-3.17
-3.95
-5.14
-6.58
-7.95
-8.89
-9.22
-8.93
-8.18
-7.14
-5.99
-4.82
-3.72
-2.75
-1.98
-1.45
-1.14
-0.94
-0.73
-0.37
0.19
0.94
1.75
2.51
3.09
3.49
3.83
4.28
4.97
5.90
6.91
7.75
8.23
8.27
7.92
7.32
6.55
5.65
4.63
3.52
2.39
1.36
0.49
-0.21
-0.81
-1.40
-2.01
-2.58
-3.04
-3.31
-3.41
-3.44
-3.53
-3.81
-4.32
-5.01
-5.78
-6.49
-7.02
-7.28
-7.17
-6.60
-5.50
-3.90
-1.96
0.01
1.63
2.61
2.90
2.69
2.32
2.14
2.29
2.71
3.20
3.56
3.68
3.58
3.37
3.16
3.01
2.94
2.99
3.18
3.52
3.90
4.14
4.03
3.49
2.57
1.52
0.62
0.07
-0.08
0.04
0.22
0.28
0.07
-0.40
-1.04
-1.72
-2.31
-2.73
-2.98
-3.17
-3.45
-3.95
-4.71
-5.66
-6.62
-7.41
-7.89
-8.01
-7.76
-7.17
-6.27
-5.13
-3.83
-2.55
-1.47
-0.77
-0.50
-0.59
-0.84
-0.98
-0.82
-0.24
0.72
1.89
3.03
3.90
4.33
4.27
3.85
3.32
2.96
2.99
3.43
4.13
4.81
5.16
5.01
4.31
3.23
2.05
1.05
0.45
0.28
0.37
0.44
0.18
-0.59
-1.80
-3.20
-4.47
-5.32
-5.66
-5.56
-5.16
-4.63
-4.05
-3.43
-2.76
-2.00
-1.16
-0.27
0.59
1.35
1.89
2.12
2.04
1.76
1.47
1.42
1.74
2.42
3.28
4.11
4.72
5.06
5.18
5.18
5.16
5.12
5.04
4.85
4.50
3.96
3.26
2.41
1.47
0.51
-0.39
-1.20
-1.93
-2.65
-3.41
-4.26
-5.17
-6.08
-6.99
-7.91
-8.87
-9.80
-10.57
-10.93
-10.69
-9.81
-8.41
-6.77
-5.15
-3.69
-2.36
-1.04
0.34
1.78
3.10
4.12
4.73
4.98
5.01
4.99
5.00
5.00
4.83
4.42
3.79
3.12
2.65
2.54
2.82
3.34
3.91
4.32
4.48
4.38
4.07
3.64
3.17
2.69
2.20
1.67
1.00
0.12
-0.98
-2.21
-3.39
-4.32
-4.90
-5.20
-5.45
-5.91
-6.70
-7.72
-8.66
-9.20
-9.11
-8.43
-7.31
-5.97
-4.53
-2.99
-1.36
0.30
1.81
2.92
3.48
3.57
3.41
3.33
3.54
4.02
4.58
4.95
4.97
4.67
4.26
4.00
4.05
4.39
4.77
4.93
4.70
4.12
3.39
2.76
2.37
2.16
1.94
1.49
0.77
-0.09
-0.82
-1.19
-1.16
-0.90
-0.79
-1.14
-2.14
-3.65
-5.37
-6.94
-8.09
-8.76
-9.01
-8.94
-8.61
-8.03
-7.19
-6.12
-4.95
-3.86
-3.01
-2.46
-2.19
-2.05
-1.90
-1.60
-1.11
-0.47
0.22
0.83
1.27
1.56
1.74
1.89
2.04
2.14
2.15
2.08
2.02
2.10
2.39
2.83
3.21
3.30
2.94
2.16
1.13
0.12
-0.66
-1.17
-1.46
-1.73
-2.12
-2.75
-3.65
-4.74
-5.90
-6.99
-7.82
-8.22
-8.03
-7.18
-5.70
-3.80
-1.81
-0.09
1.09
1.66
1.75
1.64
1.59
1.74
2.06
2.41
2.72
3.02
3.47
4.21
5.21
6.22
6.90
6.96
6.43
5.60
4.95
4.79
5.19
5.82
6.27
6.20
5.54
4.48
3.32
2.25
1.35
0.53
-0.24
-0.96
-1.55
-1.98
-2.32
-2.82
-3.74
-5.23
-7.19
-9.30
-11.10
-12.14
-12.13
-11.06
-9.15
-6.80
-4.41
-2.37
-0.86
0.12
0.68
1.01
1.23
1.38
1.41
1.29
1.05
0.82
0.81
1.14
1.88
2.93
4.11
5.21
6.04
6.50
6.59
6.40
6.06
5.67
5.27
4.88
4.44
3.97
3.49
3.04
2.64
2.21
1.64
0.80
-0.34
-1.69
-3.08
-4.28
-5.17
-5.71
-5.99
-6.08
-6.03
-5.80
-5.26
-4.36
-3.12
-1.67
-0.23
1.01
1.96
2.64
3.16
3.61
4.01
4.31
4.42
4.29
3.94
3.48
3.00
2.61
2.33
2.12
2.00
1.98
2.11
2.39
2.74
3.05
3.13
2.89
2.32
1.54
0.72
0.02
-0.47
-0.72
-0.77
-0.70
-0.56
-0.45
-0.49
-0.78
-1.38
-2.27
-3.38
-4.62
-5.87
-7.04
-8.03
-8.75
-9.08
-8.95
-8.34
-7.34
-6.10
-4.77
-3.46
-2.20
-0.95
0.33
1.59
2.74
3.63
4.12
4.18
3.87
3.35
2.80
2.42
2.33
2.59
3.14
3.88
4.63
5.16
5.27
4.88
4.01
2.82
1.54
0.37
-0.60
-1.41
-2.16
-2.91
-3.66
-4.35
-4.92
-5.36
-5.75
-6.19
-6.75
-7.45
-8.15
-8.72
-9.00
-8.88
-8.32
-7.32
-5.96
-4.33
-2.54
-0.76
0.88
2.25
3.30
4.00
4.40
4.55
4.52
4.33
4.01
3.59
3.16
2.89
2.88
3.17
3.59
3.91
3.93
3.62
3.15
2.80
2.79
3.08
3.45
3.59
3.32
2.71
1.99
1.39
0.96
0.55
-0.12
-1.20
-2.61
-4.14
-5.59
-6.87
-8.09
-9.40
-10.82
-12.19
-13.22
-13.61
-13.21
-12.10
-10.49
-8.67
-6.91
-5.39
-4.31
-3.77
-3.85
-4.44
-5.27
-5.93
-6.06
-5.51
-4.46
-3.37
-2.76
-3.00
-4.10
-5.69
-7.23
-8.20
-8.41
-8.01
-7.42
-7.05
-7.24
-8.15
-9.90
-12.55
-15.93
-19.40
-21.72
-21.41
-17.29
-9.19
1.89
14.15
25.76
35.64
43.68
50.36
56.13
60.82
63.64
63.70
60.57
54.65
47.05
39.09
31.78
25.57
20.38
15.88
11.77
8.00
4.65
1.85
-0.41
-2.31
-4.15
-6.16
-8.37
-10.57
-12.37
-13.42
-13.57
-12.92
-11.81
-10.64
-9.77
-9.36
-9.41
-9.67
-9.89
-9.81
-9.35
-8.65
-7.97
-7.65
-7.98
-9.05
-10.74
-12.78
-14.85
-16.69
-18.17
-19.34
-20.38
-21.48
-22.74
-24.09
-25.30
-26.02
-25.94
-24.96
-23.16
-20.88
-18.50
-16.35
-14.61
-13.24
-12.14
-11.16
-10.23
-9.29
-8.35
-7.36
-6.34
-5.29
-4.26
-3.21
-1.93
-0.09
2.67
6.47
11.06
15.80
19.87
22.59
23.67
23.34
22.14
20.72
19.53
18.72
18.21
17.83
17.41
16.92
16.36
15.77
15.09
14.26
13.19
11.88
10.41
8.99
7.88
7.34
7.51
8.42
9.89
11.68
13.44
14.83
15.58
15.52
14.58
12.78
10.25
7.18
3.86
0.61
-2.24
-4.44
-5.84
-6.43
-6.37
-5.94
-5.48
-5.28
-5.53
-6.19
-7.11
-8.05
-8.86
-9.50
-10.04
-10.62
-11.30
-12.05
-12.79
-13.42
-13.93
-14.37
-14.79
-15.20
-15.57
-15.83
-15.93
-15.82
-15.47
-14.83
-13.89
-12.64
-11.15
-9.46
-7.61
-5.55
-3.21
-0.65
1.98
4.40
6.29
7.46
7.87
7.68
7.13
6.49
6.00
5.81
6.01
6.53
7.21
7.84
8.22
8.24
7.95
7.43
6.82
6.12
5.28
4.22
2.90
1.40
-0.13
-1.50
-2.57
-3.26
-3.60
-3.72
-3.86
-4.27
-5.17
-6.63
-8.55
-10.63
-12.53
-13.88
-14.45
-14.15
-13.07
-11.43
-9.46
-7.45
-5.59
-4.01
-2.70
-1.54
-0.42
0.71
1.78
2.68
3.30
3.65
3.86
4.12
4.61
5.40
6.43
7.54
8.50
9.09
9.14
8.60
7.55
6.17
4.70
3.30
2.04
0.81
-0.47
-1.86
-3.29
-4.63
-5.79
-6.72
-7.49
-8.19
-8.87
-9.54
-10.17
-10.72
-11.15
-11.44
-11.54
-11.36
-10.74
-9.56
-7.74
-5.32
-2.51
0.43
3.17
5.45
7.10
8.11
8.55
8.57
8.31
7.91
7.49
7.12
6.86
6.72
6.70
6.77
6.94
7.17
7.39
7.47
7.30
6.80
6.04
5.17
4.39
3.87
3.67
3.73
3.90
4.03
4.01
3.78
3.32
2.58
1.55
0.22
-1.33
-2.97
-4.48
-5.67
-6.33
-6.37
-5.78
-4.63
-3.06
-1.27
0.55
2.19
3.54
4.55
5.28
5.77
6.09
6.25
6.24
6.04
5.68
5.22
4.78
4.47
4.37
4.49
4.74
4.98
5.01
4.70
4.03
3.03
1.86
0.62
-0.62
-1.87
-3.13
-4.38
-5.46
-6.19
-6.38
-5.92
-4.80
-3.11
-1.02
1.28
3.58
5.61
7.15
8.05
8.33
8.17
7.89
7.80
8.07
8.61
9.18
9.50
9.41
8.91
8.19
7.46
6.87
6.46
6.13
5.63
4.74
3.25
1.19
-1.21
-3.54
-5.31
-6.21
-6.34
-6.18
-6.42
-7.67
-10.10
-13.33
-16.60
-19.14
-20.51
-20.83
-20.73
-20.94
-22.10
-24.57
-28.45
-33.66
-39.69
-45.36
-48.76
-47.58
-40.05
-25.89
-6.71
14.51
34.57
51.34
64.30
74.13
81.77
87.47
90.64
90.33
86.06
78.24
68.15
57.36
47.06
37.82
29.62
22.22
15.42
9.31
4.16
0.30
-2.12
-3.30
-3.75
-4.17
-5.10
-6.77
-8.97
-11.24
-13.13
-14.37
-15.01
-15.28
-15.48
-15.83
-16.40
-17.14
-17.97
-18.76
-19.52
-20.26
-21.08
-22.08
-23.28
-24.53
-25.55
-25.99
-25.57
-24.15
-21.85
-18.95
-15.82
-12.82
-10.18
-7.98
-6.13
-4.51
-2.99
-1.59
-0.34
0.68
1.52
2.30
3.17
4.20
5.30
6.29
6.94
7.14
6.94
6.53
6.08
5.71
5.42
5.13
4.82
4.52
4.35
4.40
4.61
4.80
4.65
3.87
2.38
0.28
-2.13
-4.50
-6.61
-8.37
-9.75
-10.71
-11.13
-10.83
-9.76
-8.00
-5.86
-3.76
-2.03
-0.82
-0.09
0.33
0.62
0.89
1.20
1.57
2.00
2.48
2.98
3.41
3.69
3.75
3.59
3.26
2.85
2.42
1.99
1.50
0.82
-0.15
-1.39
-2.81
-4.18
-5.23
-5.78
-5.74
-5.16
-4.19
-2.98
-1.66
-0.31
1.10
2.57
4.06
5.49
6.70
7.49
7.75
7.49
6.86
6.11
5.48
5.10
4.98
5.06
5.32
5.74
6.37
7.16
7.95
8.49
8.54
8.04
7.10
5.96
4.86
3.94
3.18
2.48
1.78
1.12
0.60
0.31
0.20
0.10
-0.21
-0.85
-1.82
-2.98
-4.16
-5.24
-6.21
-7.17
-8.17
-9.21
-10.21
-11.06
-11.71
-12.22
-12.71
-13.21
-13.67
-13.89
-13.62
-12.69
-11.09
-9.02
-6.81
-4.80
-3.25
-2.21
-1.60
-1.27
-1.12
-1.11
-1.27
-1.61
-2.07
-2.46
-2.56
-2.20
-1.39
-0.29
0.81
1.70
2.28
2.61
2.81
2.99
3.17
3.30
3.32
3.17
2.83
2.30
1.58
0.66
-0.38
-1.48
-2.47
-3.27
-3.87
-4.37
-4.90
-5.48
-5.96
-5.98
-5.11
-2.98
0.51
5.10
10.26
15.30
19.58
22.70
24.57
25.48
26.07
27.21
29.86
34.84
42.60
52.99
65.42
79.05
93.31
108.07
123.61
140.27
158.05
176.23
193.53
208.48
219.95
227.62
232.22
235.42
239.49
246.68
258.48
274.87
294.02
312.58
326.67
333.06
330.20
318.52
299.95
277.00
251.89
226.15
200.66
175.82
151.80
128.51
105.44
81.81
56.78
29.97
1.66
-27.13
-55.21
-81.71
-106.61
-130.73
-155.21
-180.98
-208.13
-235.90
-262.97
-288.14
-310.39
-328.95
-342.98
-351.38
-353.02
-347.18
-334.03
-314.51
-290.31
-263.49
-236.68
-213.52
-198.52
-196.02
-207.99
-232.09
-261.19
-285.14
-294.32
-283.38
-253.21
-210.11
-162.77
-118.73
-81.96
-52.59
-28.32
-6.40
14.92
35.66
54.10
67.33
72.37
67.55
54.01
36.08
20.45
13.85
20.29
39.32
65.92
92.31
111.04
117.47
111.14
95.02
73.64
50.95
28.97
7.76
-13.73
-36.45
-60.70
-86.25
-113.23
-143.12
-178.83
-223.90
-280.71
-348.72
-423.40
-496.82
-559.65
-604.09
-626.19
-626.87
-610.87
-584.57
-553.41
-520.26
-485.53
-448.38
-408.49
-366.93
-325.91
-287.68
-253.33
-222.43
-193.43
-164.76
-135.63
-106.43
-78.37
-52.72
-30.30
-11.05
5.73
21.06
35.78
50.38
64.92
79.35
93.66
108.07
122.91
138.50
154.92
171.99
189.32
206.52
223.46
240.41
258.18
277.89
300.43
325.81
352.62
378.08
398.75
411.69
415.62
411.41
401.67
389.67
378.17
368.66
361.18
354.68
347.62
338.38
325.69
308.93
288.22
264.49
239.28
214.29
190.90
169.95
151.67
135.91
122.31
110.54
100.26
91.10
82.65
74.45
66.17
57.61
48.84
40.10
31.77
24.16
17.45
11.60
6.42
1.78
-2.34
-5.75
-8.28
-9.88
-10.77
-11.39
-12.26
-13.66
-15.54
-17.64
-19.52
-20.91
-21.76
-22.29
-22.80
-23.56
-24.60
-25.74
-26.67
-27.05
-26.67
-25.52
-23.81
-21.90
-20.13
-18.73
-17.75
-17.13
-16.74
-16.49
-16.35
-16.32
-16.37
-16.40
-16.30
-15.98
-15.47
-14.82
-14.12
-13.30
-12.21
-10.64
-8.58
-6.25
-4.08
-2.53
-1.85
-1.97
-2.52
-3.01
-3.08
-2.69
-2.05
-1.49
-1.26
-1.39
-1.77
-2.25
-2.75
-3.30
-3.96
-4.75
-5.56
-6.27
-6.78
-7.08
-7.29
-7.48
-7.70
-7.87
-7.87
-7.53
-6.77
-5.51
-3.78
-1.68
0.49
2.34
3.45
3.60
2.88
1.70
0.58
-0.06
-0.11
0.25
0.70
0.91
0.70
-0.07
-1.45
-3.49
-6.06
-8.80
-11.18
-12.64
-12.84
-11.83
-10.01
-7.99
-6.33
-5.37
-5.22
-5.75
-6.74
-7.85
-8.68
-8.86
-8.17
-6.62
-4.47
-2.22
-0.35
0.77
1.04
0.59
-0.32
-1.36
-2.26
-2.86
-3.01
-2.64
-1.72
-0.36
1.22
2.68
3.66
3.95
3.54
2.66
1.64
0.81
0.40
0.45
0.91
1.66
2.56
3.52
4.41
5.13
5.63
5.92
6.14
6.50
7.19
8.29
9.67
10.96
11.64
11.19
9.29
5.95
1.59
-3.10
-7.34
-10.52
-12.40
-13.10
-13.00
-12.50
-11.90
-11.30
-10.77
-10.56
-11.08
-12.83
-16.05
-20.46
-25.28
-29.41
-32.01
-32.74
-31.94
-30.32
-28.58
-27.06
-25.69
-24.14
-22.08
-19.40
-16.25
-12.95
-9.81
-7.02
-4.66
-2.67
-0.93
0.66
2.19
3.71
5.22
6.69
8.09
9.44
10.72
11.94
13.01
13.76
13.95
13.40
12.08
10.17
7.94
5.67
3.52
1.47
-0.53
-2.48
-4.24
-5.57
-6.27
-6.37
-6.11
-5.89
-6.10
-6.88
-8.14
-9.58
-10.80
-11.46
-11.33
-10.40
-8.82
-6.97
-5.27
-4.13
-3.71
-3.91
-4.34
-4.54
-4.15
-3.09
-1.55
0.10
1.53
2.59
3.31
3.82
4.20
4.44
4.49
4.34
4.07
3.85
3.86
4.14
4.58
4.91
4.83
4.14
2.84
1.07
-0.89
-2.79
-4.44
-5.83
-7.02
-8.15
-9.28
-10.41
-11.46
-12.29
-12.71
-12.59
-11.87
-10.56
-8.80
-6.85
-4.98
-3.43
-2.27
-1.44
-0.74
-0.02
0.77
1.50
1.95
1.98
1.60
1.00
0.49
0.32
0.60
1.22
1.93
2.48
2.75
2.79
2.75
2.84
3.12
3.58
4.15
4.72
5.22
5.62
5.85
5.83
5.48
4.74
3.65
2.33
0.92
-0.48
-1.79
-3.00
-4.11
-5.03
-5.69
-6.03
-6.09
-6.00
-5.96
-6.14
-6.59
-7.28
-8.02
-8.61
-8.86
-8.68
-8.11
-7.23
-6.13
-4.84
-3.37
-1.76
-0.13
1.34
2.45
3.11
3.40
3.49
3.57
3.79
4.19
4.69
5.16
5.53
5.82
6.11
6.57
7.26
8.11
8.94
9.44
9.37
8.64
7.40
5.96
4.63
3.58
2.79
2.12
1.42
0.64
-0.17
-0.89
-1.52
-2.15
-3.00
-4.28
-6.05
-8.08
-9.94
-11.16
-11.37
-10.49
-8.72
-6.46
-4.14
-2.06
-0.37
0.90
1.82
2.50
3.09
3.72
4.55
5.65
6.97
8.30
9.36
9.98
10.15
10.09
10.17
10.71
11.83
13.41
15.13
16.61
17.59
17.94
17.76
17.24
16.65
16.35
16.72
18.05
20.35
23.35
26.42
28.80
29.71
28.59
25.18
19.70
12.80
5.43
-1.53
-7.67
-13.15
-18.59
-24.29
-29.84
-33.89
-34.81
-31.69
-25.11
-17.23
-10.79
-7.91
-8.97
-12.65
-16.73
-19.37
-19.87
-18.72
-16.97
-15.38
-14.06
-12.55
-10.39
-7.51
-4.40
-1.84
-0.45
-0.44
-1.53
-3.18
-4.90
-6.34
-7.36
-7.88
-7.90
-7.44
-6.70
-6.04
-5.83
-6.28
-7.34
-8.68
-9.84
-10.44
-10.30
-9.49
-8.20
-6.65
-4.96
-3.20
-1.39
0.43
2.14
3.63
4.81
5.60
6.07
6.31
6.52
6.83
7.28
7.78
8.23
8.57
8.84
9.18
9.66
10.28
10.88
11.26
11.24
10.81
10.06
9.16
8.30
7.57
7.01
6.54
6.05
5.43
4.57
3.44
2.15
0.87
-0.28
-1.27
-2.21
-3.22
-4.35
-5.50
-6.40
-6.83
-6.69
-6.05
-5.14
-4.17
-3.20
-2.21
-1.11
0.12
1.40
2.53
3.37
3.87
4.12
4.29
4.54
4.95
5.51
6.09
6.60
6.97
7.19
7.34
7.48
7.67
7.86
7.98
7.87
7.42
6.60
5.51
4.31
3.17
2.12
1.09
-0.02
-1.29
-2.63
-3.93
-5.05
-5.99
-6.83
-7.74
-8.79
-9.88
-10.76
-11.14
-10.78
-9.66
-7.92
-5.84
-3.72
-1.78
-0.11
1.30
2.50
3.54
4.39
5.00
5.30
5.33
5.21
5.12
5.18
5.42
5.72
5.99
6.16
6.33
6.62
7.10
7.63
7.91
7.63
6.58
4.85
2.80
0.86
-0.59
-1.45
-1.84
-2.00
-2.20
-2.62
-3.38
-4.47
-5.86
-7.44
-9.00
-10.23
-10.83
-10.56
-9.34
-7.30
-4.73
-2.03
0.42
2.34
3.60
4.22
4.39
4.36
4.38
4.64
5.19
6.06
7.16
8.40
9.63
10.68
11.40
11.78
11.85
11.78
11.67
11.61
11.53
11.31
10.81
9.96
8.79
7.39
5.92
4.55
3.34
2.31
1.38
0.44
-0.63
-1.89
-3.32
-4.85
-6.41
-7.87
-9.09
-9.95
-10.26
-9.92
-8.93
-7.43
-5.67
-3.88
-2.18
-0.54
1.15
2.94
4.73
6.19
6.98
6.84
5.83
4.31
2.74
1.54
0.88
0.76
1.05
1.67
2.60
3.80
5.13
6.29
6.97
6.97
6.28
5.09
3.70
2.35
1.19
0.31
-0.30
-0.67
-0.88
-1.08
-1.46
-2.14
-3.09
-4.18
-5.19
-6.00
-6.66
-7.33
-8.15
-9.07
-9.83
-10.04
-9.34
-7.71
-5.39
-2.87
-0.59
1.20
2.52
3.55
4.45
5.25
5.85
6.12
6.02
5.67
5.27
5.06
5.19
5.61
6.16
6.62
6.80
6.63
6.20
5.67
5.25
4.99
4.80
4.45
3.71
2.49
1.00
-0.39
-1.26
-1.39
-0.96
-0.43
-0.36
-1.16
-2.87
-5.24
-7.85
-10.27
-12.23
-13.59
-14.26
-14.16
-13.24
-11.53
-9.17
-6.44
-3.70
-1.29
0.55
1.72
2.30
2.46
2.44
2.41
2.48
2.65
2.88
3.19
3.59
4.15
4.86
5.67
6.41
6.92
7.09
6.90
6.42
5.74
4.95
4.02
2.93
1.60
0.04
-1.68
-3.35
-4.76
-5.70
-6.19
-6.46
-6.90
-7.94
-9.76
-12.21
-14.76
-16.73
-17.55
-17.01
-15.33
-12.99
-10.56
-8.44
-6.80
-5.60
-4.73
-4.06
-3.53
-3.01
-2.37
-1.41
0.02
1.94
4.20
6.47
8.42
9.78
10.47
10.62
10.54
10.56
10.89
11.56
12.36
13.01
13.24
13.02
12.48
11.90
11.52
11.42
11.51
11.62
11.55
11.22
10.59
9.67
8.49
7.08
5.53
3.95
2.45
1.08
-0.19
-1.43
-2.73
-4.11
-5.54
-6.95
-8.29
-9.55
-10.70
-11.67
-12.30
-12.43
-11.89
-10.63
-8.69
-6.29
-3.73
-1.35
0.60
1.99
2.88
3.44
3.83
4.16
4.41
4.54
4.52
4.45
4.47
4.76
5.37
6.23
7.20
8.11
8.82
9.24
9.30
8.92
8.08
6.85
5.45
4.20
3.31
2.82
2.52
2.03
1.06
-0.48
-2.41
-4.44
-6.27
-7.86
-9.34
-10.92
-12.69
-14.48
-15.92
-16.60
-16.30
-15.05
-13.11
-10.81
-8.43
-6.08
-3.82
-1.68
0.17
1.58
2.45
2.83
2.93
3.02
3.23
3.56
3.88
4.07
4.13
4.20
4.45
4.92
5.54
6.09
6.38
6.32
5.98
5.51
5.07
4.77
4.60
4.50
4.36
4.03
3.36
2.25
0.71
-1.13
-3.01
-4.67
-5.98
-7.05
-8.11
-9.46
-11.14
-12.95
-14.47
-15.27
-15.11
-14.04
-12.29
-10.20
-7.99
-5.85
-3.85
-2.07
-0.62
0.46
1.20
1.76
2.29
2.89
3.52
4.05
4.32
4.30
4.01
3.61
3.25
3.04
3.01
3.13
3.26
3.28
3.05
2.48
1.57
0.43
-0.74
-1.72
-2.36
-2.61
-2.58
-2.51
-2.62
-3.13
-4.12
-5.54
-7.24
-9.03
-10.63
-11.79
-12.28
-11.91
-10.67
-8.69
-6.28
-3.82
-1.66
0.08
1.42
2.50
3.41
4.15
4.62
4.73
4.48
4.02
3.59
3.38
3.46
3.80
4.24
4.66
4.93
4.96
4.65
3.93
2.77
1.24
-0.47
-2.15
-3.59
-4.71
-5.56
-6.27
-6.91
-7.42
-7.58
-7.15
-6.03
-4.30
-2.26
-0.30
1.27
2.33
2.93
3.23
3.34
3.36
3.25
3.03
2.73
2.41
2.13
1.89
1.64
1.35
0.99
0.55
0.00
-0.70
-1.61
-2.76
-4.09
-5.43
-6.51
-7.08
-7.01
-6.42
-5.66
-5.29
-5.94
-7.96
-11.12
-14.41
-16.13
-14.33
-7.55
4.53
20.75
38.72
55.52
68.57
76.33
78.52
75.86
69.51
60.62
50.08
38.59
26.84
15.67
5.91
-1.78
-7.18
-10.58
-12.68
-14.27
-15.87
-17.56
-19.10
-20.03
-20.03
-19.06
-17.41
-15.54
-13.95
-12.98
-12.72
-13.04
-13.64
-14.16
-14.33
-14.02
-13.26
-12.23
-11.07
-9.89
-8.68
-7.41
-6.08
-4.81
-3.83
-3.32
-3.35
-3.73
-4.21
-4.49
-4.47
-4.27
-4.10
-4.15
-4.48
-4.98
-5.50
-5.90
-6.14
-6.28
-6.40
-6.60
-7.00
-7.73
-8.87
-10.43
-12.21
-13.86
-14.92
-15.04
-14.09
-12.19
-9.72
-7.17
-4.95
-3.31
-2.33
-1.89
-1.80
-1.88
-1.99
-2.06
-2.05
-1.91
-1.58
-1.07
-0.43
0.22
0.75
1.04
1.14
1.18
1.29
1.56
1.93
2.21
2.18
1.73
0.92
-0.04
-0.85
-1.30
-1.38
-1.29
-1.32
-1.75
-2.63
-3.82
-5.00
-5.97
-6.74
-7.51
-8.49
-9.68
-10.75
-11.13
-10.34
-8.23
-5.18
-1.90
0.82
2.49
3.01
2.70
2.05
1.48
1.24
1.33
1.57
1.68
1.39
0.54
-0.79
-2.39
-3.83
-4.77
-5.04
-4.73
-4.15
-3.67
-3.55
-3.89
-4.60
-5.43
-5.93
-5.38
-2.97
2.01
9.69
19.30
29.27
37.65
42.87
44.24
42.12
37.49
31.50
24.94
18.15
11.33
4.84
-0.68
-4.45
-5.89
-5.05
-2.64
0.18
2.20
2.65
1.44
-0.86
-3.36
-5.27
-6.20
-6.36
-6.28
-6.47
-7.11
-7.98
-8.55
-8.38
-7.31
-5.64
-3.91
-2.64
-2.07
-2.01
-2.05
-1.79
-1.11
-0.20
0.54
0.77
0.42
-0.34
-1.12
-1.63
-1.74
-1.52
-1.17
-0.90
-0.81
-0.91
-1.20
-1.72
-2.49
-3.58
-4.97
-6.52
-8.02
-9.20
-9.84
-9.81
-9.15
-8.06
-6.78
-5.59
-4.66
-4.02
-3.62
-3.36
-3.15
-2.93
-2.65
-2.28
-1.74
-0.96
0.07
1.28
2.53
3.63
4.46
4.96
5.16
5.14
4.95
4.62
4.17
3.59
2.85
1.97
0.97
-0.04
-0.96
-1.66
-2.12
-2.45
-2.81
-3.37
-4.20
-5.21
-6.23
-7.10
-7.72
-8.13
-8.42
-8.60
-8.64
-8.40
-7.76
-6.68
-5.25
-3.65
-2.06
-0.62
0.60
1.53
2.15
2.42
2.35
2.06
1.69
1.47
1.58
2.11
3.04
4.20
5.38
6.36
7.01
7.30
7.25
6.94
6.43
5.81
5.15
4.58
4.13
3.83
3.55
3.11
2.39
1.37
0.20
-0.88
-1.71
-2.27
-2.74
-3.37
-4.31
-5.49
-6.62
-7.32
-7.29
-6.47
-5.06
-3.37
-1.75
-0.41
0.56
1.20
1.50
1.46
1.04
0.32
-0.53
-1.23
-1.53
-1.30
-0.68
0.02
0.42
0.24
-0.63
-2.07
-3.80
-5.47
-6.80
-7.66
-8.16
-8.57
-9.21
-10.28
-11.79
-13.51
-15.08
-16.20
-16.74
-16.89
-17.02
-17.63
-19.22
-22.04
-25.81
-29.49
-31.41
-29.64
-22.68
-10.06
7.35
27.47
47.55
64.98
77.88
85.35
87.50
85.05
79.04
70.57
60.63
50.12
39.82
30.37
22.26
15.71
10.68
6.78
3.49
0.38
-2.67
-5.46
-7.58
-8.68
-8.70
-7.97
-7.05
-6.53
-6.79
-7.83
-9.40
-11.09
-12.59
-13.77
-14.71
-15.64
-16.73
-18.00
-19.28
-20.34
-21.01
-21.29
-21.38
-21.51
-21.90
-22.55
-23.31
-23.94
-24.17
-23.81
-22.76
-20.97
-18.51
-15.55
-12.32
-9.11
-6.14
-3.56
-1.44
0.19
1.30
1.91
2.10
2.02
1.82
1.63
1.54
1.63
1.98
2.68
3.84
5.44
7.34
9.22
10.66
11.26
10.79
9.30
7.14
4.93
3.29
2.65
3.01
3.97
4.88
5.24
4.87
4.00
3.04
2.37
2.07
1.99
1.82
1.33
0.42
-0.88
-2.42
-4.07
-5.66
-6.99
-7.86
-8.17
-7.94
-7.34
-6.65
-6.10
-5.82
-5.76
-5.80
-5.82
-5.83
-5.95
-6.37
-7.16
-8.28
-9.48
-10.46
-11.03
-11.17
-11.06
-10.96
-11.08
-11.44
-11.97
-12.58
-13.16
-13.55
-13.32
-11.80
-8.24
-2.21
6.01
15.37
24.45
32.00
37.44
40.83
42.51
42.57
40.67
36.34
29.48
20.86
11.99
4.66
0.15
-1.17
0.08
2.65
5.21
6.71
6.68
5.16
2.61
-0.35
-3.13
-5.38
-7.02
-8.14
-8.83
-9.02
-8.58
-7.45
-5.82
-4.10
-2.80
-2.23
-2.33
-2.71
-2.91
-2.66
-2.00
-1.28
-0.90
-1.09
-1.80
-2.78
-3.75
-4.50
-5.01
-5.30
-5.41
-5.32
-4.92
-4.15
-3.08
-1.94
-1.11
-0.89
-1.47
-2.79
-4.65
-6.71
-8.68
-10.30
-11.44
-12.00
-12.01
-11.50
-10.52
-9.17
-7.54
-5.75
-3.93
-2.22
-0.70
0.65
1.89
3.06
4.15
5.05
5.69
6.05
6.29
6.70
7.47
8.63
9.92
10.94
11.34
11.05
10.29
9.49
9.03
9.02
9.35
9.70
9.78
9.39
8.51
7.20
5.53
3.52
1.22
-1.32
-3.93
-6.41
-8.59
-10.43
-12.05
-13.66
-15.47
-17.55
-19.74
-21.74
-23.19
-23.79
-23.38
-21.96
-19.59
-16.39
-12.57
-8.41
-4.35
-0.79
1.98
3.89
5.14
6.01
6.73
7.32
7.69
7.69
7.31
6.70
6.17
6.00
6.27
6.88
7.56
8.02
8.13
7.86
7.35
6.77
6.24
5.76
5.27
4.66
3.86
2.89
1.82
0.79
-0.11
-0.81
-1.36
-1.91
-2.64
-3.77
-5.33
-7.16
-8.87
-10.02
-10.23
-9.38
-7.69
-5.61
-3.63
-2.01
-0.82
0.13
1.02
1.92
2.69
3.05
2.76
1.78
0.37
-1.07
-2.07
-2.38
-2.02
-1.25
-0.43
0.18
0.50
0.64
0.76
0.96
1.22
1.37
1.19
0.56
-0.49
-1.78
-3.01
-3.96
-4.53
-4.76
-4.83
-4.92
-5.20
-5.81
-6.80
-8.18
-9.73
-10.90
-10.82
-8.45
-3.13
4.95
14.65
24.01
31.05
34.39
33.67
29.47
22.93
15.25
7.44
0.28
-5.57
-9.56
-11.38
-11.04
-9.01
-6.02
-2.84
-0.08
1.94
3.10
3.39
2.91
1.88
0.59
-0.62
-1.49
-1.90
-1.93
-1.79
-1.70
-1.78
-2.08
-2.58
-3.28
-4.26
-5.55
-7.13
-8.76
-10.11
-10.82
-10.76
-10.06
-9.12
-8.40
-8.28
-8.87
-10.02
-11.43
-12.73
-13.55
-13.60
-12.64
-10.65
-7.78
-4.46
-1.23
1.44
3.31
4.44
5.14
5.67
6.14
6.45
6.40
5.91
5.10
4.27
3.75
3.65
3.89
4.25
4.52
4.61
4.58
4.53
4.46
4.34
4.07
3.61
3.01
2.34
1.66
1.02
0.41
-0.15
-0.64
-1.05
-1.47
-2.08
-3.08
-4.55
-6.34
-8.10
-9.41
-9.93
-9.63
-8.71
-7.48
-6.21
-5.00
-3.81
-2.66
-1.58
-0.74
-0.28
-0.20
-0.32
-0.42
-0.31
-0.00
0.35
0.57
0.55
0.38
0.24
0.34
0.72
1.32
1.94
2.36
2.40
2.01
1.26
0.30
-0.71
-1.65
-2.48
-3.23
-4.01
-4.89
-5.90
-6.95
-7.84
-8.25
-7.94
-6.78
-4.90
-2.62
-0.37
1.46
2.72
3.44
3.83
4.06
4.27
4.41
4.40
4.13
3.61
2.99
2.50
2.40
2.80
3.64
4.68
5.55
5.95
5.74
4.94
3.71
2.30
1.08
0.60
1.50
4.27
8.83
14.32
19.27
22.16
22.15
19.51
15.60
12.12
10.30
10.45
11.93
13.76
15.28
16.45
17.64
19.20
20.97
22.20
21.89
19.22
13.98
6.73
-1.40
-9.07
-15.07
-18.69
-19.84
-18.98
-17.01
-14.92
-13.49
-13.10
-13.62
-14.61
-15.53
-15.97
-15.77
-14.99
-13.80
-12.32
-10.58
-8.58
-6.30
-3.84
-1.42
0.71
2.32
3.36
3.95
4.31
4.65
5.06
5.46
5.70
5.65
5.29
4.69
4.02
3.39
2.85
2.37
1.91
1.46
0.98
0.39
-0.43
-1.65
-3.38
-5.55
-7.96
-10.30
-12.29
-13.70
-14.41
-14.43
-13.78
-12.55
-10.86
-8.86
-6.79
-4.83
-3.13
-1.74
-0.66
0.13
0.60
0.77
0.67
0.43
0.26
0.40
1.03
2.14
3.53
4.77
5.40
5.08
3.80
1.89
-0.05
-1.47
-2.06
-1.97
-1.69
-1.83
-2.82
-4.75
-7.39
-10.31
-12.98
-14.83
-15.21
-13.54
-9.48
-3.24
4.25
11.58
17.32
20.68
21.79
21.56
21.06
20.96
21.24
21.40
20.94
19.75
18.21
16.92
16.27
16.21
16.33
16.06
15.04
13.29
11.14
9.03
7.32
6.13
5.31
4.54
3.46
1.86
-0.18
-2.31
-4.12
-5.28
-5.76
-5.85
-5.98
-6.63
-7.99
-9.98
-12.29
-14.57
-16.60
-18.27
-19.65
-20.79
-21.70
-22.25
-22.30
-21.73
-20.49
-18.60
-16.18
-13.41
-10.51
-7.78
-5.46
-3.70
-2.49
-1.60
-0.74
0.30
1.58
2.92
4.03
4.65
4.71
4.35
3.84
3.46
3.35
3.48
3.74
4.00
4.25
4.51
4.79
4.92
4.63
3.64
1.87
-0.44
-2.72
-4.29
-4.64
-3.58
-1.34
1.61
4.75
7.65
10.05
11.84
13.00
13.55
13.55
13.07
12.28
11.42
10.77
10.57
10.89
11.62
12.49
13.24
13.72
13.94
14.06
14.21
14.44
14.67
14.73
14.47
13.89
13.06
12.12
11.21
10.39
9.66
8.98
8.31
7.62
6.83
5.93
4.88
3.74
2.54
1.38
0.29
-0.75
-1.84
-3.13
-4.73
-6.61
-8.64
-10.61
-12.29
-13.66
-14.78
-15.77
-16.65
-17.30
-17.44
-16.81
-15.30
-13.01
-10.21
-7.24
-4.40
-1.87
0.27
1.95
3.16
3.89
4.26
4.42
4.56
4.85
5.31
5.87
6.43
6.89
7.27
7.62
8.00
8.41
8.74
8.86
8.64
8.10
7.37
6.63
6.00
5.46
4.88
4.07
2.94
1.59
0.22
-0.91
-1.61
-1.86
-1.82
-1.73
-1.86
-2.39
-3.37
-4.79
-6.60
-8.61
-10.38
-11.17
-10.01
-6.05
1.02
10.63
21.32
31.18
38.38
41.63
40.36
34.70
25.21
12.90
-0.87
-14.38
-25.76
-33.47
-36.67
-35.55
-31.09
-24.74
-17.87
-11.44
-5.97
-1.65
1.49
3.44
4.27
4.16
3.41
2.37
1.37
0.53
-0.10
-0.62
-1.13
-1.70
-2.39
-3.22
-4.21
-5.28
-6.32
-7.15
-7.72
-8.14
-8.66
-9.58
-10.95
-12.57
-13.99
-14.72
-14.51
-13.33
-11.43
-9.12
-6.66
-4.19
-1.78
0.56
2.77
4.75
6.40
7.62
8.35
8.54
8.15
7.27
6.06
4.83
3.92
3.62
4.06
5.10
6.44
7.63
8.28
8.17
7.31
5.95
4.40
3.01
1.98
1.40
1.20
1.26
1.43
1.61
1.73
1.78
1.79
1.72
1.54
1.15
0.47
-0.57
-1.98
-3.72
-5.72
-7.85
-9.91
-11.60
-12.58
-12.56
-11.46
-9.47
-6.96
-4.37
-2.04
-0.14
1.38
2.59
3.52
4.13
4.35
4.15
3.62
2.93
2.32
1.93
1.85
2.05
2.51
3.17
4.01
5.00
6.08
7.18
8.17
8.95
9.41
9.55
9.38
8.98
8.39
7.65
6.73
5.68
4.52
3.36
2.27
1.22
0.11
-1.21
-2.88
-4.85
-6.95
-8.92
-10.50
-11.54
-11.92
-11.62
-10.64
-9.07
-7.06
-4.89
-2.91
-1.39
-0.45
-0.05
0.01
-0.06
-0.12
-0.11
-0.02
0.15
0.43
0.87
1.47
2.14
2.75
3.15
3.20
2.90
2.34
1.66
1.05
0.63
0.41
0.26
-0.07
-0.81
-2.09
-3.77
-5.52
-6.88
-7.53
-7.43
-6.87
-6.39
-6.56
-7.76
-9.97
-12.84
-15.73
-18.00
-19.16
-19.11
-18.06
-16.48
-14.89
-13.72
-13.21
-13.44
-14.25
-15.10
-15.03
-12.81
-7.47
1.06
11.55
21.69
28.95
31.80
30.37
26.29
21.84
18.69
17.34
17.24
17.48
17.62
17.79
18.52
20.05
22.01
23.58
23.93
22.66
19.89
16.24
12.40
8.83
5.71
2.95
0.35
-2.33
-5.17
-8.18
-11.18
-13.95
-16.32
-18.21
-19.59
-20.47
-20.85
-20.70
-19.95
-18.57
-16.60
-14.16
-11.48
-8.87
-6.63
-5.02
-4.09
-3.74
-3.69
-3.60
-3.21
-2.39
-1.17
0.32
1.87
3.31
4.49
5.33
5.76
5.84
5.66
5.33
4.96
4.56
4.09
3.48
2.65
1.60
0.40
-0.81
-1.84
-2.49
-2.69
-2.52
-2.17
-1.88
-1.87
-2.20
-2.84
-3.69
-4.70
-5.90
-7.26
-8.68
-9.84
-10.35
-9.95
-8.67
-6.83
-4.95
-3.47
-2.53
-2.01
-1.63
-1.16
-0.56
0.03
0.44
0.62
0.67
0.83
1.37
2.39
3.79
5.33
6.72
7.77
8.47
8.92
9.28
9.64
9.93
10.00
9.75
9.15
8.28
7.31
6.34
5.41
4.48
3.52
2.50
1.39
0.14
-1.34
-3.10
-5.09
-7.13
-8.89
-10.11
-10.60
-10.44
-9.86
-9.16
-8.58
-8.19
-7.88
-7.41
-6.56
-5.27
-3.66
-2.04
-0.77
-0.12
-0.13
-0.61
-1.21
-1.64
-1.72
-1.45
-0.92
-0.20
0.70
1.78
3.02
4.25
5.25
5.83
5.90
5.57
5.08
4.66
4.41
4.29
4.18
3.95
3.53
2.90
2.04
0.83
-0.87
-3.17
-5.98
-9.02
-11.79
-13.80
-14.69
-14.36
-13.01
-11.03
-8.89
-7.07
-5.92
-5.62
-6.23
-7.58
-9.42
-11.38
-13.13
-14.45
-15.25
-15.61
-15.68
-15.59
-15.20
-14.16
-11.90
-7.96
-2.20
4.94
12.47
19.24
24.27
27.21
28.39
28.51
28.26
27.99
27.69
27.18
26.41
25.53
24.84
24.44
24.14
23.42
21.75
18.79
14.67
9.88
5.07
0.82
-2.56
-5.06
-6.89
-8.40
-9.85
-11.30
-12.63
-13.55
-13.79
-13.33
-12.39
-11.35
-10.59
-10.23
-10.18
-10.13
-9.85
-9.28
-8.57
-7.92
-7.47
-7.14
-6.71
-5.95
-4.74
-3.21
-1.63
-0.35
0.38
0.47
0.01
-0.79
-1.70
-2.54
-3.19
-3.57
-3.69
-3.59
-3.41
-3.38
-3.71
-4.57
-5.92
-7.55
-9.13
-10.33
-10.97
-10.98
-10.44
-9.41
-7.96
-6.13
-3.97
-1.62
0.73
2.84
4.54
5.75
6.45
6.77
6.84
6.82
6.83
6.96
7.24
7.64
8.11
8.53
8.83
8.96
8.92
8.72
8.41
8.02
7.57
7.07
6.52
5.89
5.17
4.29
3.25
2.06
0.83
-0.36
-1.41
-2.31
-3.07
-3.76
-4.42
-5.12
-5.90
-6.87
-8.07
-9.48
-10.92
-12.08
-12.64
-12.36
-11.22
-9.46
-7.45
-5.62
-4.24
-3.44
-3.12
-3.10
-3.15
-3.10
-2.91
-2.67
-2.45
-2.36
-2.36
-2.36
-2.23
-1.87
-1.17
0.07
2.19
5.50
10.06
15.44
20.62
24.38
25.78
24.57
21.34
17.16
13.10
9.78
7.27
5.37
4.00
3.39
3.94
5.87
8.90
12.24
14.87
15.91
14.99
12.28
8.43
4.21
0.33
-2.79
-5.08
-6.76
-8.14
-9.48
-10.80
-11.89
-12.48
-12.41
-11.85
-11.23
-11.06
-11.55
-12.53
-13.48
-13.83
-13.30
-12.00
-10.35
-8.74
-7.41
-6.25
-5.06
-3.69
-2.17
-0.72
0.40
0.96
0.96
0.54
-0.05
-0.49
-0.57
-0.20
0.53
1.41
2.19
2.66
2.74
2.43
1.82
0.95
-0.16
-1.52
-3.06
-4.62
-6.00
-7.00
-7.47
-7.35
-6.67
-5.48
-3.86
-1.94
0.07
1.94
3.49
4.64
5.48
6.22
7.03
7.96
8.86
9.51
9.66
9.25
8.44
7.54
6.90
6.73
7.00
7.47
7.84
7.84
7.41
6.72
6.06
5.73
5.88
6.38
6.90
7.07
6.66
5.63
4.15
2.51
0.90
-0.54
-1.80
-2.86
-3.66
-4.19
-4.45
-4.65
-5.02
-5.79
-7.01
-8.45
-9.76
-10.55
-10.67
-10.16
-9.25
-8.18
-7.07
-5.89
-4.55
-2.98
-1.26
0.38
1.72
2.59
2.98
3.04
3.00
3.03
3.26
3.67
4.15
4.56
4.78
4.77
4.58
4.33
4.15
4.18
4.40
4.74
5.03
5.13
4.93
4.39
3.58
2.61
1.64
0.80
0.17
-0.23
-0.52
-0.82
-1.20
-1.62
-1.98
-2.20
-2.35
-2.64
-3.30
-4.43
-5.86
-7.20
-7.99
-7.93
-6.97
-5.28
-3.16
-0.84
1.48
3.71
5.70
7.36
8.53
9.17
9.35
9.24
9.12
9.33
10.08
11.38
12.88
13.96
13.89
12.08
8.31
2.90
-3.47
-9.97
-15.94
-21.02
-25.04
-27.91
-29.42
-29.32
-27.44
-23.87
-19.03
-13.56
-8.18
-3.50
0.07
2.34
3.31
3.12
2.01
0.30
-1.70
-3.80
-5.91
-8.01
-10.00
-11.70
-12.84
-13.26
-12.98
-12.22
-11.23
-10.19
-9.05
-7.67
-6.00
-4.23
-2.77
-2.00
-2.09
-2.81
-3.60
-3.86
-3.22
-1.67
0.44
2.57
4.27
5.35
5.93
6.30
6.80
7.57
8.53
9.41
9.92
9.92
9.48
8.88
8.37
8.07
7.90
7.63
7.06
6.16
5.13
4.26
3.80
3.78
3.96
3.95
3.36
2.01
-0.05
-2.55
-5.12
-7.45
-9.33
-10.67
-11.40
-11.48
-10.92
-9.82
-8.42
-6.97
-5.66
-4.56
-3.57
-2.57
-1.48
-0.38
0.59
1.24
1.50
1.43
1.22
1.04
1.05
1.34
1.96
2.82
3.75
4.47
4.71
4.39
3.66
2.84
2.30
2.15
2.27
2.34
2.07
1.36
0.40
-0.52
-1.13
-1.33
-1.20
-0.89
-0.56
-0.32
-0.26
-0.52
-1.19
-2.34
-3.89
-5.60
-7.15
-8.22
-8.59
-8.21
-7.19
-5.75
-4.12
-2.49
-0.97
0.40
1.55
2.39
2.84
2.86
2.52
2.01
1.61
1.54
1.87
2.50
3.21
3.80
4.17
4.39
4.55
4.77
5.04
5.33
5.55
5.62
5.57
5.39
5.13
4.77
4.25
3.56
2.70
1.73
0.67
-0.43
-1.62
-2.93
-4.38
-5.91
-7.49
-9.03
-10.50
-11.82
-12.85
-13.38
-13.19
-12.17
-10.43
-8.31
-6.26
-4.60
-3.46
-2.67
-1.99
-1.18
-0.18
0.92
1.95
2.81
3.47
3.96
4.35
4.72
5.11
5.62
6.27
7.10
8.03
8.94
9.70
10.21
10.46
10.49
10.42
10.36
10.35
10.34
10.20
9.82
9.20
8.50
8.00
7.99
8.58
9.67
10.92
12.02
12.72
13.07
13.31
13.69
14.40
15.50
16.99
18.89
21.27
24.14
27.32
30.36
32.60
33.36
32.23
29.25
24.88
19.87
14.94
10.61
7.08
4.26
1.96
0.02
-1.73
-3.44
-5.31
-7.61
-10.54
-14.15
-18.21
-22.34
-26.13
-29.41
-32.29
-35.06
-37.98
-41.04
-43.93
-46.07
-46.90
-46.03
-43.48
-39.63
-35.15
-30.84
-27.44
-25.44
-24.98
-25.78
-27.29
-28.86
-29.98
-30.39
-30.07
-29.13
-27.69
-25.77
-23.34
-20.47
-17.25
-13.88
-10.57
-7.45
-4.59
-2.02
0.23
2.07
3.43
4.28
4.71
4.90
5.12
5.61
6.48
7.73
9.19
10.65
11.92
12.88
13.56
13.98
14.22
14.23
14.03
13.62
13.10
12.66
12.41
12.33
12.19
11.71
10.59
8.81
6.55
4.21
2.11
0.46
-0.80
-1.83
-2.81
-3.79
-4.67
-5.28
-5.46
-5.15
-4.35
-3.08
-1.36
0.72
2.98
5.09
6.67
7.47
7.48
6.95
6.29
5.90
6.01
6.67
7.79
9.24
10.91
12.60
14.11
15.12
15.43
15.03
14.16
13.24
12.63
12.47
12.59
12.62
12.24
11.23
9.66
7.73
5.70
3.76
2.05
0.63
-0.45
-1.21
-1.70
-2.01
-2.21
-2.31
-2.26
-1.91
-1.17
0.04
1.60
3.37
5.18
6.89
8.47
9.93
11.27
12.43
13.32
13.84
14.03
14.08
14.30
14.99
16.26
17.97
19.73
21.08
21.64
21.34
20.40
19.21
18.07
17.02
15.81
14.01
11.35
7.79
3.64
-0.57
-4.26
-6.82
-7.68
-6.35
-2.66
2.96
9.24
14.20
15.71
12.36
4.13
-7.42
-19.67
-30.00
-36.72
-39.59
-39.57
-38.09
-36.26
-34.40
-32.20
-29.07
-24.72
-19.42
-13.87
-8.87
-4.93
-2.16
-0.28
1.11
2.32
3.41
4.36
5.07
5.58
6.05
6.71
7.72
9.01
10.28
11.09
11.05
10.02
8.22
6.12
4.28
3.11
2.68
2.81
3.08
3.09
2.58
1.53
0.12
-1.29
-2.34
-2.79
-2.65
-2.12
-1.58
-1.36
-1.65
-2.39
-3.35
-4.18
-4.61
-4.46
-3.68
-2.36
-0.66
1.18
2.93
4.39
5.45
6.08
6.34
6.30
6.07
5.75
5.46
5.36
5.59
6.22
7.26
8.57
9.92
11.05
11.78
12.06
12.01
11.85
11.80
11.92
12.11
12.12
11.69
10.69
9.21
7.50
5.84
4.38
3.09
1.85
0.50
-1.08
-2.94
-5.04
-7.32
-9.63
-11.77
-13.47
-14.49
-14.68
-14.06
-12.84
-11.29
-9.65
-8.00
-6.30
-4.46
-2.45
-0.41
1.44
2.85
3.65
3.89
3.77
3.56
3.48
3.65
4.03
4.52
5.06
5.62
6.21
6.83
7.37
7.78
7.97
7.92
7.61
7.04
6.20
5.06
3.70
2.25
0.96
0.04
-0.44
-0.57
-0.60
-0.83
-1.47
-2.55
-3.93
-5.32
-6.45
-7.08
-7.11
-6.50
-5.34
-3.76
-1.92
-0.00
1.81
3.35
4.51
5.19
5.36
5.07
4.41
3.59
2.82
2.36
2.38
2.88
3.73
4.67
5.46
5.90
5.96
5.72
5.33
4.96
4.73
4.71
4.86
5.04
5.08
4.84
4.23
3.29
2.17
1.04
0.05
-0.74
-1.37
-1.98
-2.71
-3.68
-4.94
-6.42
-7.95
-9.29
-10.21
-10.54
-10.24
-9.41
-8.24
-6.88
-5.45
-4.00
-2.55
-1.16
0.02
0.81
1.13
1.02
0.70
0.53
0.77
1.56
2.80
4.22
5.49
6.42
6.93
7.12
7.15
7.20
7.37
7.64
7.89
7.91
7.52
6.60
5.23
3.64
2.12
0.90
0.04
-0.57
-1.14
-1.86
-2.79
-3.85
-4.86
-5.74
-6.46
-7.17
-8.02
-9.06
-10.11
-10.86
-10.93
-10.07
-8.30
-5.92
-3.34
-0.98
0.92
2.36
3.44
4.32
5.10
5.79
6.35
6.75
7.02
7.15
7.20
7.21
7.20
7.20
7.22
7.19
7.04
6.69
6.06
5.23
4.33
3.54
2.95
2.49
1.98
1.15
-0.23
-2.26
-4.81
-7.63
-10.33
-12.58
-14.15
-15.02
-15.35
-15.47
-15.69
-16.18
-16.94
-17.73
-18.23
-18.17
-17.46
-16.15
-14.44
-12.48
-10.41
-8.25
-6.09
-4.03
-2.26
-0.91
0.02
0.65
1.24
1.96
2.85
3.74
4.42
4.71
4.61
4.29
4.00
3.97
4.32
5.03
6.00
7.04
7.95
8.49
8.45
7.68
6.20
4.23
2.09
0.12
-1.48
-2.72
-3.79
-4.89
-6.16
-7.58
-9.03
-10.38
-11.55
-12.53
-13.30
-13.77
-13.80
-13.22
-11.98
-10.21
-8.15
-6.11
-4.28
-2.75
-1.49
-0.45
0.45
1.19
1.78
2.14
2.32
2.38
2.47
2.70
3.14
3.78
4.53
5.27
5.88
6.27
6.38
6.18
5.70
4.94
3.98
2.89
1.82
0.87
0.11
-0.45
-0.89
-1.32
-1.86
-2.57
-3.47
-4.55
-5.78
-7.12
-8.47
-9.67
-10.50
-10.80
-10.45
-9.48
-8.02
-6.26
-4.41
-2.65
-1.13
0.06
0.92
1.50
1.90
2.22
2.50
2.71
2.84
2.88
2.93
3.11
3.51
4.13
4.87
5.58
6.13
6.46
6.55
6.40
6.04
5.48
4.76
3.89
2.91
1.90
0.94
0.08
-0.68
-1.37
-2.05
-2.75
-3.46
-4.19
-4.92
-5.69
-6.56
-7.56
-8.64
-9.67
-10.44
-10.74
-10.47
-9.64
-8.33
-6.71
-4.91
-3.07
-1.32
0.20
1.36
2.06
2.25
1.97
1.33
0.53
-0.19
-0.63
-0.60
-0.07
0.93
2.22
3.58
4.82
5.81
6.54
7.04
7.36
7.50
7.45
7.17
6.64
5.90
5.01
4.03
3.02
1.97
0.85
-0.33
-1.56
-2.76
-3.85
-4.81
-5.74
-6.82
-8.18
-9.85
-11.63
-13.20
-14.19
-14.41
-13.89
-12.88
-11.66
-10.41
-9.14
-7.74
-6.15
-4.44
-2.81
-1.50
-0.66
-0.24
-0.08
0.03
0.24
0.58
1.01
1.52
2.12
2.82
3.60
4.32
4.86
5.14
5.19
5.19
5.27
5.45
5.58
5.52
5.14
4.52
3.86
3.31
2.94
2.62
2.14
1.33
0.14
-1.32
-2.92
-4.53
-6.09
-7.55
-8.83
-9.73
-10.08
-9.75
-8.75
-7.28
-5.60
-3.93
-2.41
-1.02
0.29
1.57
2.77
3.77
4.47
4.88
5.09
5.25
5.50
5.88
6.41
7.07
7.81
8.61
9.43
10.18
10.79
11.13
11.17
10.92
10.47
9.94
9.43
8.93
8.32
7.45
6.16
4.40
2.32
0.17
-1.73
-3.20
-4.26
-5.13
-6.14
-7.56
-9.50
-11.83
-14.26
-16.42
-17.99
-18.74
-18.61
-17.66
-16.03
-13.95
-11.70
-9.51
-7.57
-5.97
-4.70
-3.71
-2.93
-2.28
-1.71
-1.13
-0.44
0.49
1.71
3.23
4.93
6.66
8.32
9.88
11.35
12.73
13.99
15.02
15.76
16.16
16.26
16.14
15.92
15.69
15.45
15.13
14.57
13.59
12.07
10.03
7.67
5.31
3.29
1.75
0.61
-0.45
-1.76
-3.53
-5.75
-8.18
-10.47
-12.32
-13.52
-13.95
-13.62
-12.59
-11.00
-9.03
-6.93
-4.96
-3.32
-2.06
-1.13
-0.38
0.30
1.00
1.68
2.31
2.85
3.35
3.84
4.37
4.92
5.49
6.05
6.69
7.42
8.23
8.94
9.30
9.11
8.30
6.99
5.45
3.98
2.77
1.87
1.22
0.65
0.03
-0.76
-1.75
-2.88
-3.98
-4.91
-5.62
-6.23
-6.96
-8.01
-9.36
-10.73
-11.70
-11.86
-11.06
-9.43
-7.32
-5.10
-2.97
-1.00
0.79
2.39
3.66
4.47
4.75
4.59
4.18
3.79
3.62
3.84
4.49
5.49
6.67
7.84
8.79
9.39
9.62
9.57
9.35
9.10
8.85
8.58
8.22
7.67
6.90
5.90
4.68
3.26
1.69
0.02
-1.68
-3.33
-4.90
-6.35
-7.69
-8.94
-10.17
-11.41
-12.62
-13.66
-14.25
-14.11
-13.03
-11.01
-8.26
-5.21
-2.29
0.18
2.07
3.48
4.56
5.42
6.11
6.64
7.00
7.23
7.39
7.53
7.67
7.82
7.99
8.20
8.52
8.99
9.59
10.24
10.78
11.05
10.89
10.27
9.20
7.79
6.20
4.60
3.10
1.76
0.51
-0.73
-2.03
-3.37
-4.65
-5.70
-6.37
-6.68
-6.81
-7.06
-7.71
-8.88
-10.44
-12.01
-13.09
-13.28
-12.32
-10.30
-7.54
-4.53
-1.71
0.61
2.37
3.72
4.83
5.84
6.71
7.28
7.40
7.06
6.46
5.87
5.58
5.71
6.24
7.05
7.92
8.70
9.24
9.47
9.38
9.05
8.56
8.06
7.58
7.15
6.68
6.14
5.56
5.00
4.54
4.17
3.83
3.33
2.58
1.57
0.41
-0.73
-1.77
-2.71
-3.64
-4.67
-5.79
-6.88
-7.76
-8.25
-8.18
-7.49
-6.19
-4.36
-2.19
0.02
1.95
3.31
3.96
3.97
3.58
3.14
2.93
3.05
3.42
3.85
4.16
4.27
4.27
4.33
4.61
5.20
6.01
6.87
7.51
7.72
7.39
6.56
5.38
4.07
2.90
2.04
1.60
1.51
1.53
1.41
0.91
0.00
-1.17
-2.33
-3.26
-3.86
-4.30
-4.89
-5.90
-7.45
-9.36
-11.29
-12.87
-13.84
-14.10
-13.69
-12.71
-11.31
-9.70
-8.13
-6.84
-5.96
-5.48
-5.20
-4.85
-4.25
-3.42
-2.54
-1.83
-1.41
-1.25
-1.15
-0.91
-0.45
0.20
0.91
1.56
2.11
2.61
3.13
3.67
4.14
4.42
4.41
4.08
3.51
2.82
2.13
1.50
0.93
0.38
-0.23
-0.92
-1.72
-2.63
-3.63
-4.69
-5.77
-6.83
-7.79
-8.57
-9.03
-9.05
-8.55
-7.52
-6.05
-4.30
-2.46
-0.67
0.95
2.30
3.31
3.97
4.32
4.44
4.51
4.65
4.90
5.25
5.62
5.93
6.18
6.35
6.47
6.53
6.53
6.49
6.42
6.32
6.18
5.99
5.73
5.37
4.89
4.20
3.24
1.98
0.47
-1.08
-2.37
-3.16
-3.35
-3.09
-2.75
-2.74
-3.36
-4.67
-6.41
-8.21
-9.71
-10.65
-10.97
-10.66
-9.80
-8.44
-6.66
-4.59
-2.43
-0.38
1.37
2.70
3.54
3.90
3.85
3.50
3.04
2.67
2.51
2.59
2.83
3.12
3.41
3.73
4.20
4.83
5.51
6.01
6.07
5.58
4.62
3.45
2.37
1.59
1.17
0.98
0.84
0.60
0.21
-0.33
-0.90
-1.41
-1.81
-2.06
-2.24
-2.48
-2.96
-3.83
-5.15
-6.80
-8.49
-9.88
-10.69
-10.79
-10.21
-9.10
-7.62
-5.89
-4.05
-2.25
-0.63
0.64
1.52
2.07
2.39
2.60
2.74
2.82
2.85
2.91
3.14
3.62
4.33
5.11
5.74
6.06
6.10
5.96
5.78
5.63
5.47
5.21
4.77
4.15
3.42
2.62
1.76
0.79
-0.32
-1.54
-2.78
-3.87
-4.72
-5.36
-5.92
-6.58
-7.51
-8.70
-10.03
-11.26
-12.14
-12.55
-12.44
-11.89
-10.98
-9.76
-8.29
-6.63
-4.90
-3.22
-1.73
-0.50
0.37
0.84
0.85
0.38
-0.45
-1.42
-2.18
-2.42
-2.04
-1.13
0.02
1.10
1.89
2.36
2.62
2.82
3.03
3.27
3.45
3.45
3.24
2.81
2.24
1.61
0.95
0.21
-0.69
-1.83
-3.21
-4.71
-6.15
-7.39
-8.38
-9.20
-9.97
-10.71
-11.30
-11.46
-10.92
-9.52
-7.36
-4.73
-2.00
0.49
2.56
4.13
5.19
5.74
5.79
5.42
4.77
4.08
3.61
3.52
3.87
4.57
5.42
6.24
6.83
7.13
7.10
6.76
6.22
5.58
4.94
4.34
3.80
3.22
2.54
1.71
0.75
-0.26
-1.24
-2.12
-2.89
-3.58
-4.21
-4.83
-5.48
-6.20
-7.02
-7.93
-8.82
-9.48
-9.70
-9.29
-8.20
-6.55
-4.56
-2.50
-0.61
0.93
2.04
2.74
3.09
3.24
3.32
3.43
3.60
3.82
4.04
4.23
4.40
4.59
4.84
5.17
5.51
5.80
5.96
5.91
5.60
5.01
4.17
3.17
2.21
1.41
0.88
0.53
0.18
-0.38
-1.26
-2.45
-3.81
-5.18
-6.45
-7.60
-8.71
-9.86
-11.13
-12.54
-14.08
-15.60
-16.86
-17.56
-17.49
-16.59
-15.05
-13.21
-11.38
-9.72
-8.19
-6.62
-4.89
-2.99
-1.13
0.44
1.55
2.19
2.53
2.85
3.33
4.06
4.96
5.89
6.74
7.48
8.17
8.83
9.44
9.90
10.07
9.85
9.23
8.25
7.02
5.64
4.18
2.71
1.28
-0.06
-1.23
-2.20
-3.01
-3.72
-4.51
-5.53
-6.86
-8.49
-10.25
-11.84
-12.94
-13.31
-12.84
-11.62
-9.82
-7.70
-5.48
-3.31
-1.26
0.63
2.30
3.71
4.79
5.51
5.92
6.13
6.29
6.51
6.85
7.31
7.86
8.43
8.96
9.36
9.58
9.54
9.27
8.79
8.21
7.57
6.87
6.07
5.18
4.23
3.32
2.58
2.04
1.64
1.25
0.72
-0.02
-1.00
-2.17
-3.51
-5.01
-6.68
-8.50
-10.38
-12.11
-13.43
-14.09
-13.89
-12.75
-10.75
-8.11
-5.17
-2.30
0.17
2.04
3.25
3.93
4.33
4.75
5.40
6.38
7.58
8.81
9.89
10.77
11.48
12.09
12.63
13.01
13.09
12.76
12.04
11.09
10.07
9.11
8.22
7.28
6.21
4.97
3.68
2.47
1.44
0.59
-0.12
-0.86
-1.75
-2.88
-4.25
-5.79
-7.36
-8.85
-10.19
-11.39
-12.57
-13.83
-15.21
-16.57
-17.61
-17.94
-17.24
-15.47
-12.91
-10.13
-7.78
-6.38
-6.03
-6.44
-7.02
-7.14
-6.49
-5.12
-3.50
-2.23
-1.79
-2.38
-3.85
-5.74
-7.40
-7.93
-6.40
-2.08
5.20
14.69
24.60
32.59
36.55
35.43
29.76
21.43
12.96
6.47
3.03
2.53
4.13
6.81
9.88
12.98
15.89
18.28
19.60
19.22
16.75
12.31
6.54
0.49
-4.80
-8.55
-10.51
-10.93
-10.43
-9.64
-8.96
-8.48
-7.96
-7.09
-5.78
-4.19
-2.68
-1.63
-1.19
-1.21
-1.34
-1.17
-0.45
0.79
2.37
4.01
5.49
6.74
7.82
8.87
10.00
11.22
12.43
13.43
13.99
13.92
13.15
11.70
9.68
7.32
4.89
2.65
0.79
-0.63
-1.69
-2.56
-3.38
-4.29
-5.31
-6.44
-7.70
-9.07
-10.48
-11.71
-12.44
-12.38
-11.39
-9.55
-7.11
-4.30
-1.31
1.75
4.72
7.35
9.30
10.29
10.31
9.60
8.63
7.85
7.55
7.73
8.24
8.88
9.50
10.03
10.44
10.72
10.85
10.84
10.74
10.58
10.34
9.94
9.27
8.31
7.14
5.92
4.77
3.72
2.65
1.45
0.07
-1.42
-2.82
-4.01
-4.92
-5.69
-6.52
-7.54
-8.78
-10.10
-11.31
-12.17
-12.48
-12.16
-11.14
-9.55
-7.59
-5.54
-3.62
-1.97
-0.59
0.58
1.59
2.48
3.18
3.62
3.81
3.81
3.75
3.75
3.84
4.01
4.25
4.58
5.09
5.82
6.68
7.48
7.92
7.77
6.99
5.78
4.50
3.47
2.85
2.54
2.31
1.88
1.10
-0.04
-1.37
-2.68
-3.80
-4.69
-5.43
-6.24
-7.31
-8.73
-10.41
-12.08
-13.40
-14.08
-13.97
-13.13
-11.71
-9.92
-7.96
-5.95
-4.02
-2.31
-0.94
-0.00
0.49
0.60
0.50
0.42
0.52
0.91
1.55
2.31
3.04
3.71
4.34
5.05
5.95
6.95
7.91
8.53
8.59
8.03
6.99
5.70
4.40
3.25
2.32
1.61
1.05
0.57
0.06
-0.58
-1.46
-2.60
-3.97
-5.48
-7.00
-8.37
-9.40
-9.89
-9.70
-8.82
-7.31
-5.43
-3.42
-1.48
0.31
1.94
3.46
4.78
5.79
6.32
6.32
5.85
5.09
4.27
3.54
2.97
2.61
2.46
2.56
2.93
3.51
4.20
4.81
5.19
5.26
5.05
4.63
4.11
3.54
2.95
2.31
1.54
0.57
-0.62
-1.99
-3.40
-4.64
-5.59
-6.22
-6.68
-7.18
-7.87
-8.74
-9.60
-10.16
-10.24
-9.82
-8.98
-7.84
-6.42
-4.65
-2.47
0.09
2.78
5.22
7.06
8.06
8.28
8.01
7.64
7.50
7.75
8.34
9.11
9.86
10.49
10.94
11.22
11.36
11.34
11.13
10.69
10.04
9.25
8.40
7.52
6.65
5.75
4.80
3.82
2.86
1.99
1.23
0.59
0.04
-0.51
-1.14
-1.97
-3.10
-4.63
-6.55
-8.71
-10.81
-12.48
-13.40
-13.41
-12.60
-11.21
-9.57
-7.92
-6.35
-4.81
-3.24
-1.62
-0.04
1.34
2.34
2.86
2.94
2.66
2.21
1.74
1.39
1.25
1.37
1.77
2.41
3.23
4.10
4.83
5.23
5.12
4.45
3.30
1.85
0.36
-0.96
-1.96
-2.67
-3.18
-3.64
-4.11
-4.59
-5.07
-5.51
-6.00
-6.66
-7.59
-8.76
-9.99
-10.90
-11.15
-10.55
-9.17
-7.27
-5.21
-3.29
-1.64
-0.27
0.91
1.94
2.79
3.39
3.66
3.61
3.31
2.94
2.69
2.68
2.98
3.55
4.24
4.88
5.31
5.49
5.45
5.32
5.18
5.08
4.98
4.78
4.39
3.78
2.95
1.99
0.99
0.01
-0.89
-1.73
-2.52
-3.32
-4.18
-5.12
-6.16
-7.26
-8.28
-9.05
-9.39
-9.15
-8.27
-6.86
-5.09
-3.25
-1.57
-0.20
0.89
1.83
2.80
3.88
4.95
5.79
6.16
5.90
5.13
4.16
3.34
2.98
3.14
3.65
4.23
4.60
4.63
4.34
3.87
3.36
2.90
2.47
2.01
1.45
0.73
-0.15
-1.12
-2.07
-2.86
-3.35
-3.48
-3.33
-3.06
-2.90
-3.05
-3.63
-4.67
-6.07
-7.69
-9.31
-10.70
-11.64
-11.97
-11.61
-10.60
-9.04
-7.10
-4.95
-2.82
-0.92
0.56
1.56
2.12
2.44
2.71
3.08
3.56
4.08
4.53
4.87
5.14
5.44
5.85
6.36
6.90
7.37
7.70
7.80
7.62
7.12
6.25
5.02
3.49
1.84
0.28
-1.04
-1.98
-2.57
-2.93
-3.24
-3.70
-4.49
-5.64
-7.10
-8.67
-10.09
-11.09
-11.45
-11.14
-10.26
-9.00
-7.55
-6.08
-4.65
-3.27
-1.88
-0.47
0.93
2.18
3.08
3.46
3.24
2.49
1.47
0.47
-0.31
-0.78
-1.02
-1.16
-1.31
-1.47
-1.60
-1.65
-1.59
-1.48
-1.41
-1.44
-1.67
-2.11
-2.74
-3.46
-4.11
-4.50
-4.53
-4.18
-3.51
-2.60
-1.51
-0.24
1.19
2.64
3.89
4.62
4.66
4.03
2.99
1.95
1.34
1.35
1.95
2.92
3.98
4.88
5.49
5.76
5.70
5.32
4.65
3.80
2.89
2.11
1.55
1.23
1.00
0.66
0.07
-0.79
-1.77
-2.67
-3.33
-3.69
-3.76
-3.65
-3.43
-3.15
-2.87
-2.65
-2.60
-2.85
-3.49
-4.52
-5.85
-7.34
-8.83
-10.23
-11.47
-12.52
-13.30
-13.69
-13.49
-12.53
-10.77
-8.34
-5.57
-2.86
-0.57
1.12
2.23
2.95
3.55
4.22
5.05
5.97
6.88
7.64
8.22
8.61
8.80
8.78
8.57
8.38
8.64
9.96
12.75
16.95
21.71
25.55
26.87
24.64
18.80
10.32
0.69
-8.60
-16.47
-22.34
-26.01
-27.50
-26.93
-24.60
-20.93
-16.49
-11.84
-7.43
-3.65
-0.74
1.22
2.28
2.81
3.30
4.24
5.81
7.81
9.73
11.10
11.70
11.60
11.14
10.64
10.30
10.13
10.08
10.12
10.27
10.63
11.27
12.20
13.39
14.72
16.06
17.27
18.19
18.67
18.58
17.82
16.28
13.88
10.56
6.32
1.31
-4.14
-9.55
-14.35
-18.10
-20.52
-21.65
-21.80
-21.51
-21.48
-22.33
-24.44
-27.80
-31.98
-36.17
-39.58
-41.56
-41.85
-40.54
-37.94
-34.49
-30.65
-26.83
-23.33
-20.36
-17.93
-15.91
-14.04
-12.11
-9.99
-7.72
-5.43
-3.20
-1.07
0.95
2.86
4.62
6.15
7.35
8.18
8.67
8.91
9.02
9.12
9.21
9.21
9.00
8.48
7.63
6.55
5.46
4.55
3.93
3.56
3.22
2.67
1.71
0.34
-1.26
-2.82
-4.04
-4.73
-4.83
-4.42
-3.61
-2.57
-1.43
-0.32
0.65
1.36
1.76
1.85
1.70
1.44
1.17
0.94
0.81
0.84
1.10
1.65
2.47
3.47
4.47
5.34
6.01
6.50
6.87
7.16
7.35
7.41
7.30
7.00
6.53
5.94
5.28
4.61
3.99
3.45
2.96
2.46
1.78
0.79
-0.56
-2.19
-3.98
-5.75
-7.39
-8.77
-9.77
-10.24
-10.03
-9.09
-7.52
-5.54
-3.46
-1.58
-0.15
0.78
1.29
1.57
1.85
2.25
2.80
3.42
4.01
4.47
4.79
5.02
5.17
5.27
5.27
5.19
5.05
4.95
4.93
5.03
5.19
5.32
5.35
5.23
4.95
4.52
3.96
3.30
2.60
1.88
1.16
0.46
-0.22
-0.90
-1.58
-2.30
-3.07
-3.93
-4.89
-5.89
-6.85
-7.64
-8.16
-8.31
-8.05
-7.37
-6.29
-4.86
-3.23
-1.58
-0.09
1.07
1.85
2.23
2.31
2.16
1.88
1.52
1.12
0.69
0.24
-0.21
-0.60
-0.89
-1.01
-0.91
-0.62
-0.22
0.12
0.22
-0.10
-0.93
-2.21
-3.73
-5.17
-6.12
-6.30
-5.61
-4.17
-2.27
-0.21
1.78
3.62
5.27
6.68
7.78
8.61
9.32
10.27
11.80
14.06
16.75
19.23
20.71
20.64
19.00
16.26
13.22
10.65
9.04
8.49
8.73
9.26
9.47
8.75
6.65
2.84
-2.63
-9.41
-16.80
-23.92
-29.89
-34.07
-36.26
-36.67
-35.83
-34.27
-32.31
-29.97
-27.02
-23.30
-18.89
-14.15
-9.66
-5.86
-2.93
-0.75
0.98
2.51
3.90
5.04
5.80
6.10
6.03
5.80
5.58
5.44
5.27
4.87
4.06
2.79
1.26
-0.19
-1.15
-1.36
-0.79
0.31
1.57
2.62
3.27
3.54
3.58
3.60
3.72
4.01
4.47
5.06
5.71
6.30
6.70
6.81
6.63
6.33
6.19
6.51
7.39
8.67
9.96
10.85
11.01
10.42
9.28
7.93
6.67
5.68
5.01
4.60
4.38
4.28
4.22
4.13
3.92
3.53
2.96
2.25
1.52
0.82
0.18
-0.48
-1.26
-2.24
-3.43
-4.78
-6.13
-7.31
-8.16
-8.54
-8.42
-7.83
-6.87
-5.67
-4.34
-2.98
-1.56
-0.11
1.34
2.69
3.84
4.68
5.24
5.62
5.95
6.35
6.85
7.37
7.80
8.09
8.20
8.21
8.22
8.27
8.36
8.37
8.21
7.82
7.27
6.69
6.23
5.97
5.86
5.80
5.66
5.41
5.06
4.70
4.32
3.90
3.38
2.71
1.89
0.97
-0.04
-1.18
-2.42
-3.67
-4.72
-5.31
-5.27
-4.62
-3.55
-2.35
-1.26
-0.39
0.30
0.86
1.31
1.62
1.74
1.66
1.45
1.24
1.11
1.06
1.01
0.82
0.42
-0.14
-0.69
-1.01
-0.89
-0.33
0.55
1.48
2.24
2.64
2.69
2.49
2.19
1.83
1.42
0.88
0.22
-0.49
-1.08
-1.43
-1.53
-1.50
-1.61
-2.07
-2.96
-4.19
-5.52
-6.70
-7.53
-7.97
-8.06
-7.87
-7.48
-6.91
-6.18
-5.30
-4.37
-3.46
-2.68
-2.07
-1.56
-1.07
-0.50
0.18
0.88
1.49
1.96
2.38
2.93
3.87
5.28
7.07
8.90
10.41
11.33
11.58
11.31
10.70
9.89
8.90
7.69
6.28
4.79
3.42
2.39
1.77
1.46
1.24
0.87
0.24
-0.56
-1.38
-2.09
-2.72
-3.50
-4.75
-6.67
-9.21
-12.04
-14.60
-16.38
-17.04
-16.54
-15.12
-13.17
-11.08
-9.14
-7.48
-6.05
-4.77
-3.54
-2.35
-1.27
-0.36
0.35
0.94
1.56
2.30
3.14
3.95
4.54
4.86
5.01
5.19
5.66
6.49
7.56
8.63
9.41
9.72
9.56
9.07
8.40
7.68
6.91
6.11
5.26
4.43
3.79
3.46
3.46
3.65
3.77
3.54
2.75
1.37
-0.48
-2.62
-4.81
-6.83
-8.49
-9.60
-10.00
-9.69
-8.78
-7.55
-6.26
-5.11
-4.14
-3.25
-2.33
-1.30
-0.26
0.65
1.24
1.43
1.28
0.96
0.66
0.56
0.75
1.19
1.79
2.45
3.03
3.45
3.68
3.70
3.54
3.24
2.85
2.45
2.09
1.84
1.70
1.61
1.44
1.10
0.55
-0.18
-1.02
-1.91
-2.86
-3.93
-5.18
-6.60
-8.08
-9.44
-10.47
-11.00
-10.92
-10.25
-9.03
-7.44
-5.70
-4.06
-2.75
-1.85
-1.28
-0.81
-0.19
0.76
2.05
3.53
4.90
5.90
6.39
6.40
6.11
5.73
5.46
5.33
5.30
5.30
5.27
5.21
5.12
4.97
4.68
4.14
3.27
2.12
0.86
-0.27
-1.04
-1.40
-1.47
-1.58
-2.07
-3.16
-4.83
-6.83
-8.80
-10.41
-11.50
-12.02
-11.98
-11.35
-10.11
-8.28
-6.06
-3.78
-1.80
-0.36
0.51
1.00
1.36
1.82
2.49
3.32
4.22
5.09
5.88
6.60
7.25
7.81
8.27
8.62
8.87
9.01
9.07
8.99
8.70
8.10
7.14
5.85
4.39
2.94
1.72
0.79
0.14
-0.34
-0.80
-1.41
-2.27
-3.45
-4.96
-6.75
-8.68
-10.58
-12.19
-13.33
-13.81
-13.56
-12.60
-11.12
-9.33
-7.46
-5.68
-4.02
-2.46
-0.88
0.74
2.36
3.85
5.07
5.94
6.45
6.69
6.84
7.02
7.34
7.84
8.46
9.14
9.77
10.28
10.61
10.77
10.71
10.45
9.99
9.38
8.70
8.00
7.30
6.57
5.76
4.83
3.83
2.84
1.91
1.02
0.04
-1.14
-2.60
-4.26
-5.92
-7.28
-8.05
-8.00
-7.03
-5.17
-2.62
0.30
3.21
5.68
7.44
8.36
8.47
7.95
7.08
6.10
5.24
4.65
4.40
4.50
4.87
5.34
5.77
6.04
6.11
6.05
5.96
5.90
5.83
5.68
5.33
4.77
4.05
3.29
2.62
2.07
1.61
1.15
0.62
0.02
-0.69
-1.54
-2.63
-3.98
-5.55
-7.16
-8.57
-9.54
-9.96
-9.84
-9.32
-8.52
-7.54
-6.40
-5.11
-3.69
-2.24
-0.92
0.16
0.88
1.27
1.39
1.37
1.36
1.50
1.87
2.51
3.36
4.29
5.18
5.90
6.40
6.66
6.74
6.63
6.33
5.83
5.14
4.30
3.39
2.50
1.65
0.84
-0.01
-0.94
-2.00
-3.18
-4.48
-5.84
-7.18
-8.42
-9.38
-9.94
-9.93
-9.28
-8.02
-6.26
-4.23
-2.21
-0.43
0.97
1.92
2.51
2.85
3.08
3.30
3.53
3.77
3.96
4.13
4.31
4.62
5.10
5.76
6.50
7.14
7.51
7.52
7.20
6.67
6.09
5.53
4.99
4.39
3.66
2.81
1.93
1.13
0.45
-0.15
-0.75
-1.31
-1.58
-1.22
-0.05
1.69
3.29
3.90
2.94
0.52
-2.69
-5.73
-7.97
-9.29
-10.08
-10.83
-11.73
-12.60
-13.03
-12.75
-11.80
-10.45
-8.99
-7.50
-5.84
-3.81
-1.35
1.43
4.22
6.71
8.68
10.02
10.75
10.96
10.76
10.26
9.55
8.71
7.84
7.02
6.33
5.82
5.42
5.07
4.65
4.13
3.49
2.79
2.03
1.24
0.37
-0.55
-1.53
-2.50
-3.43
-4.26
-4.94
-5.40
-5.57
-5.41
-4.94
-4.26
-3.45
-2.57
-1.60
-0.55
0.49
1.36
1.89
2.04
1.95
1.88
2.00
2.37
2.86
3.28
3.51
3.61
3.71
3.94
4.26
4.50
4.45
4.04
3.37
2.68
2.19
2.01
2.05
2.13
2.04
1.69
1.05
0.22
-0.70
-1.66
-2.69
-3.80
-4.96
-6.07
-7.00
-7.57
-7.72
-7.39
-6.62
-5.49
-4.08
-2.54
-1.00
0.39
1.52
2.35
2.86
3.07
3.05
2.87
2.63
2.42
2.38
2.60
3.06
3.63
4.09
4.24
4.01
3.51
2.98
2.68
2.71
3.01
3.33
3.43
3.17
2.58
1.83
1.10
0.51
0.04
-0.39
-0.94
-1.73
-2.81
-4.19
-5.73
-7.28
-8.61
-9.58
-10.08
-10.11
-9.73
-9.02
-8.04
-6.84
-5.47
-4.01
-2.59
-1.38
-0.51
-0.03
0.12
0.12
0.20
0.49
0.99
1.64
2.30
2.92
3.49
4.08
4.71
5.30
5.72
5.87
5.73
5.33
4.78
4.08
3.21
2.13
0.89
-0.37
-1.49
-2.36
-2.99
-3.51
-4.08
-4.83
-5.75
-6.76
-7.73
-8.54
-9.09
-9.34
-9.27
-8.88
-8.21
-7.29
-6.24
-5.17
-4.22
-3.47
-2.93
-2.54
-2.14
-1.61
-0.89
0.01
0.98
1.91
2.69
3.29
3.73
4.03
4.24
4.39
4.52
4.67
4.81
4.89
4.82
4.50
3.89
2.99
1.89
0.74
-0.27
-0.95
-1.21
-1.05
-0.62
-0.17
0.04
-0.21
-1.02
-2.36
-4.09
-5.97
-7.75
-9.16
-10.00
-10.15
-9.61
-8.48
-6.99
-5.40
-3.97
-2.92
-2.30
-1.99
-1.73
-1.25
-0.41
0.68
1.71
2.33
2.37
1.92
1.34
1.07
1.42
2.38
3.67
4.86
5.61
5.75
5.37
4.68
3.95
3.54
3.71
4.68
6.37
8.38
9.99
10.35
8.80
5.23
0.19
-5.27
-10.01
-13.20
-14.60
-14.50
-13.48
-12.03
-10.40
-8.54
-6.28
-3.52
-0.40
2.69
5.30
7.07
7.93
8.13
8.01
7.92
7.97
8.03
7.86
7.28
6.28
5.11
4.07
3.37
3.06
2.98
2.96
2.81
2.49
2.03
1.49
0.88
0.23
-0.42
-0.97
-1.24
-1.05
-0.28
1.05
2.70
4.34
5.58
6.09
5.65
4.20
1.85
-1.14
-4.37
-7.44
-9.97
-11.75
-12.74
-13.03
-12.77
-12.11
-11.13
-9.88
-8.43
-6.87
-5.29
-3.78
-2.42
-1.23
-0.27
0.47
0.94
1.19
1.29
1.34
1.45
1.66
2.00
2.42
2.88
3.29
3.59
3.66
3.45
2.92
2.13
1.19
0.24
-0.65
-1.46
-2.19
-2.87
-3.51
-4.08
-4.55
-4.94
-5.27
-5.57
-5.85
-6.05
-6.16
-6.15
-6.08
-6.04
-6.10
-6.22
-6.26
-6.06
-5.45
-4.42
-3.08
-1.63
-0.34
0.64
1.28
1.61
1.72
1.67
1.53
1.33
1.17
1.12
1.23
1.51
1.89
2.26
2.53
2.70
2.79
2.88
3.00
3.15
3.25
3.23
3.00
2.54
1.86
1.05
0.19
-0.65
-1.48
-2.33
-3.26
-4.26
-5.27
-6.19
-6.93
-7.46
-7.82
-8.10
-8.37
-8.63
-8.84
-8.86
-8.60
-7.97
-7.00
-5.78
-4.47
-3.22
-2.11
-1.15
-0.30
0.48
1.16
1.61
1.73
1.52
1.05
0.55
0.27
0.32
0.74
1.38
2.04
2.53
2.73
2.64
2.37
2.05
1.82
1.72
1.72
1.74
1.75
1.73
1.74
1.83
2.00
2.13
2.08
1.72
1.00
0.01
-1.09
-2.14
-3.03
-3.71
-4.17
-4.33
-4.10
-3.35
-2.07
-0.40
1.37
2.91
3.97
4.45
4.47
4.28
4.10
4.07
4.20
4.45
4.83
5.37
6.07
6.85
7.52
7.91
7.95
7.70
7.36
7.10
6.98
6.89
6.67
6.18
5.39
4.35
3.16
1.91
0.73
-0.22
-0.81
-0.99
-0.93
-0.91
-1.25
-2.11
-3.39
-4.82
-6.07
-6.85
-7.07
-6.69
-5.79
-4.48
-2.94
-1.34
0.11
1.27
2.06
2.49
2.54
2.24
1.63
0.81
-0.03
-0.73
-1.18
-1.37
-1.42
-1.43
-1.46
-1.53
-1.63
-1.80
-2.13
-2.75
-3.66
-4.85
-6.17
-7.53
-8.90
-10.29
-11.76
-13.34
-15.02
-16.78
-18.54
-20.11
-21.30
-21.87
-21.66
-20.62
-18.82
-16.44
-13.70
-10.82
-8.08
-5.76
-4.17
-3.50
-3.76
-4.63
-5.53
-5.82
-5.08
-3.26
-0.75
1.79
3.80
4.99
5.55
5.90
6.58
7.81
9.49
11.19
12.40
12.76
12.25
11.11
9.72
8.34
7.02
5.61
3.95
2.05
0.16
-1.31
-1.95
-1.61
-0.45
1.07
2.48
3.46
3.99
4.28
4.63
5.25
6.11
7.04
7.73
7.87
7.26
5.83
3.78
1.44
-0.72
-2.28
-3.02
-3.06
-2.75
-2.56
-2.83
-3.61
-4.66
-5.65
-6.29
-6.51
-6.42
-6.22
-6.09
-6.13
-6.43
-7.07
-8.14
-9.66
-11.44
-13.09
-14.10
-14.02
-12.61
-10.04
-6.72
-3.21
0.01
2.64
4.60
5.95
6.84
7.39
7.78
8.08
8.39
8.70
8.98
9.16
9.20
9.09
8.87
8.60
8.27
7.84
7.28
6.66
6.09
5.73
5.59
5.54
5.36
4.88
4.09
3.14
2.20
1.38
0.65
-0.13
-1.09
-2.23
-3.41
-4.43
-5.10
-5.35
-5.13
-4.46
-3.43
-2.16
-0.83
0.36
1.27
1.89
2.29
2.59
2.87
3.08
3.17
3.11
2.99
2.95
3.14
3.63
4.36
5.17
5.88
6.37
6.54
6.38
5.93
5.31
4.76
4.51
4.77
5.58
6.69
7.69
8.11
7.59
6.07
3.71
0.87
-1.98
-4.42
-6.11
-6.91
-6.84
-6.12
-5.05
-3.85
-2.66
-1.45
-0.14
1.25
2.61
3.70
4.28
4.22
3.61
2.68
1.74
0.95
0.37
-0.07
-0.43
-0.72
-0.87
-0.74
-0.24
0.69
2.10
4.02
6.50
9.42
12.48
15.15
16.84
17.16
16.10
14.03
11.52
9.09
6.98
5.24
3.84
2.84
2.49
3.07
4.70
7.16
10.00
12.60
14.49
15.43
15.43
14.70
13.48
11.98
10.33
8.63
6.93
5.30
3.84
2.66
1.85
1.49
1.56
1.93
2.40
2.75
2.87
2.81
2.67
2.58
2.48
2.20
1.58
0.53
-0.79
-2.13
-3.24
-4.03
-4.58
-5.11
-5.79
-6.69
-7.66
-8.54
-9.13
-9.32
-9.05
-8.25
-6.90
-4.98
-2.59
0.03
2.50
4.41
5.46
5.60
5.05
4.23
3.58
3.39
3.69
4.30
4.94
5.36
5.47
5.30
4.97
4.62
4.33
4.18
4.17
4.26
4.37
4.37
4.10
3.49
2.55
1.39
0.21
-0.83
-1.66
-2.35
-3.05
-3.89
-4.94
-6.13
-7.29
-8.30
-9.03
-9.43
-9.46
-9.08
-8.23
-6.90
-5.14
-3.15
-1.22
0.37
1.41
1.91
2.01
1.98
2.08
2.49
3.19
4.06
4.87
5.41
5.61
5.47
5.13
4.76
4.52
4.51
4.73
5.06
5.31
5.29
4.84
3.96
2.80
1.58
0.58
-0.09
-0.41
-0.53
-0.60
-0.80
-1.18
-1.76
-2.52
-3.46
-4.52
-5.66
-6.74
-7.61
-8.13
-8.21
-7.85
-7.18
-6.40
-5.69
-5.17
-4.84
-4.58
-4.20
-3.60
-2.74
-1.70
-0.64
0.33
1.15
1.87
2.59
3.34
4.07
4.68
5.06
5.20
5.19
5.18
5.29
5.52
5.74
5.78
5.54
5.00
4.29
3.56
2.92
2.36
1.78
1.03
0.02
-1.28
-2.73
-4.11
-5.14
-5.61
-5.46
-4.79
-3.85
-2.93
-2.26
-1.90
-1.74
-1.63
-1.46
-1.22
-1.02
-1.01
-1.25
-1.74
-2.37
-2.98
-3.46
-3.72
-3.72
-3.47
-3.06
-2.56
-2.00
-1.43
-0.83
-0.27
0.19
0.39
0.26
-0.24
-0.96
-1.71
-2.28
-2.60
-2.68
-2.66
-2.65
-2.75
-2.93
-3.15
-3.37
-3.52
-3.57
-3.51
-3.31
-3.00
-2.63
-2.24
-1.92
-1.68
-1.56
-1.52
-1.49
-1.41
-1.28
-1.17
-1.17
-1.36
-1.75
-2.25
-2.70
-2.97
-2.99
-2.78
-2.43
-1.99
-1.46
-0.84
-0.19
0.36
0.58
0.29
-0.53
-1.72
-2.97
-4.02
-4.69
-5.07
-5.34
-5.73
-6.33
-7.07
-7.81
-8.42
-8.83
-9.07
-9.15
-9.01
-8.51
-7.54
-6.07
-4.20
-2.21
-0.40
0.97
1.80
2.13
2.15
2.05
2.00
2.06
2.18
2.30
2.37
2.37
2.34
2.30
2.26
2.21
2.12
1.98
1.85
1.73
1.59
1.36
0.98
0.41
-0.27
-0.93
-1.41
-1.67
-1.75
-1.77
-1.86
-2.05
-2.35
-2.71
-3.14
-3.66
-4.30
-5.01
-5.64
-6.00
-5.94
-5.41
-4.45
-3.26
-2.03
-0.97
-0.23
0.14
0.21
0.10
-0.01
-0.00
0.13
0.29
0.35
0.25
0.01
-0.24
-0.39
-0.43
-0.40
-0.40
-0.45
-0.49
-0.37
-0.04
0.41
0.79
0.83
0.37
-0.50
-1.55
-2.46
-2.99
-3.11
-2.97
-2.78
-2.74
-2.93
-3.36
-3.96
-4.65
-5.33
-5.92
-6.30
-6.37
-6.05
-5.35
-4.40
-3.35
-2.34
-1.48
-0.79
-0.23
0.29
0.75
1.17
1.52
1.78
1.92
1.95
1.83
1.57
1.18
0.75
0.41
0.33
0.60
1.17
1.86
2.44
2.69
2.55
2.06
1.36
0.61
-0.08
-0.62
-0.96
-1.11
-1.09
-0.99
-0.96
-1.18
-1.79
-2.83
-4.22
-5.75
-7.13
-8.14
-8.58
-8.46
-7.88
-7.01
-6.02
-5.04
-4.09
-3.16
-2.28
-1.47
-0.79
-0.28
0.06
0.32
0.60
0.98
1.46
1.96
2.35
2.52
2.45
2.21
1.93
1.72
1.61
1.59
1.59
1.57
1.56
1.60
1.70
1.75
1.59
1.05
0.10
-1.14
-2.44
-3.60
-4.55
-5.35
-6.15
-7.05
-7.96
-8.72
-9.09
-8.97
-8.37
-7.48
-6.51
-5.66
-5.08
-4.77
-4.68
-4.71
-4.75
-4.68
-4.43
-4.02
-3.54
-3.13
-2.89
-2.86
-2.96
-3.09
-3.09
-2.90
-2.47
-1.86
-1.21
-0.66
-0.35
-0.38
-0.77
-1.45
-2.27
-3.06
-3.63
-3.93
-3.98
-3.96
-4.10
-4.55
-5.41
-6.58
-7.86
-8.98
-9.73
-9.98
-9.75
-9.13
-8.24
-7.25
-6.23
-5.27
-4.40
-3.66
-3.06
-2.61
-2.26
-1.97
-1.69
-1.37
-1.03
-0.73
-0.53
-0.44
-0.41
-0.33
-0.10
0.32
0.89
1.48
1.98
2.30
2.42
2.34
2.09
1.72
1.23
0.67
0.05
-0.58
-1.14
-1.63
-2.05
-2.50
-3.13
-4.04
-5.27
-6.71
-8.13
-9.23
-9.82
-9.87
-9.49
-8.84
-8.04
-7.12
-6.07
-4.89
-3.62
-2.39
-1.32
-0.49
0.08
0.44
0.68
0.86
1.03
1.23
1.44
1.63
1.82
2.02
2.30
2.68
3.17
3.71
4.20
4.56
4.75
4.75
4.54
4.11
3.43
2.58
1.66
0.88
0.39
0.22
0.23
0.20
-0.13
-0.90
-2.14
-3.74
-5.52
-7.26
-8.72
-9.65
-9.85
-9.25
-7.90
-6.00
-3.85
-1.68
0.34
2.14
3.69
4.95
5.86
6.37
6.52
6.45
6.34
6.38
6.63
7.00
7.34
7.50
7.50
7.47
7.59
8.00
8.64
9.30
9.67
9.51
8.77
7.62
6.35
5.25
4.47
3.96
3.56
3.12
2.59
2.02
1.46
0.89
0.20
-0.75
-2.07
-3.72
-5.52
-7.21
-8.54
-9.30
-9.40
-8.76
-7.43
-5.52
-3.26
-0.98
1.06
2.61
3.61
4.10
4.24
4.20
4.17
4.29
4.61
5.15
5.81
6.47
7.05
7.52
7.94
8.43
9.03
9.70
10.27
10.49
10.24
9.47
8.36
7.12
5.97
4.97
4.09
3.24
2.35
1.44
0.55
-0.27
-1.07
-1.95
-2.99
-4.16
-5.34
-6.35
-7.01
-7.24
-6.98
-6.22
-4.98
-3.35
-1.45
0.54
2.41
4.01
5.20
5.94
6.27
6.26
6.08
5.90
5.91
6.18
6.73
7.48
8.31
9.15
9.96
10.67
11.23
11.53
11.53
11.23
10.69
9.97
9.16
8.25
7.29
6.32
5.39
4.51
3.64
2.71
1.70
0.65
-0.40
-1.41
-2.45
-3.69
-5.28
-7.18
-9.14
-10.77
-11.64
-11.51
-10.44
-8.69
-6.68
-4.71
-2.94
-1.32
0.26
1.85
3.41
4.79
5.81
6.41
6.67
6.74
6.77
6.88
7.08
7.36
7.71
8.15
8.68
9.26
9.80
10.17
10.33
10.26
10.02
9.72
9.45
9.23
9.02
8.69
8.11
7.17
5.87
4.34
2.79
1.41
0.28
-0.67
-1.63
-2.76
-4.12
-5.61
-7.05
-8.24
-9.04
-9.43
-9.35
-8.81
-7.75
-6.16
-4.11
-1.84
0.33
2.07
3.19
3.74
3.95
4.14
4.57
5.31
6.26
7.18
7.92
8.44
8.86
9.32
9.85
10.40
10.82
10.98
10.89
10.66
10.45
10.32
10.22
9.97
9.43
8.55
7.40
6.17
5.01
4.01
3.19
2.45
1.71
0.87
-0.17
-1.49
-3.14
-5.10
-7.24
-9.32
-11.04
-12.13
-12.43
-11.94
-10.78
-9.17
-7.32
-5.42
-3.57
-1.86
-0.30
1.20
2.86
4.84
7.22
9.84
12.36
14.37
15.57
15.86
15.33
14.18
12.57
10.59
8.35
6.06
4.11
2.88
2.66
3.39
4.71
6.14
7.25
7.83
7.92
7.68
7.26
6.70
5.95
4.91
3.55
1.93
0.19
-1.56
-3.26
-4.93
-6.60
-8.25
-9.72
-10.77
-11.20
-10.89
-9.88
-8.40
-6.72
-5.09
-3.67
-2.52
-1.63
-0.94
-0.42
-0.06
0.19
0.37
0.52
0.71
0.95
1.26
1.66
2.22
2.94
3.80
4.70
5.45
5.91
6.00
5.81
5.49
5.21
5.06
4.98
4.89
4.68
4.33
3.91
3.48
3.07
2.65
2.09
1.28
0.09
-1.50
-3.43
-5.54
-7.60
-9.35
-10.57
-11.16
-11.09
-10.45
-9.38
-8.02
-6.47
-4.78
-2.99
-1.14
0.64
2.17
3.28
3.88
4.07
4.07
4.17
4.55
5.24
6.10
6.99
7.75
8.38
8.85
9.16
9.24
9.05
8.58
7.94
7.31
6.82
6.50
6.22
5.80
5.10
4.14
3.07
2.08
1.29
0.63
-0.10
-1.17
-2.72
-4.72
-6.95
-9.09
-10.84
-12.04
-12.63
-12.66
-12.17
-11.20
-9.80
-8.05
-6.08
-4.09
-2.24
-0.64
0.67
1.70
2.43
2.89
3.10
3.13
3.11
3.19
3.48
4.00
4.68
5.37
5.98
6.46
6.87
7.24
7.59
7.86
7.96
7.80
7.37
6.67
5.77
4.79
3.86
3.11
2.59
2.26
1.98
1.51
0.70
-0.50
-1.98
-3.54
-4.99
-6.29
-7.44
-8.47
-9.33
-9.80
-9.65
-8.73
-7.11
-5.04
-2.85
-0.80
0.98
2.47
3.66
4.43
4.64
4.16
3.01
1.44
-0.16
-1.36
-1.83
-1.46
-0.36
1.21
2.91
4.48
5.72
6.60
7.17
7.51
7.68
7.68
7.44
6.90
6.12
5.18
4.22
3.34
2.53
1.73
0.80
-0.41
-1.97
-3.88
-6.04
-8.27
-10.36
-12.07
-13.23
-13.68
-13.37
-12.30
-10.54
-8.30
-5.88
-3.56
-1.63
-0.15
0.92
1.67
2.09
2.02
1.26
-0.21
-2.09
-3.85
-4.89
-4.88
-3.90
-2.40
-0.92
0.17
0.83
1.24
1.63
2.09
2.53
2.76
2.65
2.19
1.49
0.68
-0.18
-1.05
-1.94
-2.85
-3.74
-4.54
-5.21
-5.73
-6.17
-6.61
-7.21
-8.06
-9.25
-10.69
-12.13
-13.23
-13.69
-13.33
-12.21
-10.60
-8.80
-7.09
-5.61
-4.33
-3.21
-2.17
-1.22
-0.39
0.31
0.90
1.43
1.92
2.38
2.76
3.03
3.19
3.29
3.39
3.53
3.73
3.95
4.15
4.28
4.31
4.23
4.03
3.72
3.34
2.95
2.54
2.02
1.26
0.10
-1.47
-3.30
-5.06
-6.33
-6.73
-6.03
-4.24
-1.62
1.33
3.98
5.70
6.11
5.25
3.61
1.92
0.91
0.93
1.93
3.55
5.32
6.93
8.27
9.38
10.29
10.98
11.35
11.31
10.86
10.09
9.19
8.39
7.85
7.60
7.55
7.53
7.37
7.01
6.51
6.02
5.67
5.45
5.23
4.80
4.01
2.85
1.51
0.24
-0.75
-1.38
-1.78
-2.12
-2.61
-3.32
-4.21
-5.14
-6.02
-6.88
-7.85
-9.06
-10.53
-12.08
-13.39
-14.13
-14.13
-13.41
-12.18
-10.71
-9.15
-7.59
-5.98
-4.31
-2.68
-1.26
-0.24
0.29
0.36
0.20
0.05
0.13
0.50
1.09
1.76
2.43
3.11
3.88
4.78
5.74
6.56
6.99
6.90
6.33
5.56
4.84
4.34
4.00
3.58
2.85
1.72
0.36
-0.93
-1.83
-2.22
-2.19
-2.00
-1.97
-2.40
-3.41
-5.02
-7.10
-9.40
-11.60
-13.40
-14.51
-14.79
-14.20
-12.82
-10.85
-8.53
-6.07
-3.68
-1.51
0.32
1.75
2.77
3.40
3.77
4.03
4.36
4.88
5.61
6.48
7.36
8.13
8.73
9.15
9.44
9.63
9.74
9.78
9.72
9.55
9.18
8.54
7.51
6.01
4.07
1.84
-0.41
-2.42
-3.93
-4.83
-5.17
-5.09
-4.81
-4.51
-4.33
-4.30
-4.44
-4.75
-5.29
-6.06
-7.05
-8.11
-9.03
-9.51
-9.35
-8.52
-7.12
-5.42
-3.70
-2.21
-1.06
-0.27
0.26
0.66
1.08
1.59
2.21
2.91
3.61
4.26
4.87
5.50
6.25
7.16
8.18
9.15
9.90
10.30
10.29
9.97
9.45
8.90
8.40
7.97
7.55
7.07
6.49
5.80
5.10
4.45
3.90
3.39
2.80
2.03
0.99
-0.24
-1.56
-2.86
-4.17
-5.60
-7.33
-9.43
-11.74
-13.94
-15.62
-16.49
-16.50
-15.80
-14.67
-13.35
-11.89
-10.28
-8.48
-6.54
-4.66
-3.13
-2.11
-1.61
-1.44
-1.31
-1.01
-0.45
0.28
1.03
1.72
2.37
3.05
3.78
4.49
4.98
5.09
4.71
3.91
2.86
1.74
0.70
-0.26
-1.18
-2.12
-3.03
-3.87
-4.53
-4.98
-5.22
-5.29
-5.24
-5.10
-4.88
-4.68
-4.63
-4.92
-5.64
-6.76
-7.91
-8.45
-7.68
-5.08
-0.65
4.98
10.70
15.25
17.69
17.74
15.79
12.76
9.66
7.24
5.81
5.28
5.31
5.59
5.92
6.24
6.56
6.84
6.96
6.76
6.14
5.18
4.08
3.06
2.25
1.56
0.72
-0.52
-2.26
-4.29
-6.17
-7.44
-7.82
-7.36
-6.40
-5.45
-5.00
-5.38
-6.73
-8.95
-11.79
-14.85
-17.80
-20.37
-22.53
-24.43
-26.30
-28.27
-30.25
-31.94
-32.92
-32.89
-31.77
-29.71
-26.98
-23.80
-20.34
-16.71
-13.00
-9.37
-6.03
-3.06
-0.51
1.78
4.04
6.50
9.36
12.65
16.19
19.64
22.57
24.64
25.77
26.10
25.96
25.68
25.41
25.16
24.78
24.20
23.41
22.52
21.63
20.76
19.77
18.46
16.68
14.47
12.09
9.90
8.25
7.26
6.82
6.61
6.31
5.73
4.88
3.98
3.25
2.85
2.72
2.69
2.56
2.22
1.69
1.07
0.42
-0.26
-1.08
-2.18
-3.66
-5.43
-7.26
-8.82
-9.81
-10.01
-9.40
-8.07
-6.24
-4.11
-1.90
0.24
2.24
4.05
5.68
7.07
8.16
8.88
9.23
9.28
9.17
9.07
9.07
9.19
9.32
9.41
9.42
9.42
9.47
9.53
9.52
9.28
8.76
8.02
7.26
6.65
6.30
6.11
5.92
5.51
4.80
3.83
2.79
1.81
0.95
0.17
-0.66
-1.66
-2.89
-4.38
-6.10
-8.01
-10.03
-12.02
-13.82
-15.20
-15.99
-16.06
-15.42
-14.18
-12.54
-10.74
-9.00
-7.45
-6.13
-4.97
-3.92
-2.89
-1.89
-0.94
-0.06
0.75
1.58
2.47
3.48
4.56
5.62
6.66
7.83
9.42
11.75
14.93
18.74
22.56
25.62
27.27
27.37
26.34
25.04
24.35
24.84
26.63
29.35
32.38
34.92
36.16
35.28
31.66
25.01
15.52
3.85
-9.03
-22.21
-35.04
-47.19
-58.54
-69.02
-78.52
-87.01
-94.60
-101.67
-108.70
-116.08
-123.84
-131.67
-139.02
-145.40
-150.62
-154.90
-158.81
-163.02
-168.32
-175.64
-186.05
-200.46
-219.08
-240.86
-263.44
-283.80
-299.39
-309.05
-312.98
-311.88
-305.53
-291.88
-267.40
-228.41
-172.99
-102.43
-21.37
63.21
143.87
214.54
271.68
314.57
344.81
365.13
