1679986302.00
64.000000
-0.00
-0.00
-0.00
-0.00
-0.00
-0.00
-0.00
-0.00
-0.00
-0.00
0.00
0.01
0.01
-0.00
-0.03
-0.05
-0.05
0.00
0.13
0.36
0.66
1.01
1.37
1.72
2.06
2.40
2.79
3.24
3.80
4.42
5.06
5.66
6.20
6.68
7.15
7.68
8.31
9.14
10.09
11.04
11.88
12.56
13.14
13.76
14.65
15.96
17.91
20.32
22.90
25.38
27.58
29.57
31.68
34.32
37.81
42.54
48.15
54.10
59.83
64.97
69.58
74.14
79.34
85.71
93.76
103.00
112.62
121.73
129.77
136.75
143.30
150.75
157.77
166.64
177.95
191.79
206.97
220.57
228.25
225.36
208.53
176.87
132.76
80.05
23.07
-34.94
-92.44
-149.16
-205.23
-260.37
-313.74
-363.87
-409.83
-450.91
-486.50
-515.74
-537.23
-549.22
-549.96
-538.37
-514.21
-478.67
-433.88
-382.45
-327.02
-269.84
-212.63
-156.66
-102.95
-52.37
-5.90
35.58
71.43
101.35
125.50
144.38
158.69
169.15
176.37
180.75
182.57
182.07
179.51
175.23
169.65
163.18
156.15
148.81
141.30
133.69
126.02
118.33
110.69
103.16
95.80
88.68
81.83
75.25
68.95
62.95
57.25
51.86
46.78
42.03
37.59
33.45
29.61
26.07
22.81
19.83
17.11
14.67
12.48
10.54
8.83
7.35
6.07
4.97
4.05
3.27
2.62
2.09
1.65
1.30
1.01
0.79
0.61
0.48
0.37
0.29
0.24
0.20
0.18
0.17
0.17
0.18
0.20
0.23
0.26
0.30
0.34
0.38
0.43
0.47
0.52
0.57
0.62
0.67
0.73
0.80
0.86
0.94
1.02
1.10
1.20
1.32
1.44
1.58
1.74
1.91
2.11
2.32
2.56
2.83
3.12
3.44
3.80
4.18
4.60
5.05
5.55
6.08
6.66
7.29
7.97
8.67
9.39
10.12
10.85
11.60
12.40
13.29
14.28
15.36
16.52
17.71
18.91
20.07
21.17
22.17
23.01
23.60
23.78
23.39
22.26
20.31
17.51
13.97
9.81
5.30
0.64
-3.99
-8.52
-12.89
-17.04
-20.83
-24.07
-26.49
-27.93
-28.37
-28.03
-27.31
-26.66
-26.43
-26.68
-27.22
-27.63
-27.54
-26.79
-25.57
-24.38
-23.80
-24.21
-25.62
-27.59
-29.45
-30.63
-30.86
-30.36
-29.69
-29.49
-30.31
-32.51
-36.28
-41.38
-46.94
-51.31
-52.27
-47.81
-37.11
-21.17
-2.71
14.77
28.33
36.68
40.27
40.69
39.57
37.84
35.64
32.77
29.26
25.61
22.64
20.90
20.36
20.39
20.07
18.55
15.55
11.42
6.89
2.92
0.14
-1.42
-2.28
-3.30
-5.24
-8.43
-12.53
-16.64
-19.60
-20.43
-18.68
-14.45
-8.36
-1.27
5.97
12.68
18.40
22.89
26.02
27.81
28.37
27.90
26.65
24.87
22.80
20.64
18.55
16.65
14.97
13.47
12.08
10.69
9.28
7.87
6.52
5.32
4.30
3.44
2.69
1.99
1.25
0.35
-0.83
-2.35
-4.15
-6.04
-7.71
-8.96
-9.70
-10.09
-10.44
-11.06
-12.15
-13.73
-15.62
-17.50
-18.94
-19.49
-18.69
-16.22
-11.99
-6.19
0.69
7.95
14.81
20.56
24.77
27.28
28.26
28.11
27.26
26.12
24.95
23.93
23.22
23.02
23.49
24.60
26.00
27.03
27.08
25.89
23.85
21.82
20.67
20.79
21.80
22.84
23.13
22.51
21.56
21.16
21.91
23.65
25.47
26.20
25.02
21.86
17.30
12.21
7.27
2.73
-1.61
-6.15
-11.18
-16.69
-22.23
-27.01
-30.13
-30.81
-28.71
-24.05
-17.50
-10.03
-2.57
4.21
9.91
14.38
17.59
19.53
20.22
19.74
18.26
16.05
13.45
10.84
8.54
6.75
5.52
4.76
4.29
3.93
3.60
3.30
3.07
2.91
2.65
2.08
0.99
-0.71
-2.95
-5.50
-8.17
-10.81
-13.47
-16.26
-19.27
-22.48
-25.67
-28.52
-30.69
-32.02
-32.55
-32.59
-32.63
-33.14
-34.46
-36.60
-39.19
-41.48
-42.54
-41.50
-37.85
-31.58
-23.25
-13.82
-4.39
4.08
10.97
16.07
19.49
21.49
22.34
22.21
21.22
19.50
17.25
14.78
12.46
10.54
9.12
8.06
7.13
6.13
5.01
3.82
2.58
1.17
-0.68
-3.31
-6.89
-11.35
-16.38
-21.63
-26.76
-31.62
-36.07
-39.99
-43.11
-45.18
-46.06
-45.90
-45.06
-43.99
-43.03
-42.24
-41.51
-40.65
-39.63
-38.58
-37.61
-36.61
-35.07
-32.18
-27.12
-19.41
-9.25
2.49
14.60
25.86
35.45
43.02
48.57
52.28
54.25
54.54
53.26
50.64
47.12
43.19
39.29
35.65
32.32
29.23
26.34
23.68
21.33
19.36
17.67
16.02
14.06
11.53
8.43
5.03
1.80
-0.83
-2.70
-4.01
-5.19
-6.71
-8.84
-11.55
-14.60
-17.67
-20.47
-22.87
-24.82
-26.39
-27.73
-29.05
-30.62
-32.64
-35.06
-37.49
-39.24
-39.46
-37.42
-32.79
-25.81
-17.19
-7.99
0.69
7.98
13.39
16.91
18.79
19.40
19.08
17.99
16.32
14.21
11.99
10.00
8.61
8.02
8.25
9.10
10.28
11.48
12.49
13.19
13.52
13.46
12.98
12.06
10.68
8.86
6.64
4.07
1.20
-1.89
-5.10
-8.28
-11.31
-14.07
-16.53
-18.80
-21.11
-23.76
-27.05
-31.04
-35.48
-39.71
-42.73
-43.51
-41.27
-35.80
-27.54
-17.52
-7.05
2.71
10.90
17.18
21.53
24.14
25.23
25.02
23.73
21.65
19.14
16.62
14.44
12.83
11.90
11.58
11.74
12.17
12.64
12.88
12.75
12.20
11.25
10.05
8.66
7.05
5.15
2.86
0.19
-2.76
-5.83
-8.86
-11.76
-14.51
-17.14
-19.71
-22.29
-25.03
-28.14
-31.77
-35.96
-40.41
-44.44
-47.09
-47.36
-44.56
-38.54
-29.79
-19.37
-8.55
1.46
9.85
16.25
20.75
23.63
25.25
25.90
25.77
24.98
23.63
21.87
19.95
18.13
16.67
15.71
15.27
15.20
15.27
15.30
15.13
14.70
14.01
13.08
11.86
10.30
8.34
5.92
3.04
-0.22
-3.72
-7.26
-10.60
-13.54
-16.05
-18.25
-20.45
-23.10
-26.56
-30.98
-36.17
-41.49
-45.97
-48.48
-48.02
-44.11
-36.92
-27.27
-16.39
-5.55
4.24
12.36
18.62
23.05
25.88
27.35
27.75
27.30
26.24
24.75
23.02
21.28
19.80
18.83
18.50
18.71
19.19
19.59
19.62
19.22
18.45
17.47
16.36
15.06
13.46
11.41
8.89
6.00
2.91
-0.20
-3.22
-6.11
-8.92
-11.69
-14.49
-17.46
-20.75
-24.58
-29.10
-34.14
-39.19
-43.32
-45.42
-44.53
-40.21
-32.66
-22.76
-11.76
-0.98
8.58
16.32
22.09
26.05
28.49
29.72
29.95
29.32
28.01
26.24
24.31
22.50
21.04
20.01
19.39
19.12
19.17
19.51
20.10
20.79
21.31
21.35
20.67
19.20
17.05
14.40
11.44
8.26
4.88
1.35
-2.24
-5.73
-8.96
-11.86
-14.54
-17.25
-20.30
-23.96
-28.33
-33.22
-38.09
-42.13
-44.37
-43.95
-40.34
-33.59
-24.30
-13.58
-2.71
7.13
15.13
20.98
24.79
26.95
27.93
28.08
27.61
26.59
25.07
23.19
21.20
19.40
18.07
17.37
17.28
17.65
18.21
18.65
18.75
18.41
17.64
16.60
15.38
14.03
12.47
10.57
8.22
5.43
2.33
-0.87
-3.95
-6.77
-9.32
-11.64
-13.92
-16.34
-19.19
-22.69
-26.90
-31.53
-35.88
-38.89
-39.49
-36.90
-31.00
-22.40
-12.26
-2.01
7.15
14.47
19.77
23.26
25.25
25.99
25.56
24.02
21.57
18.63
15.81
13.66
12.48
12.22
12.57
13.13
13.65
14.11
14.59
15.16
15.70
15.91
15.45
14.07
11.73
8.64
5.15
1.61
-1.70
-4.71
-7.49
-10.25
-13.18
-16.45
-20.15
-24.27
-28.72
-33.24
-37.34
-40.33
-41.35
-39.69
-34.99
-27.50
-18.05
-7.83
1.96
10.37
16.89
21.43
24.15
25.30
25.12
23.87
21.86
19.46
17.11
15.23
14.11
13.81
14.21
15.04
15.98
16.75
17.18
17.20
16.78
15.91
14.54
12.63
10.15
7.11
3.59
-0.23
-4.12
-7.81
-11.09
-13.84
-16.19
-18.43
-21.01
-24.31
-28.51
-33.43
-38.45
-42.65
-44.92
-44.36
-40.53
-33.63
-24.56
-14.56
-4.96
3.27
9.63
14.10
16.94
18.42
18.73
18.00
16.33
13.96
11.23
8.56
6.32
4.76
3.89
3.55
3.45
3.31
2.97
2.44
1.89
1.53
1.50
1.78
2.25
2.72
3.12
3.48
3.91
4.54
5.41
6.45
7.51
8.38
8.78
8.42
6.95
4.14
0.07
-4.83
-9.69
-13.40
-14.86
-13.39
-8.92
-2.06
6.10
14.32
21.48
26.88
30.26
31.71
31.56
30.17
27.87
24.95
21.62
18.11
14.63
11.35
8.41
5.89
3.77
2.00
0.47
-0.95
-2.32
-3.67
-4.99
-6.29
-7.62
-9.05
-10.69
-12.59
-14.76
-17.15
-19.62
-22.01
-24.14
-25.86
-27.08
-27.86
-28.34
-28.77
-29.45
-30.63
-32.47
-34.95
-37.77
-40.32
-41.66
-40.76
-36.79
-29.45
-19.21
-7.18
5.20
16.58
26.11
33.50
38.93
42.81
45.55
47.45
48.64
49.17
49.01
48.18
46.72
44.80
42.63
40.48
38.48
36.63
34.73
32.50
29.66
26.07
21.75
16.86
11.62
6.22
0.70
-5.05
-11.32
-18.38
-26.40
-35.34
-44.92
-54.71
-64.42
-73.99
-83.64
-93.76
-104.68
-116.46
-128.83
-141.14
-152.50
-161.90
-168.39
-171.33
-170.61
-166.78
-160.97
-154.63
-149.16
-145.61
-144.51
-145.84
-149.19
-153.80
-158.65
-162.64
-164.73
-164.10
-160.34
-153.36
-143.23
-130.05
-113.69
-93.88
-70.23
-42.29
-9.61
28.13
70.84
117.65
166.48
214.06
256.46
290.00
312.38
323.27
324.31
318.38
308.56
297.17
285.36
273.23
260.35
246.32
231.14
215.23
199.25
183.66
168.50
153.18
136.67
118.12
97.34
75.19
53.48
34.43
20.00
11.45
9.27
13.38
23.29
37.99
55.70
73.77
89.05
98.65
100.91
95.83
84.97
70.64
55.01
39.58
25.15
12.16
0.99
-7.91
-14.27
-18.22
-20.35
-21.52
-22.50
-23.71
-25.14
-26.53
-27.63
-28.44
-29.22
-30.40
-32.36
-35.21
-38.75
-42.54
-46.08
-49.05
-51.34
-53.06
-54.42
-55.59
-56.64
-57.57
-58.33
-58.77
-58.65
-57.56
-54.89
-50.06
-42.66
-32.80
-21.12
-8.75
3.08
13.26
21.16
26.59
29.75
31.06
30.93
29.72
27.66
24.90
21.54
17.66
13.36
8.74
3.91
-0.99
-5.80
-10.30
-14.20
-17.22
-19.12
-19.89
-19.82
-19.42
-19.35
-20.10
-21.83
-24.38
-27.32
-30.15
-32.54
-34.34
-35.66
-36.77
-37.98
-39.61
-41.87
-44.80
-48.17
-51.41
-53.68
-54.04
-51.72
-46.38
-38.32
-28.42
-17.92
-8.08
0.12
6.19
10.11
12.23
12.95
12.65
11.55
9.81
7.58
5.15
2.89
1.17
0.23
0.07
0.50
1.19
1.92
2.58
3.23
3.91
4.55
4.92
4.69
3.60
1.60
-1.08
-4.09
-7.04
-9.76
-12.29
-14.84
-17.62
-20.76
-24.34
-28.34
-32.78
-37.55
-42.34
-46.52
-49.21
-49.48
-46.74
-40.94
-32.70
-23.06
-13.21
-4.09
3.69
9.93
14.62
17.78
19.42
19.61
18.55
16.64
14.41
12.39
10.99
10.29
10.12
10.16
10.06
9.63
8.90
8.04
7.24
6.59
6.03
5.34
4.23
2.48
0.01
-3.11
-6.66
-10.35
-13.92
-17.17
-20.06
-22.65
-25.16
-27.91
-31.15
-34.98
-39.13
-42.93
-45.40
-45.59
-42.84
-37.05
-28.75
-18.94
-8.78
0.67
8.69
14.96
19.46
22.37
23.93
24.39
23.99
22.95
21.55
20.12
18.94
18.19
17.89
17.86
17.80
17.46
16.71
15.62
14.41
13.34
12.50
11.76
10.78
9.14
6.53
2.94
-1.36
-5.80
-9.85
-13.16
-15.77
-18.02
-20.41
-23.41
-27.25
-31.89
-36.94
-41.74
-45.43
-47.05
-45.82
-41.33
-33.81
-24.07
-13.37
-3.00
6.01
13.08
18.17
21.53
23.52
24.50
24.66
24.14
23.03
21.50
19.80
18.21
16.93
16.06
15.49
15.06
14.56
13.92
13.23
12.63
12.20
11.82
11.20
9.94
7.76
4.63
0.85
-3.07
-6.62
-9.48
-11.65
-13.40
-15.17
-17.37
-20.31
-24.07
-28.53
-33.33
-37.76
-40.94
-41.87
-39.79
-34.43
-26.20
-16.13
-5.56
4.22
12.32
18.39
22.52
25.06
26.37
26.73
26.30
25.22
23.68
21.95
20.37
19.21
18.60
18.46
18.52
18.50
18.23
17.70
17.05
16.43
15.93
15.45
14.72
13.44
11.34
8.36
4.64
0.50
-3.62
-7.37
-10.54
-13.19
-15.57
-18.08
-21.07
-24.77
-29.20
-34.05
-38.80
-42.65
-44.71
-44.16
-40.54
-33.92
-24.96
-14.75
-4.56
4.56
11.98
17.55
21.41
23.88
25.24
25.69
25.36
24.43
23.14
21.76
20.54
19.65
19.13
18.95
19.01
19.18
19.37
19.49
19.49
19.28
18.82
18.01
16.79
15.04
12.70
9.75
6.32
2.66
-0.90
-4.08
-6.73
-8.90
-10.82
-12.80
-15.19
-18.23
-22.04
-26.50
-31.16
-35.26
-37.83
-37.99
-35.20
-29.52
-21.55
-12.29
-2.82
5.97
13.48
19.39
23.53
25.82
26.29
25.11
22.72
19.72
16.84
14.63
13.39
13.09
13.40
13.89
14.21
14.20
13.91
13.56
13.33
13.30
13.33
13.11
12.31
10.70
8.26
5.20
1.92
-1.23
-4.01
-6.36
-8.41
-10.44
-12.70
-15.45
-18.82
-22.73
-26.81
-30.42
-32.71
-32.87
-30.36
-25.14
-17.66
-8.83
0.27
8.63
15.46
20.37
23.26
24.31
23.82
22.16
19.77
17.05
14.46
12.40
11.13
10.69
10.89
11.40
11.86
12.06
11.98
11.74
11.47
11.20
10.77
9.93
8.41
6.10
3.10
-0.30
-3.73
-6.81
-9.39
-11.52
-13.44
-15.52
-18.13
-21.52
-25.71
-30.40
-34.95
-38.43
-39.85
-38.40
-33.77
-26.31
-16.96
-6.95
2.58
10.82
17.40
22.26
25.47
27.11
27.28
26.16
24.08
21.48
18.87
16.63
15.04
14.16
13.89
14.04
14.32
14.47
14.36
13.99
13.50
13.02
12.58
12.03
11.12
9.59
7.30
4.29
0.79
-2.89
-6.44
-9.69
-12.57
-15.14
-17.56
-20.06
-22.87
-26.20
-30.10
-34.40
-38.61
-42.00
-43.69
-42.87
-39.11
-32.47
-23.57
-13.43
-3.20
6.10
13.81
19.63
23.57
25.86
26.75
26.52
25.46
23.91
22.25
20.78
19.77
19.23
19.04
18.99
18.92
18.81
18.71
18.70
18.74
18.63
18.09
16.95
15.24
13.16
10.97
8.83
6.69
4.36
1.62
-1.57
-5.05
-8.56
-11.79
-14.61
-17.03
-19.23
-21.50
-24.16
-27.50
-31.64
-36.40
-41.20
-45.07
-46.91
-45.80
-41.35
-33.90
-24.34
-13.90
-3.77
5.16
12.41
17.84
21.53
23.65
24.46
24.22
23.27
21.93
20.53
19.27
18.27
17.53
17.04
16.78
16.79
17.07
17.61
18.27
18.85
19.10
18.88
18.11
16.85
15.22
13.31
11.17
8.76
6.00
2.88
-0.60
-4.35
-8.15
-11.75
-14.94
-17.58
-19.79
-21.88
-24.24
-27.29
-31.17
-35.70
-40.31
-44.12
-46.15
-45.60
-42.02
-35.50
-26.64
-16.41
-5.93
3.74
11.80
17.83
21.80
23.97
24.80
24.75
24.16
23.24
22.06
20.72
19.35
18.13
17.22
16.70
16.52
16.57
16.74
16.91
17.03
16.97
16.60
15.78
14.45
12.64
10.52
8.31
6.20
4.26
2.44
0.58
-1.47
-3.81
-6.42
-9.20
-11.99
-14.68
-17.28
-19.90
-22.75
-26.04
-29.89
-34.20
-38.55
-42.25
-44.45
-44.30
-41.20
-35.08
-26.40
-16.15
-5.49
4.45
12.90
19.47
24.15
27.12
28.62
28.89
28.14
26.64
24.71
22.69
20.87
19.42
18.37
17.67
17.27
17.17
17.34
17.76
18.31
18.77
18.89
18.44
17.31
15.51
13.18
10.55
7.88
5.34
2.96
0.67
-1.75
-4.46
-7.49
-10.72
-13.91
-16.79
-19.21
-21.19
-22.92
-24.75
-27.02
-29.98
-33.59
-37.45
-40.74
-42.47
-41.68
-37.79
-30.89
-21.69
-11.38
-1.24
7.65
14.70
19.74
22.93
24.53
24.78
23.88
22.07
19.71
17.21
15.01
13.42
12.51
12.18
12.27
12.63
13.16
13.84
14.57
15.15
15.29
14.76
13.47
11.53
9.23
6.85
4.66
2.75
1.08
-0.48
-2.08
-3.88
-5.90
-8.12
-10.42
-12.70
-14.92
-17.16
-19.60
-22.46
-25.88
-29.71
-33.50
-36.45
-37.62
-36.21
-31.84
-24.72
-15.64
-5.72
3.82
12.01
18.28
22.45
24.72
25.39
24.84
23.37
21.18
18.50
15.53
12.59
10.05
8.29
7.50
7.66
8.40
9.22
9.64
9.36
8.42
7.04
5.45
3.80
2.06
0.13
-2.06
-4.52
-7.17
-9.97
-12.87
-15.87
-18.91
-21.85
-24.58
-27.04
-29.34
-31.76
-34.63
-38.15
-42.22
-46.34
-49.63
-51.03
-49.60
-44.91
-37.24
-27.51
-17.05
-7.14
1.29
7.84
12.48
15.38
16.72
16.69
15.52
13.57
11.31
9.19
7.51
6.42
5.90
5.87
6.24
6.93
7.82
8.78
9.65
10.34
10.79
10.96
10.81
10.28
9.26
7.67
5.46
2.67
-0.61
-4.21
-7.96
-11.71
-15.36
-18.97
-22.74
-26.97
-31.95
-37.75
-44.06
-50.16
-54.97
-57.31
-56.30
-51.58
-43.52
-33.11
-21.70
-10.58
-0.71
7.42
13.79
18.53
21.86
23.92
24.87
24.92
24.40
23.69
23.10
22.73
22.53
22.32
21.97
21.46
20.90
20.46
20.27
20.34
20.52
20.53
19.97
18.50
15.91
12.25
7.84
3.20
-1.16
-4.86
-7.90
-10.55
-13.34
-16.79
-21.29
-26.83
-32.96
-38.82
-43.31
-45.33
-44.08
-39.36
-31.57
-21.67
-10.95
-0.60
8.53
16.00
21.78
25.99
28.76
30.14
30.21
29.12
27.25
25.08
23.11
21.67
20.83
20.42
20.17
19.89
19.50
19.04
18.61
18.23
17.83
17.21
16.14
14.41
11.91
8.72
5.05
1.21
-2.55
-6.05
-9.31
-12.54
-16.03
-20.10
-24.95
-30.48
-36.18
-41.19
-44.42
-44.82
-41.75
-35.20
-25.85
-14.90
-3.75
6.41
14.76
20.99
25.17
27.56
28.48
28.21
27.07
25.39
23.56
21.94
20.77
20.09
19.71
19.39
18.93
18.31
17.66
17.22
17.08
17.16
17.15
16.64
15.32
13.08
10.12
6.86
3.75
1.16
-0.78
-2.30
-3.86
-6.04
-9.25
-13.52
-18.30
-22.64
-25.38
-25.60
-22.86
-17.32
-9.69
-0.95
7.88
15.93
22.61
27.54
30.61
31.82
31.34
29.52
26.78
23.66
20.74
18.45
17.02
16.44
16.43
16.66
16.80
16.69
16.28
15.65
14.79
13.67
12.15
10.09
7.48
4.40
1.09
-2.22
-5.33
-8.28
-11.27
-14.63
-18.68
-23.63
-29.39
-35.46
-40.99
-44.85
-45.94
-43.50
-37.43
-28.32
-17.37
-5.94
4.73
13.84
21.04
26.31
29.76
31.51
31.72
30.65
28.71
26.41
24.28
22.68
21.71
21.24
20.96
20.57
19.87
18.87
17.74
16.74
16.02
15.53
14.96
13.88
11.87
8.75
4.66
0.01
-4.66
-8.89
-12.48
-15.56
-18.52
-21.88
-26.08
-31.28
-37.23
-43.23
-48.21
-50.99
-50.62
-46.65
-39.32
-29.46
-18.25
-6.88
3.65
12.68
19.87
25.16
28.73
30.85
31.83
31.93
31.37
30.32
28.97
27.57
26.42
25.75
25.64
25.98
26.55
27.11
27.44
27.42
26.96
26.01
24.54
22.56
20.16
17.39
14.30
10.91
7.25
3.45
-0.32
-3.93
-7.26
-10.40
-13.55
-16.99
-21.00
-25.75
-31.16
-36.87
-42.19
-46.19
-47.86
-46.44
-41.63
-33.75
-23.71
-12.72
-2.02
7.43
15.09
20.84
24.79
27.22
28.41
28.66
28.31
27.70
27.12
26.76
26.60
26.53
26.38
26.08
25.66
25.29
25.11
25.16
25.36
25.48
25.27
24.51
23.10
21.06
18.56
15.81
12.99
10.22
7.46
4.62
1.58
-1.67
-5.05
-8.38
-11.48
-14.29
-16.90
-19.53
-22.48
-26.02
-30.28
-35.13
-40.11
-44.39
-46.95
-46.82
-43.40
-36.73
-27.59
-17.19
-6.87
2.31
9.81
15.54
19.68
22.48
24.14
24.82
24.72
24.12
23.32
22.55
21.93
21.42
20.98
20.56
20.22
20.06
20.18
20.60
21.19
21.73
21.89
21.37
20.03
17.91
15.23
12.36
9.58
7.05
4.74
2.50
0.15
-2.42
-5.24
-8.20
-11.12
-13.80
-16.11
-18.05
-19.84
-21.84
-24.47
-28.01
-32.41
-37.19
-41.48
-44.23
-44.53
-41.85
-36.31
-28.56
-19.69
-10.87
-3.00
3.41
8.27
11.80
14.27
15.87
16.65
16.67
16.03
14.99
13.91
13.09
12.74
12.82
13.17
13.54
13.73
13.63
13.25
12.69
12.08
11.50
10.92
10.22
9.26
7.97
6.45
4.91
3.59
2.63
1.99
1.44
0.75
-0.25
-1.59
-3.20
-5.03
-7.08
-9.36
-11.91
-14.69
-17.66
-20.88
-24.51
-28.74
-33.62
-38.87
-43.80
-47.45
-48.87
-47.46
-43.23
-36.79
-29.18
-21.53
-14.77
-9.50
-5.97
-4.14
-3.88
-4.99
-7.29
-10.55
-14.48
-18.74
-22.96
-26.87
-30.33
-33.38
-36.22
-39.10
-42.21
-45.55
-48.95
-52.14
-54.78
-56.60
-57.32
-56.67
-54.33
-49.99
-43.51
-34.99
-24.80
-13.50
-1.64
10.30
21.96
33.06
43.29
52.27
59.56
64.74
67.51
67.74
65.56
61.40
56.06
50.57
46.07
43.53
43.52
46.06
50.68
56.45
62.30
67.19
70.36
71.45
70.52
67.91
64.11
59.51
54.38
48.90
43.29
37.87
33.10
29.44
27.16
26.30
26.59
27.62
28.98
30.36
31.55
32.40
32.87
32.90
32.52
31.72
30.48
28.74
26.38
23.26
19.33
14.68
9.47
3.88
-2.05
-8.41
-15.39
-23.08
-31.37
-39.92
-48.22
-55.69
-61.72
-65.66
-66.94
-65.05
-59.83
-51.58
-41.16
-29.87
-19.07
-9.88
-2.84
1.97
4.85
6.16
6.20
5.16
3.28
0.83
-1.86
-4.49
-6.92
-9.17
-11.32
-13.46
-15.60
-17.73
-19.81
-21.86
-23.88
-25.80
-27.47
-28.75
-29.62
-30.16
-30.65
-31.34
-32.40
-33.85
-35.52
-37.24
-38.84
-40.22
-41.37
-42.30
-43.09
-43.88
-44.94
-46.52
-48.82
-51.70
-54.66
-56.85
-57.26
-55.04
-49.87
-42.01
-32.29
-21.85
-11.74
-2.71
4.88
10.97
15.65
19.03
21.17
22.20
22.27
21.61
20.51
19.20
17.87
16.66
15.70
15.06
14.85
15.03
15.48
16.02
16.38
16.37
15.91
14.99
13.70
12.15
10.41
8.53
6.49
4.23
1.70
-1.11
-4.14
-7.29
-10.43
-13.49
-16.47
-19.50
-22.75
-26.35
-30.30
-34.25
-37.57
-39.37
-38.81
-35.41
-29.17
-20.71
-11.05
-1.33
7.53
14.90
20.58
24.59
27.13
28.40
28.62
28.00
26.76
25.11
23.23
21.27
19.37
17.63
16.17
15.04
14.28
13.81
13.48
13.16
12.68
12.04
11.26
10.42
9.52
8.44
6.93
4.74
1.80
-1.73
-5.48
-9.03
-12.09
-14.63
-16.89
-19.22
-21.96
-25.28
-29.17
-33.39
-37.47
-40.72
-42.30
-41.40
-37.53
-30.71
-21.57
-11.15
-0.65
8.90
16.83
22.87
27.01
29.45
30.45
30.31
29.32
27.81
26.06
24.34
22.87
21.75
21.04
20.70
20.63
20.70
20.78
20.77
20.58
20.17
19.54
18.71
17.74
16.58
15.20
13.44
11.20
8.40
5.14
1.61
-1.94
-5.28
-8.30
-11.05
-13.70
-16.50
-19.70
-23.44
-27.68
-32.08
-36.03
-38.72
-39.34
-37.30
-32.44
-25.13
-16.15
-6.55
2.65
10.71
17.23
22.10
25.44
27.38
28.07
27.66
26.33
24.38
22.19
20.11
18.44
17.34
16.80
16.68
16.75
16.73
16.39
15.57
14.18
12.19
9.46
5.79
0.87
-5.56
-13.62
-23.18
-33.92
-45.39
-57.23
-69.28
-81.57
-94.27
-107.49
-121.19
-135.08
-148.62
-161.09
-171.55
-178.92
-182.07
-180.04
-172.28
-158.85
-140.43
-118.20
-93.68
-68.42
-43.86
-21.12
-1.02
16.02
29.96
41.16
50.20
57.74
64.37
70.38
75.81
80.44
84.04
86.46
87.79
88.32
88.40
88.25
87.88
87.07
85.57
83.30
80.40
77.18
73.93
70.81
67.77
64.61
61.10
57.08
52.43
47.13
41.23
35.05
29.16
24.42
21.80
22.10
25.58
31.88
40.01
48.67
56.62
62.94
67.18
69.35
69.68
68.50
66.09
62.63
58.30
53.31
47.89
42.34
37.01
32.15
27.95
24.42
21.48
18.95
16.69
14.59
12.61
10.67
8.66
6.43
3.78
0.62
-3.02
-6.95
-10.94
-14.77
-18.32
-21.60
-24.70
-27.76
-30.94
-34.45
-38.46
-42.97
-47.74
-52.11
-55.14
-55.90
-53.72
-48.56
-40.94
-31.86
-22.35
-13.26
-5.06
2.06
8.11
13.07
16.93
19.67
21.30
21.97
21.94
21.54
21.11
20.88
20.93
21.13
21.29
21.17
20.70
19.93
19.03
18.13
17.22
16.12
14.58
12.41
9.56
6.20
2.53
-1.21
-4.94
-8.67
-12.49
-16.43
-20.48
-24.61
-28.82
-33.18
-37.71
-42.29
-46.42
-49.32
-50.08
-47.92
-42.58
-34.45
-24.54
-14.09
-4.29
4.11
10.87
16.15
20.25
23.46
25.86
27.38
27.97
27.69
26.78
25.59
24.48
23.69
23.24
23.05
22.98
22.91
22.83
22.79
22.77
22.68
22.33
21.47
19.96
17.76
15.03
12.00
8.87
5.71
2.48
-0.92
-4.54
-8.29
-12.03
-15.59
-18.90
-22.04
-25.23
-28.70
-32.58
-36.81
-41.02
-44.59
-46.76
-46.76
-44.05
-38.56
-30.73
-21.39
-11.59
-2.30
5.84
12.59
18.06
22.46
26.03
28.87
30.99
32.41
33.22
33.60
33.77
33.91
34.11
34.37
34.65
34.95
35.30
35.74
36.29
36.89
37.45
37.79
37.77
37.24
36.11
34.39
32.16
29.55
26.69
23.69
20.61
17.43
14.19
10.92
7.62
4.24
0.60
-3.59
-8.59
-14.57
-21.42
-28.76
-35.94
-42.18
-46.74
-49.05
-48.89
-46.46
-42.32
-37.25
-32.15
-27.76
-24.58
-22.81
-22.39
-23.09
-24.71
-27.11
-30.24
-34.09
-38.61
-43.63
-48.90
-54.07
-58.82
-62.85
-65.91
-67.77
-68.16
-66.83
-63.56
-58.35
-51.34
-42.88
-33.51
-23.78
-14.27
-5.43
2.35
8.78
13.63
16.84
18.54
19.08
19.02
18.86
18.98
19.43
20.04
20.47
20.41
19.58
17.76
14.79
10.59
5.30
-0.60
-6.24
-10.58
-12.65
-11.88
-8.22
-2.15
5.51
13.85
22.04
29.50
35.96
41.41
46.04
50.07
53.67
56.84
59.46
61.24
61.88
61.06
58.63
54.74
49.88
44.83
40.41
37.21
35.31
34.25
33.35
32.03
30.10
27.81
25.62
23.81
22.29
20.66
18.43
15.33
11.47
7.23
3.12
-0.51
-3.56
-6.21
-8.75
-11.38
-14.22
-17.22
-20.34
-23.56
-26.87
-30.22
-33.33
-35.64
-36.50
-35.34
-31.95
-26.58
-19.89
-12.74
-5.91
0.05
4.89
8.61
11.30
13.07
14.02
14.20
13.72
12.73
11.44
10.10
8.98
8.26
7.99
8.12
8.52
9.04
9.56
9.97
10.13
9.92
9.26
8.16
6.70
5.01
3.24
1.39
-0.61
-2.88
-5.50
-8.39
-11.34
-14.09
-16.42
-18.30
-19.88
-21.44
-23.32
-25.78
-28.88
-32.45
-36.06
-39.06
-40.73
-40.42
-37.73
-32.64
-25.55
-17.19
-8.48
-0.26
6.82
12.45
16.59
19.38
21.06
21.85
21.96
21.56
20.89
20.14
19.44
18.84
18.34
17.89
17.46
17.10
16.88
16.85
16.98
17.13
17.11
16.70
15.82
14.42
12.59
10.47
8.18
5.78
3.27
0.65
-2.12
-4.99
-7.89
-10.75
-13.51
-16.18
-18.85
-21.69
-24.83
-28.37
-32.24
-36.07
-39.23
-40.90
-40.29
-36.97
-31.02
-23.13
-14.34
-5.78
1.74
7.87
12.64
16.30
19.09
21.14
22.46
23.06
22.98
22.36
21.35
20.10
18.71
17.29
15.96
14.86
14.12
13.78
13.74
13.80
13.70
13.24
12.34
11.05
9.48
7.71
5.81
3.79
1.63
-0.68
-3.10
-5.58
-8.06
-10.47
-12.72
-14.73
-16.51
-18.19
-19.99
-22.18
-24.87
-27.84
-30.47
-31.89
-31.24
-27.95
-22.03
-14.11
-5.26
3.33
10.62
16.02
19.32
20.58
19.89
17.23
12.44
5.42
-3.60
-13.94
-24.65
-34.81
-43.93
-52.14
-60.03
-68.22
-76.98
-86.12
-95.22
-104.16
-113.35
-123.65
-135.84
-150.09
-165.78
-181.94
-197.94
-214.01
-230.96
-249.20
-267.63
-283.08
-291.00
-287.08
-268.86
-236.64
-193.01
-141.67
-86.25
-29.87
24.50
73.53
113.48
141.01
154.43
154.64
145.07
130.58
115.87
104.18
96.88
93.73
93.76
95.93
99.50
103.95
108.76
113.28
116.79
118.69
118.71
117.10
114.46
111.57
109.07
107.29
106.07
104.97
103.39
100.82
97.05
92.17
86.40
80.01
73.13
65.82
58.08
50.06
41.97
34.17
26.98
20.59
15.02
10.16
5.72
1.43
-2.92
-7.49
-12.26
-17.15
-21.96
-26.47
-30.47
-33.86
-36.53
-38.33
-38.98
-38.07
-35.25
-30.47
-24.13
-17.13
-10.54
-5.28
-1.76
0.20
1.17
1.67
1.89
1.56
0.12
-2.78
-7.06
-12.10
-16.98
-20.79
-23.12
-24.14
-24.62
-25.64
-28.22
-32.94
-39.68
-47.43
-54.43
-58.49
-57.43
-49.76
-35.28
-15.33
7.24
28.77
45.74
55.86
58.63
55.38
48.63
41.14
35.07
31.58
31.01
33.30
38.37
46.23
56.75
69.37
82.97
96.15
107.55
116.35
122.35
125.85
127.35
127.17
125.28
121.46
115.51
107.57
98.17
88.21
78.63
70.10
62.85
56.66
51.08
45.68
40.23
34.76
29.42
24.38
19.67
15.23
10.95
6.72
2.51
-1.68
-5.81
-9.80
-13.55
-16.98
-20.06
-22.88
-25.65
-28.66
-32.08
-35.80
-39.37
-41.98
-42.76
-41.06
-36.73
-30.21
-22.36
-14.14
-6.30
0.75
6.86
12.04
16.19
19.13
20.73
21.03
20.37
19.26
18.14
17.32
16.81
16.50
16.27
16.04
15.79
15.48
14.98
14.12
12.67
10.51
7.66
4.28
0.64
-3.09
-6.77
-10.44
-14.16
-17.96
-21.75
-25.36
-28.61
-31.51
-34.33
-37.51
-41.52
-46.62
-52.58
-58.68
-63.80
-66.75
-66.55
-62.83
-55.86
-46.51
-36.01
-25.52
-15.98
-7.93
-1.56
3.19
6.44
8.41
9.28
9.25
8.54
7.39
6.06
4.84
3.98
3.67
3.97
4.71
5.61
6.37
6.82
6.92
6.75
6.38
5.74
4.66
2.94
0.45
-2.73
-6.38
-10.18
-13.85
-17.20
-20.13
-22.65
-24.85
-26.91
-29.14
-31.91
-35.51
-39.89
-44.58
-48.63
-50.89
-50.30
-46.31
-39.04
-29.28
-18.21
-7.01
3.35
12.34
19.77
25.65
30.03
32.97
34.56
34.90
34.18
32.61
30.36
27.52
24.12
20.18
15.80
11.21
6.70
2.44
-1.60
-5.64
-9.97
-14.75
-19.84
-24.85
-29.30
-32.88
-35.59
-37.77
-39.93
-42.49
-45.69
-49.52
-53.83
-58.40
-62.99
-67.40
-71.53
-75.47
-79.59
-84.43
-90.47
-97.73
-105.57
-112.66
-117.29
-117.90
-113.53
-104.14
-90.55
-74.11
-56.42
-38.94
-22.82
-8.81
2.74
11.85
18.79
24.00
27.94
31.03
33.62
35.93
38.13
40.28
42.37
44.29
45.93
47.23
48.18
48.89
49.54
50.29
51.15
51.92
52.18
51.36
48.93
44.61
38.47
30.94
22.68
14.39
6.68
-0.10
-5.80
-10.55
-14.60
-18.23
-21.61
-24.80
-27.65
-29.96
-31.51
-32.07
-31.40
-29.18
-25.03
-18.70
-10.25
-0.27
10.26
20.20
28.71
35.49
40.80
45.19
49.12
52.73
55.81
57.99
59.06
59.08
58.36
57.19
55.75
53.97
51.76
49.10
46.16
43.29
40.79
38.80
37.28
36.04
34.92
33.84
32.77
31.62
30.25
28.48
26.18
23.33
20.09
16.69
13.38
10.37
7.75
5.45
3.21
0.57
-2.93
-7.55
-13.12
-18.91
-23.82
-26.69
-26.70
-23.67
-18.06
-10.76
-2.83
4.83
11.50
16.72
20.12
21.49
20.83
18.36
14.54
10.09
5.70
2.01
-0.54
-1.73
-1.55
-0.16
2.19
5.13
8.26
11.20
13.56
15.02
15.44
14.81
13.39
11.54
9.63
7.89
6.33
4.82
3.17
1.31
-0.74
-2.98
-5.50
-8.62
-12.70
-17.97
-24.40
-31.48
-38.38
-44.12
-47.85
-49.09
-47.84
-44.43
-39.41
-33.29
-26.48
-19.26
-11.99
-5.15
0.68
4.93
7.29
7.82
6.90
5.18
3.27
1.63
0.43
-0.38
-1.05
-1.86
-2.99
-4.42
-5.97
-7.39
-8.48
-9.18
-9.61
-9.99
-10.56
-11.47
-12.77
-14.40
-16.17
-17.84
-19.21
-20.13
-20.56
-20.64
-20.58
-20.67
-21.23
-22.51
-24.62
-27.40
-30.38
-32.77
-33.62
-32.07
-27.64
-20.40
-10.99
-0.43
10.14
19.77
27.81
33.98
38.27
40.85
41.93
41.75
40.55
38.60
36.10
33.21
29.97
26.36
22.37
18.08
13.65
9.33
5.29
1.48
-2.36
-6.61
-11.65
-17.65
-24.59
-32.30
-40.61
-49.45
-58.80
-68.67
-79.01
-89.66
-100.37
-110.78
-120.31
-128.28
-133.98
-136.93
-137.03
-134.56
-130.00
-123.66
-115.52
-105.24
-92.37
-76.68
-58.30
-37.76
-15.78
6.88
29.40
50.97
70.70
87.77
101.54
111.75
118.56
122.46
124.09
123.95
122.32
119.19
114.40
107.82
99.61
90.25
80.44
70.94
62.31
54.83
48.52
43.33
39.24
36.32
34.59
33.93
33.92
33.97
33.40
31.74
28.80
24.76
20.13
15.61
11.83
9.23
7.87
7.47
7.51
7.43
6.80
5.45
3.43
0.89
-2.00
-5.17
-8.66
-12.56
-16.92
-21.68
-26.57
-31.09
-34.57
-36.28
-35.64
-32.39
-26.75
-19.36
-11.11
-2.93
4.49
10.73
15.71
19.50
22.26
24.11
25.22
25.66
25.54
24.95
23.96
22.69
21.27
19.88
18.69
17.79
17.18
16.75
16.35
15.83
15.11
14.17
13.03
11.68
10.12
8.28
6.10
3.55
0.65
-2.49
-5.71
-8.84
-11.76
-14.45
-17.05
-19.80
-23.00
-26.91
-31.56
-36.70
-41.69
-45.55
-47.18
-45.63
-40.46
-31.93
-20.99
-9.00
2.64
12.85
21.07
27.25
31.65
34.68
36.65
37.76
38.07
37.64
36.56
35.08
33.50
32.13
31.17
30.63
30.41
30.37
30.43
30.61
30.94
31.41
31.83
31.89
31.19
29.45
26.54
22.53
17.67
12.18
6.19
-0.38
-7.79
-16.34
-26.21
-37.28
-49.06
-60.83
-71.74
-81.14
-88.61
-94.02
-97.42
-98.90
-98.42
-95.86
-91.10
-84.14
-75.30
-65.19
-54.60
-44.33
-34.95
-26.74
-19.76
-13.96
-9.26
-5.54
-2.52
0.25
3.32
7.01
11.13
14.99
17.56
18.02
16.13
12.46
8.16
4.50
2.34
1.87
2.68
3.95
4.94
5.20
4.68
3.62
2.37
1.23
0.28
-0.52
-1.35
-2.34
-3.53
-4.89
-6.29
-7.53
-8.35
-8.40
-7.22
-4.40
0.26
6.65
14.26
22.27
29.83
36.23
41.01
44.01
45.24
44.83
42.97
39.95
36.14
31.97
27.95
24.50
21.91
20.26
19.46
19.26
19.32
19.39
19.27
18.83
18.01
16.72
14.90
12.50
9.54
6.17
2.58
-1.01
-4.45
-7.66
-10.63
-13.41
-16.10
-18.84
-21.86
-25.32
-29.25
-33.38
-37.07
-39.48
-39.73
-37.23
-31.93
-24.36
-15.45
-6.32
2.09
9.16
14.61
18.46
20.81
21.87
21.90
21.27
20.39
19.62
19.10
18.79
18.39
17.62
16.33
14.60
12.81
11.34
10.50
10.28
10.31
9.95
8.47
5.29
0.16
-6.74
-14.83
-23.42
-32.11
-41.25
-52.34
-67.79
-90.08
-120.39
-157.23
-196.16
-230.51
-253.46
-260.09
-248.86
-221.63
-182.84
-138.33
-94.33
-56.74
-30.25
-17.23
-16.75
-24.50
-34.01
-38.82
-34.81
-21.24
-0.31
24.51
50.16
74.74
97.12
116.22
130.67
139.22
141.47
138.19
130.74
120.26
107.02
90.79
71.27
48.46
22.38
-7.25
-40.70
-76.89
-112.03
-139.24
-150.49
-139.96
-107.26
-58.32
-3.33
47.35
86.87
113.41
129.01
137.17
140.95
142.47
143.66
146.74
153.89
166.26
182.99
201.36
217.90
229.92
236.53
238.58
237.59
234.56
229.21
220.16
205.82
185.28
158.85
127.77
93.57
57.51
20.49
-16.51
-51.98
-83.73
-109.32
-127.09
-136.90
-140.39
-140.31
-139.45
-139.36
-139.94
-139.68
-136.81
-130.44
-121.29
-111.49
-103.71
-99.93
-100.64
-104.79
-110.48
-115.95
-120.30
-123.72
-127.04
-131.08
-136.05
-141.37
-145.85
-148.17
-147.37
-143.02
-135.32
-124.94
-112.83
-100.10
-88.14
-78.41
-72.12
-69.50
-69.02
-67.31
-59.87
-42.65
-13.76
25.47
70.78
116.27
156.41
187.49
208.26
219.62
223.86
223.86
222.49
222.17
224.28
228.74
233.76
236.21
232.65
220.47
198.79
168.69
132.83
94.55
56.98
22.47
-7.78
-33.62
-55.81
-75.62
-94.31
-112.65
-130.42
-146.50
-159.11
-166.65
-168.49
-165.42
-159.57
-153.75
-150.38
-150.65
-154.09
-158.89
-162.84
-164.45
-163.69
-161.92
-161.05
-162.37
-165.55
-168.53
-168.03
-160.91
-145.38
-121.73
-92.35
-60.96
-31.43
-6.55
12.71
27.47
40.43
54.76
72.86
95.14
119.71
142.97
160.91
170.65
171.47
164.89
153.89
141.54
129.93
119.64
110.04
100.15
89.33
77.69
65.88
54.66
44.42
35.03
26.10
17.34
8.95
1.55
-4.21
-8.08
-10.29
-11.24
-11.10
-9.85
-7.92
-7.03
-10.31
-21.14
-41.32
-69.33
-100.32
-127.78
-146.25
-153.49
-150.66
-140.75
-126.40
-108.56
-87.07
-62.24
-36.29
-13.37
2.11
7.74
4.51
-3.35
-10.20
-11.28
-4.57
8.87
25.81
42.57
56.64
67.38
75.76
83.35
91.14
99.00
105.86
110.42
112.05
111.15
109.07
107.41
107.38
109.35
112.77
116.60
119.71
121.29
121.05
119.09
115.72
111.23
105.76
99.24
91.63
82.97
73.62
64.14
55.12
47.00
39.88
33.53
27.59
21.76
16.06
10.71
6.04
2.26
-0.68
-3.13
-5.58
-8.42
-11.80
-15.62
-19.55
-23.25
-26.50
-29.21
-31.48
-33.51
-35.54
-37.82
-40.51
-43.55
-46.65
-49.25
-50.70
-50.48
-48.40
-44.65
-39.75
-34.28
-28.80
-23.69
-19.19
-15.47
-12.68
-10.89
-10.08
-10.12
-10.72
-11.51
-12.14
-12.34
-11.97
-11.08
-9.86
-8.53
-7.31
-6.32
-5.54
-4.92
-4.37
-3.88
-3.49
-3.27
-3.33
-3.74
-4.57
-5.84
-7.46
-9.30
-11.19
-12.98
-14.62
-16.26
-18.04
-20.06
-22.18
-23.97
-24.77
-24.01
-21.38
-17.03
-11.47
-5.38
0.61
6.06
10.75
14.53
17.30
18.96
19.48
18.92
17.48
15.44
13.07
10.58
8.20
6.18
4.77
4.19
4.48
5.49
6.88
8.26
9.35
9.99
10.15
9.81
8.89
7.27
4.92
1.92
-1.46
-4.85
-7.94
-10.57
-12.81
-14.91
-17.23
-20.04
-23.39
-26.98
-30.20
-32.31
-32.58
-30.62
-26.49
-20.69
-13.97
-7.12
-0.75
4.71
9.08
12.32
14.36
15.24
15.03
13.93
12.23
10.33
8.61
7.31
6.57
6.33
6.50
6.96
7.67
8.59
9.64
10.69
11.51
11.92
11.73
10.89
9.43
7.45
5.09
2.50
-0.10
-2.50
-4.54
-6.20
-7.63
-9.15
-11.08
-13.62
-16.71
-19.93
-22.66
-24.18
-23.97
-21.80
-17.84
-12.50
-6.37
-0.07
5.86
10.98
14.97
17.67
19.05
19.30
18.64
17.36
15.75
14.05
12.43
11.02
9.90
9.12
8.63
8.34
8.15
7.98
7.81
7.66
7.56
7.54
7.48
7.25
6.68
5.65
4.18
2.37
0.39
-1.60
-3.49
-5.28
-7.06
-9.00
-11.27
-14.04
-17.31
-20.92
-24.43
-27.26
-28.74
-28.37
-25.92
-21.51
-15.59
-8.83
-1.98
4.30
9.56
13.58
16.37
18.04
18.70
18.44
17.38
15.72
13.77
11.92
10.46
9.55
9.20
9.24
9.50
9.83
10.13
10.35
10.42
10.31
9.96
9.38
8.56
7.48
6.14
4.56
2.84
1.13
-0.43
-1.76
-2.95
-4.22
-5.74
-7.66
-9.96
-12.58
-15.43
-18.49
-21.61
-24.47
-26.51
-27.06
-25.57
-21.91
-16.50
-10.16
-3.78
1.86
6.40
9.70
11.83
12.88
12.90
12.05
10.57
8.78
7.00
5.49
4.37
3.67
3.41
3.62
4.28
5.34
6.64
7.96
9.14
10.11
10.85
11.39
11.69
11.63
11.08
9.94
8.26
6.24
4.12
2.15
0.43
-1.06
-2.45
-3.93
-5.63
-7.68
-10.13
-13.04
-16.38
-19.98
-23.47
-26.28
-27.73
-27.26
-24.65
-20.08
-14.11
-7.53
-1.12
4.51
8.95
12.04
13.84
14.52
14.34
13.56
12.41
11.02
9.50
7.99
6.65
5.67
5.21
5.29
5.79
6.49
7.22
7.88
8.47
9.01
9.50
9.86
9.92
9.51
8.50
6.85
4.65
2.07
-0.64
-3.28
-5.74
-7.98
-10.06
-12.02
-13.89
-15.67
-17.46
-19.36
-21.49
-23.78
-25.88
-27.21
-27.09
-25.04
-21.04
-15.49
-9.17
-2.94
2.48
6.70
9.64
11.44
12.30
12.42
11.88
10.76
9.22
7.54
6.06
5.10
4.80
5.03
5.46
5.76
5.66
5.10
4.20
3.14
2.15
1.29
0.62
0.06
-0.45
-1.02
-1.69
-2.44
-3.24
-4.04
-4.83
-5.70
-6.73
-7.98
-9.47
-11.20
-13.15
-15.25
-17.39
-19.24
-20.35
-20.18
-18.38
-14.88
-10.03
-4.43
1.20
6.24
10.26
13.00
14.37
14.36
13.14
10.97
8.19
5.24
2.50
0.30
-1.15
-1.82
-1.80
-1.34
-0.75
-0.24
0.08
0.32
0.65
1.17
1.83
2.41
2.64
2.31
1.39
-0.02
-1.74
-3.62
-5.56
-7.53
-9.53
-11.53
-13.57
-15.69
-17.95
-20.32
-22.59
-24.30
-24.89
-23.79
-20.74
-15.87
-9.76
-3.22
2.89
7.91
11.48
13.51
14.12
13.52
11.98
9.83
7.39
5.03
3.07
1.72
1.05
0.96
1.24
1.65
2.00
2.23
2.37
2.55
2.85
3.31
3.82
4.19
4.22
3.76
2.80
1.42
-0.25
-2.07
-3.96
-5.92
-7.92
-9.94
-11.96
-14.01
-16.19
-18.62
-21.32
-24.06
-26.36
-27.55
-27.11
-24.78
-20.75
-15.54
-9.84
-4.32
0.55
4.49
7.46
9.52
10.80
11.50
11.75
11.66
11.26
10.61
9.79
8.95
8.25
7.79
7.60
7.60
7.70
7.84
8.02
8.21
8.34
8.28
7.81
6.77
5.08
2.81
0.14
-2.69
-5.50
-8.16
-10.62
-12.91
-15.05
-17.13
-19.22
-21.43
-23.82
-26.35
-28.83
-30.84
-31.87
-31.35
-28.88
-24.36
-18.11
-10.79
-3.25
3.71
9.53
14.00
17.18
19.29
20.55
21.15
21.18
20.75
20.01
19.22
18.61
18.38
18.58
19.06
19.62
20.08
20.32
20.38
20.29
20.09
19.74
19.16
18.28
17.09
15.62
13.92
11.97
9.78
7.34
4.73
2.07
-0.51
-2.93
-5.22
-7.45
-9.79
-12.41
-15.47
-19.04
-22.98
-26.90
-30.13
-31.93
-31.66
-29.01
-24.16
-17.70
-10.48
-3.39
2.90
7.98
11.78
14.39
16.01
16.84
17.05
16.78
16.18
15.42
14.66
14.11
13.89
14.11
14.77
15.79
17.03
18.31
19.42
20.24
20.62
20.55
20.02
19.06
17.71
16.01
13.97
11.66
9.10
6.35
3.45
0.49
-2.43
-5.24
-7.88
-10.37
-12.78
-15.26
-18.02
-21.22
-24.84
-28.61
-31.95
-34.08
-34.24
-31.95
-27.21
-20.54
-12.84
-5.10
1.83
7.48
11.73
14.66
16.43
17.19
17.03
16.06
14.52
12.66
10.80
9.22
8.09
7.48
7.31
7.42
7.63
7.78
7.83
7.85
7.98
8.28
8.67
8.89
8.66
7.79
6.29
4.34
2.23
0.14
-1.90
-3.95
-6.15
-8.57
-11.23
-14.11
-17.18
-20.42
-23.72
-26.84
-29.31
-30.54
-29.94
-27.18
-22.39
-16.08
-9.06
-2.21
3.84
8.76
12.50
15.19
16.93
17.77
17.74
16.92
15.56
14.07
12.87
12.24
12.28
12.80
13.53
14.22
14.77
15.21
15.62
16.03
16.38
16.50
16.22
15.45
14.23
12.62
10.65
8.31
5.57
2.45
-0.96
-4.47
-7.94
-11.30
-14.64
-18.04
-21.56
-25.05
-28.10
-30.18
-30.70
-29.28
-25.84
-20.67
-14.32
-7.50
-0.87
5.10
10.12
14.08
16.95
18.69
19.28
18.76
17.26
15.04
12.45
9.87
7.65
6.05
5.16
4.92
5.13
5.55
5.96
6.26
6.46
6.62
6.79
6.90
6.79
6.29
5.30
3.85
2.06
0.09
-1.89
-3.83
-5.72
-7.61
-9.62
-11.88
-14.51
-17.59
-21.05
-24.67
-27.99
-30.48
-31.53
-30.66
-27.70
-22.86
-16.69
-9.99
-3.51
2.19
6.84
10.43
13.07
14.88
15.90
16.15
15.69
14.68
13.38
12.09
11.08
10.52
10.49
10.89
11.60
12.40
13.15
13.69
13.97
13.96
13.68
13.13
12.28
11.09
9.52
7.58
5.31
2.78
0.12
-2.56
-5.18
-7.70
-10.15
-12.66
-15.39
-18.50
-22.00
-25.67
-28.98
-31.24
-31.80
-30.31
-26.84
-21.84
-16.03
-10.04
-4.35
0.84
5.47
9.47
12.73
15.06
16.37
16.68
16.20
15.22
14.06
13.01
12.27
11.92
11.89
11.98
11.94
11.55
10.79
9.76
8.69
7.81
7.19
6.72
6.15
5.23
3.82
1.94
-0.28
-2.65
-4.99
-7.18
-9.16
-11.00
-12.79
-14.71
-16.91
-19.50
-22.40
-25.30
-27.68
-28.95
-28.54
-26.19
-21.98
-16.35
-10.00
-3.68
1.97
6.53
9.87
12.02
13.14
13.44
13.10
12.34
11.36
10.39
9.64
9.21
9.13
9.29
9.56
9.81
9.93
9.93
9.86
9.81
9.83
9.89
9.87
9.55
8.65
6.98
4.49
1.36
-2.07
-5.44
-8.48
-11.18
-13.66
-16.18
-18.93
-21.99
-25.32
-28.82
-32.29
-35.47
-38.01
-39.43
-39.27
-37.21
-33.31
-27.98
-22.01
-16.22
-11.31
-7.65
-5.31
-4.21
-4.23
-5.31
-7.37
-10.30
-13.78
-17.36
-20.57
-23.00
-24.45
-24.92
-24.51
-23.32
-21.39
-18.67
-15.06
-10.50
-5.02
1.24
8.05
15.06
21.91
28.29
33.93
38.70
42.52
45.41
47.48
48.92
49.97
50.90
51.85
52.78
53.35
53.05
51.40
48.12
43.25
37.20
30.50
23.59
16.75
10.05
3.51
-2.82
-8.88
-14.61
-20.08
-25.44
-30.83
-36.24
-41.42
-46.00
-49.55
-51.86
-52.90
-52.88
-52.02
-50.52
-48.46
-45.86
-42.73
-39.11
-35.07
-30.73
-26.19
-21.52
-16.83
-12.27
-8.02
-4.27
-1.13
1.37
3.34
4.93
6.36
7.81
9.38
11.11
12.91
14.65
16.21
17.56
18.94
20.84
23.91
28.72
35.61
44.46
54.70
65.50
75.98
85.44
93.44
99.83
104.58
107.76
109.40
109.55
108.28
105.68
101.89
97.02
91.09
84.11
76.02
66.80
56.46
45.10
32.84
19.78
5.97
-8.62
-23.97
-39.95
-56.11
-71.73
-85.83
-97.39
-105.54
-109.86
-110.41
-107.72
-102.63
-96.15
-89.29
-82.86
-77.41
-73.06
-69.45
-65.94
-61.85
-56.77
-50.70
-44.10
-37.64
-31.95
-27.37
-23.91
-21.42
-19.66
-18.52
-17.93
-17.81
-18.00
-18.24
-18.22
-17.69
-16.53
-14.76
-12.51
-9.94
-7.16
-4.21
-1.08
2.26
5.73
9.20
12.44
15.27
17.58
19.37
20.79
22.00
23.10
24.05
24.60
24.39
23.10
20.62
17.23
13.54
10.42
8.73
9.02
11.37
15.36
20.24
25.12
29.23
32.03
33.28
33.00
31.46
29.13
26.49
24.01
21.98
20.52
19.64
19.34
19.65
20.55
21.99
23.72
25.47
26.97
28.08
28.75
29.03
28.91
28.30
27.11
25.25
22.79
19.84
16.57
13.04
9.17
4.78
-0.30
-6.06
-12.19
-18.04
-22.77
-25.58
-26.04
-24.17
-20.47
-15.67
-10.54
-5.69
-1.50
1.77
3.90
4.77
4.33
2.67
0.01
-3.27
-6.79
-10.20
-13.19
-15.60
-17.34
-18.46
-19.06
-19.32
-19.41
-19.49
-19.73
-20.30
-21.34
-22.89
-24.91
-27.24
-29.61
-31.80
-33.68
-35.29
-36.78
-38.42
-40.39
-42.76
-45.36
-47.80
-49.58
-50.14
-49.02
-45.91
-40.73
-33.66
-25.14
-15.85
-6.57
1.91
8.99
14.36
17.98
20.10
21.00
21.04
20.44
19.36
17.87
16.05
13.96
11.69
9.37
7.11
5.04
3.23
1.67
0.20
-1.39
-3.36
-5.79
-8.61
-11.52
-14.10
-15.97
-16.93
-17.07
-16.70
-16.29
-16.27
-16.92
-18.28
-20.14
-22.04
-23.40
-23.61
-22.15
-18.74
-13.49
-6.94
0.05
6.52
11.73
15.39
17.72
19.24
20.60
22.15
23.94
25.71
27.16
28.07
28.48
28.55
28.46
28.24
27.81
27.04
25.88
24.47
23.02
21.72
20.62
19.54
18.10
15.93
12.81
8.78
4.15
-0.63
-5.10
-8.98
-12.32
-15.37
-18.52
-22.19
-26.50
-31.22
-35.75
-39.27
-40.97
-40.38
-37.46
-32.61
-26.56
-20.12
-14.00
-8.68
-4.42
-1.32
0.73
1.88
2.43
2.71
3.06
3.75
4.92
6.61
8.71
11.09
13.56
15.95
18.10
19.89
21.20
21.97
22.17
21.76
20.67
18.90
16.42
13.34
9.88
6.36
3.11
0.36
-1.77
-3.36
-4.60
-5.69
-6.82
-8.02
-9.17
-9.98
-10.03
-8.86
-6.08
-1.55
4.58
11.86
19.58
27.00
33.47
38.55
42.06
44.11
44.95
44.94
44.35
43.37
42.06
40.47
38.67
36.84
35.17
33.84
32.85
32.09
31.38
30.54
29.52
28.37
27.19
26.05
24.93
23.81
22.59
21.35
20.21
19.38
18.97
18.99
19.21
19.36
19.16
18.51
17.50
16.37
15.44
14.98
15.26
16.54
18.99
22.67
27.43
32.90
38.64
44.25
49.51
54.43
59.07
63.41
67.29
70.47
72.78
74.26
75.12
75.69
76.18
76.54
76.42
75.26
72.38
67.30
59.77
49.93
38.21
25.23
11.60
-2.32
-16.31
-30.40
-44.62
-58.90
-72.96
-86.41
-98.83
-109.94
-119.64
-127.99
-135.19
-141.38
-146.62
-150.83
-153.86
-155.45
-155.30
-153.03
-148.14
-140.13
-128.66
-113.83
-96.30
-77.24
-58.10
-40.20
-24.42
-11.11
-0.17
8.76
16.03
21.97
26.79
30.66
33.68
35.88
37.18
37.43
36.53
34.46
31.37
27.57
23.46
19.45
15.81
12.69
10.00
7.49
4.91
2.10
-0.94
-4.04
-7.00
-9.61
-11.83
-13.73
-15.41
-17.01
-18.60
-20.24
-21.90
-23.49
-24.73
-25.27
-24.77
-23.05
-20.25
-16.74
-13.05
-9.61
-6.70
-4.36
-2.57
-1.32
-0.75
-0.95
-1.95
-3.52
-5.27
-6.77
-7.70
-7.99
-7.78
-7.31
-6.78
-6.22
-5.56
-4.71
-3.68
-2.58
-1.57
-0.74
-0.09
0.49
1.09
1.70
2.24
2.52
2.43
1.93
1.10
0.06
-1.07
-2.23
-3.43
-4.67
-6.02
-7.49
-9.06
-10.60
-11.83
-12.40
-12.02
-10.51
-7.97
-4.66
-1.01
2.53
5.58
7.92
9.43
10.12
10.17
9.78
9.24
8.83
8.76
9.15
10.00
11.18
12.49
13.70
14.60
15.03
15.02
14.66
14.13
13.61
13.19
12.93
12.84
12.88
13.05
13.32
13.65
13.95
14.00
13.52
12.15
9.58
5.67
0.52
-5.48
-11.70
-17.37
-21.75
-24.24
-24.47
-22.34
-18.07
-12.14
-5.19
2.06
8.96
15.05
19.95
23.44
25.25
25.17
23.06
19.01
13.38
6.79
-0.03
-6.41
-11.84
-16.04
-18.95
-20.63
-21.26
-20.98
-19.97
-18.37
-16.39
-14.22
-12.10
-10.23
-8.81
-7.95
-7.76
-8.28
-9.59
-11.72
-14.62
-18.14
-21.97
-25.73
-29.10
-31.86
-34.00
-35.58
-36.71
-37.34
-37.31
-36.36
-34.27
-30.89
-26.31
-20.74
-14.55
-8.18
-2.06
3.43
8.01
11.48
13.75
14.81
14.68
13.55
11.66
9.41
7.14
5.16
3.61
2.42
1.48
0.66
-0.06
-0.63
-1.00
-1.14
-1.17
-1.26
-1.58
-2.26
-3.32
-4.68
-6.24
-7.82
-9.30
-10.57
-11.58
-12.35
-12.98
-13.66
-14.54
-15.81
-17.49
-19.56
-21.76
-23.70
-24.86
-24.75
-23.02
-19.60
-14.81
-9.24
-3.61
1.42
5.42
8.21
9.83
10.42
10.11
9.08
7.50
5.58
3.62
1.93
0.76
0.28
0.49
1.24
2.28
3.32
4.16
4.69
4.97
5.10
5.18
5.15
4.86
4.14
2.92
1.29
-0.49
-2.15
-3.56
-4.81
-6.22
-8.17
-10.98
-14.72
-19.14
-23.73
-27.83
-30.85
-32.36
-32.24
-30.58
-27.66
-23.83
-19.49
-15.04
-10.89
-7.46
-5.16
-4.28
-4.94
-7.00
-10.11
-13.69
-17.06
-19.57
-20.70
-20.08
-17.58
-13.22
-7.23
0.03
8.06
16.26
23.99
30.64
35.78
39.10
40.44
39.79
37.20
32.86
27.11
20.41
13.25
6.07
-0.86
-7.40
-13.55
-19.27
-24.40
-28.62
-31.55
-32.81
-32.19
-29.70
-25.57
-20.17
-13.97
-7.45
-1.03
4.87
9.89
13.72
16.16
17.17
17.00
16.10
15.04
14.40
14.57
15.68
17.62
20.09
22.78
25.45
27.95
30.21
32.19
33.75
34.75
35.03
34.45
32.91
30.43
27.10
23.05
18.52
13.76
9.00
4.38
-0.12
-4.67
-9.42
-14.43
-19.49
-24.09
-27.53
-29.12
-28.39
-25.33
-20.34
-14.16
-7.66
-1.61
3.47
7.34
9.95
11.37
11.75
11.31
10.33
9.18
8.22
7.81
8.03
8.73
9.51
9.80
9.11
7.21
4.26
0.71
-2.89
-6.10
-8.71
-10.78
-12.45
-13.81
-14.83
-15.43
-15.52
-15.13
-14.41
-13.51
-12.52
-11.39
-9.91
-7.77
-4.68
-0.44
4.92
11.12
17.67
24.01
29.49
33.69
36.34
37.38
36.92
35.15
32.34
28.80
24.89
21.05
17.72
15.31
14.15
14.39
15.99
18.75
22.38
26.52
30.82
34.95
38.62
41.66
43.97
45.55
46.47
46.84
46.69
45.99
44.67
42.57
39.60
35.76
31.23
26.48
22.24
19.41
18.82
21.05
26.11
33.48
42.27
51.37
59.88
67.08
72.58
76.12
77.52
76.66
73.56
68.41
61.50
53.18
43.72
33.43
22.63
11.79
1.47
-7.76
-15.50
-21.64
-26.26
-29.58
-31.78
-32.88
-32.86
-31.78
-29.93
-27.81
-26.04
-25.06
-25.08
-26.01
-27.56
-29.45
-31.42
-33.35
-35.11
-36.60
-37.68
-38.30
-38.57
-38.65
-38.67
-38.62
-38.34
-37.70
-36.80
-36.09
-36.26
-37.94
-41.38
-46.21
-51.55
-56.29
-59.38
-60.27
-58.97
-56.09
-52.63
-49.69
-48.04
-47.97
-49.11
-50.71
-51.97
-52.39
-51.87
-50.72
-49.33
-48.02
-46.89
-45.92
-45.02
-44.17
-43.33
-42.36
-40.92
-38.54
-34.67
-28.98
-21.44
-12.40
-2.52
7.36
16.49
24.41
31.03
36.69
41.94
47.34
53.21
59.50
65.92
72.09
77.74
82.83
87.37
91.37
94.62
96.81
97.62
96.98
95.11
92.49
89.61
86.85
84.22
81.52
78.36
74.35
69.22
62.87
55.39
47.00
37.96
28.47
18.62
8.42
-2.06
-12.61
-22.83
-32.18
-40.14
-46.32
-50.54
-52.85
-53.46
-52.74
-51.19
-49.45
-48.12
-47.66
-48.23
-49.62
-51.39
-53.08
-54.46
-55.47
-56.15
-56.40
-55.85
-53.98
-50.35
-44.91
-38.04
-30.42
-22.69
-15.13
-7.53
0.64
9.88
20.26
31.28
41.94
51.13
58.16
63.11
66.86
70.80
76.32
84.28
94.59
106.31
117.88
127.52
133.71
135.62
133.56
129.16
125.15
124.53
129.39
139.76
153.19
165.37
171.66
168.79
155.93
134.67
108.03
78.97
49.09
18.28
-14.93
-52.28
-94.74
-141.62
-190.25
-236.16
-273.97
-298.52
-306.16
-295.73
-268.96
-230.13
-184.99
-139.38
-97.96
-63.40
-36.29
-15.65
0.23
13.04
24.07
34.07
43.44
52.28
60.38
67.29
72.29
74.64
73.84
69.93
63.57
55.92
48.33
41.93
37.37
34.66
33.34
32.76
32.35
31.90
31.47
31.21
31.19
31.20
30.86
29.75
27.68
24.74
21.34
18.00
15.20
13.27
12.31
12.22
12.80
13.76
14.86
15.98
17.12
18.37
19.87
21.62
23.50
25.20
26.37
26.74
26.21
24.87
22.94
20.66
18.25
15.78
13.29
10.80
8.34
5.96
3.65
1.28
-1.35
-4.38
-7.69
-10.90
-13.41
-14.63
-14.22
-12.29
-9.22
-5.56
-1.84
1.43
3.66
4.13
2.00
-3.41
-12.27
-24.08
-37.62
-51.24
-63.34
-72.66
-78.58
-81.05
-80.42
-77.29
-72.32
-66.11
-59.23
-52.15
-45.34
-39.20
-34.08
-30.20
-27.60
-26.13
-25.51
-25.39
-25.45
-25.51
-25.46
-25.27
-24.92
-24.32
-23.44
-22.31
-21.16
-20.32
-20.10
-20.59
-21.53
-22.39
-22.48
-21.25
-18.46
-14.29
-9.32
-4.37
-0.31
2.12
2.52
0.83
-2.62
-7.23
-12.33
-17.33
-21.78
-25.43
-28.18
-29.95
-30.74
-30.59
-29.65
-28.15
-26.34
-24.45
-22.52
-20.51
-18.33
-15.92
-13.30
-10.60
-8.04
-5.80
-4.02
-2.73
-1.83
-1.14
-0.44
0.43
1.51
2.70
3.73
4.31
4.16
3.15
1.32
-1.03
-3.38
-5.07
-5.39
-3.80
-0.08
5.59
12.70
20.47
28.17
35.18
41.15
45.99
49.81
52.83
55.32
57.46
59.31
60.80
61.80
62.23
62.19
61.93
61.85
62.33
63.67
66.08
69.69
74.57
80.76
88.09
96.09
104.09
111.36
117.56
122.94
128.30
134.49
141.73
149.16
154.74
155.76
149.52
134.05
108.39
72.57
27.58
-24.61
-80.87
-137.08
-188.71
-231.94
-264.69
-287.20
-301.50
-310.33
-315.81
-318.78
-318.97
-315.90
-309.74
-301.67
-293.51
-286.93
-282.68
-280.35
-278.70
-276.21
-271.46
-263.23
-250.27
-231.14
-204.22
-168.30
-123.37
-71.14
-15.18
39.69
88.46
127.09
153.36
167.05
169.69
163.87
152.50
138.31
123.49
109.66
97.94
89.02
83.25
80.58
80.61
82.60
85.61
88.70
91.08
92.23
91.85
89.82
86.17
80.99
74.48
66.92
58.68
50.15
41.73
33.83
26.96
21.72
18.64
18.06
19.91
23.60
28.20
32.65
36.06
37.96
38.40
37.77
36.59
35.30
34.02
32.65
30.95
28.70
25.87
22.64
19.32
16.19
13.45
11.05
8.76
6.23
3.07
-0.90
-5.60
-10.63
-15.27
-18.74
-20.35
-19.74
-16.91
-12.30
-6.53
-0.41
5.33
10.16
13.81
16.33
17.98
19.13
20.05
20.89
21.65
22.29
22.78
23.21
23.69
24.34
25.20
26.23
27.31
28.26
28.82
28.74
27.80
25.83
22.79
18.80
14.04
8.78
3.28
-2.27
-7.69
-12.86
-17.71
-22.21
-26.33
-30.04
-33.38
-36.43
-39.18
-41.57
-43.27
-43.82
-42.72
-39.72
-34.99
-29.10
-22.89
-17.08
-12.11
-7.98
-4.47
-1.29
1.61
4.08
5.80
6.56
6.35
5.49
4.49
3.83
3.82
4.46
5.50
6.59
7.49
8.14
8.63
9.04
9.31
9.24
8.55
7.07
4.82
2.08
-0.77
-3.40
-5.63
-7.45
-9.02
-10.54
-12.25
-14.36
-16.99
-20.20
-23.86
-27.63
-30.92
-32.96
-33.00
-30.52
-25.51
-18.51
-10.46
-2.44
4.67
10.48
15.00
18.56
21.48
23.92
25.88
27.23
27.99
28.32
28.54
28.91
29.55
30.37
31.14
31.64
31.80
31.68
31.44
31.23
31.08
30.89
30.43
29.42
27.68
25.15
22.03
18.69
15.62
13.24
11.74
10.99
10.58
9.97
8.66
6.38
3.18
-0.59
-4.35
-7.43
-9.22
-9.32
-7.57
-4.15
0.46
5.61
10.60
14.85
18.03
20.09
21.20
21.53
21.26
20.41
19.03
17.21
15.21
13.40
12.10
11.46
11.32
11.37
11.28
10.82
10.04
9.08
8.12
7.22
6.29
5.17
3.72
1.91
-0.11
-2.16
-4.03
-5.65
-7.08
-8.49
-10.08
-12.00
-14.36
-17.16
-20.34
-23.74
-27.03
-29.72
-31.24
-31.08
-28.99
-25.09
-19.84
-13.86
-7.79
-2.10
2.85
6.82
9.60
11.04
11.15
10.14
8.45
6.62
5.09
4.09
3.62
3.53
3.60
3.64
3.50
3.09
2.33
1.20
-0.33
-2.20
-4.34
-6.66
-9.06
-11.48
-13.91
-16.32
-18.67
-20.89
-22.86
-24.47
-25.65
-26.43
-26.89
-27.13
-27.19
-26.95
-26.09
-24.22
-20.97
-16.19
-10.03
-2.96
4.37
11.36
17.57
22.82
27.09
30.39
32.68
33.81
33.70
32.47
30.49
28.29
26.43
25.24
24.76
24.82
25.14
25.45
25.63
25.57
25.24
24.56
23.46
21.90
19.88
17.45
14.69
11.70
8.56
5.40
2.31
-0.63
-3.43
-6.21
-9.17
-12.44
-16.04
-19.76
-23.18
-25.78
-27.06
-26.71
-24.67
-21.15
-16.53
-11.33
-6.08
-1.25
2.83
5.94
8.06
9.28
9.77
9.72
9.33
8.74
8.12
7.65
7.50
7.77
8.48
9.54
10.77
11.96
12.91
13.47
13.54
13.10
12.14
10.70
8.84
6.68
4.37
2.08
-0.01
-1.85
-3.41
-4.86
-6.40
-8.31
-10.73
-13.59
-16.62
-19.22
-20.76
-20.72
-18.86
-15.33
-10.65
-5.51
-0.59
3.56
6.59
8.30
8.62
7.62
5.48
2.53
-0.77
-3.94
-6.61
-8.53
-9.65
-10.04
-9.84
-9.21
-8.27
-7.18
-6.11
-5.27
-4.82
-4.92
-5.61
-6.84
-8.48
-10.33
-12.08
-13.40
-13.95
-13.48
-12.03
-9.91
-7.72
-6.12
-5.58
-6.16
-7.41
-8.60
-8.98
-8.15
-6.14
-3.38
-0.44
2.22
4.39
6.03
7.10
7.54
7.19
5.95
3.90
1.34
-1.33
-3.75
-5.69
-7.08
-7.99
-8.51
-8.72
-8.65
-8.30
-7.64
-6.65
-5.36
-3.87
-2.36
-1.09
-0.26
0.00
-0.26
-0.87
-1.56
-2.06
-2.25
-2.15
-1.99
-2.04
-2.47
-3.25
-4.06
-4.41
-3.74
-1.67
1.92
6.81
12.51
18.32
23.52
27.38
29.34
28.99
26.15
20.82
13.25
3.85
-6.81
-18.02
-28.96
-38.89
-47.44
-54.67
-60.98
-66.79
-72.38
-77.57
-81.84
-84.42
-84.72
-82.61
-78.52
-73.23
-67.48
-61.79
-56.31
-50.99
-45.40
-39.21
-32.40
-25.17
-17.89
-10.79
-4.25
1.33
5.27
7.74
9.12
9.84
10.17
10.44
11.05
11.88
12.70
12.57
12.07
11.96
12.45
12.95
12.75
11.75
9.76
7.49
5.01
4.97
9.92
20.82
36.48
54.64
73.38
90.67
106.15
119.28
133.63
153.52
181.78
218.47
261.89
310.30
361.17
413.27
440.09
421.09
353.33
254.71
149.65
55.75
-9.94
-51.55
-73.25
-80.05
-74.45
-59.74
-43.62
-35.26
-42.09
-69.67
-114.19
-162.66
-203.34
-228.92
-239.00
-237.42
-229.49
-219.13
-207.73
-195.80
-182.93
-170.53
-158.88
-149.23
-139.50
-128.48
-115.88
-101.86
-87.30
-73.15
-61.34
-52.91
-47.70
-44.38
-41.79
-39.01
-35.39
-31.41
-27.71
-25.60
-25.97
-28.83
-33.09
-37.52
-40.91
-42.44
-41.97
-39.89
-37.04
-34.07
-30.91
-26.62
-20.29
-11.36
-0.02
12.87
26.15
38.68
49.80
59.39
67.73
75.02
81.32
86.53
90.49
93.17
94.74
95.53
95.85
95.88
95.51
94.56
92.86
90.36
87.18
83.48
79.37
74.83
69.80
64.21
58.20
52.05
46.04
40.30
34.79
29.31
23.63
17.65
11.40
5.33
0.12
-3.61
-5.45
-5.25
-3.03
0.99
6.38
12.46
19.07
26.08
33.18
39.64
44.47
46.76
45.95
41.93
34.96
26.50
18.11
10.74
4.28
-2.06
-8.90
-16.26
-23.59
-30.13
-34.07
-33.84
-28.65
-18.79
-5.10
11.79
31.44
53.21
69.75
74.16
63.73
42.53
17.83
-4.57
-21.74
-32.92
-38.06
-39.14
-36.65
-31.03
-23.21
-14.99
-8.69
-6.02
-7.89
-13.69
-22.02
-29.89
-34.61
-34.54
-28.76
-18.99
-9.80
-6.57
-12.38
-26.79
-45.37
-62.83
-74.94
-80.08
-79.45
-75.69
-70.94
-65.79
-61.48
-55.45
-46.32
-34.31
-21.10
-9.03
0.06
5.96
9.96
13.78
19.10
26.16
34.18
41.94
49.18
55.52
61.15
66.61
72.32
78.68
85.40
92.12
98.47
104.16
108.74
111.92
113.57
113.62
112.35
109.98
106.79
102.83
97.74
90.70
80.84
67.53
50.31
28.95
3.00
-27.91
-63.66
-102.96
-143.32
-181.45
-214.55
-241.53
-263.29
-281.87
-298.61
-312.55
-320.31
-317.39
-300.40
-268.87
-225.64
-175.66
-124.10
-74.82
-29.75
10.46
45.66
75.63
100.16
119.36
133.95
145.06
153.64
159.95
163.29
162.31
155.71
142.97
124.79
103.17
80.76
60.18
43.19
30.29
20.88
13.80
8.12
3.64
0.85
0.35
2.23
5.65
9.10
11.06
10.80
8.72
6.09
4.24
3.68
3.61
2.29
-2.14
-10.76
-23.19
-37.81
-52.42
-65.13
-74.85
-81.33
-84.88
-85.86
-84.47
-80.73
-74.54
-65.83
-54.55
-40.66
-24.34
-6.17
12.75
30.99
47.38
61.37
73.14
83.26
92.10
99.40
104.45
106.63
106.00
103.51
100.56
98.41
97.53
97.52
97.56
97.10
96.25
95.73
96.46
98.90
102.78
107.07
110.34
111.04
107.69
98.86
83.26
60.10
29.49
-7.01
-46.41
-84.61
-117.27
-140.74
-152.84
-153.14
-142.82
-124.30
-100.68
-75.24
-50.92
-29.94
-13.50
-1.80
5.74
10.14
12.42
13.54
14.49
16.47
20.75
28.29
38.79
50.09
58.33
58.78
47.48
22.49
-15.54
-63.71
-117.73
-172.85
-224.50
-268.75
-302.72
-324.97
-335.58
-335.76
-327.05
-310.43
-286.23
-254.67
-216.81
-175.05
-132.62
-92.54
-56.59
-25.17
2.11
25.43
44.31
58.12
66.89
72.08
76.28
82.36
92.31
106.40
123.06
139.37
151.78
156.88
152.29
137.26
113.24
83.66
53.02
25.47
3.55
-12.08
-21.87
-26.00
-23.50
-12.56
7.97
36.83
69.75
100.52
123.31
135.18
137.10
133.21
128.54
126.70
128.59
132.74
136.80
139.23
140.25
141.66
145.66
153.35
163.55
172.69
175.48
166.40
141.50
99.72
43.48
-21.82
-89.01
-150.83
-201.22
-236.18
-254.19
-256.28
-245.86
-228.25
-209.42
-194.37
-185.38
-180.83
-175.67
-163.32
-138.64
-100.39
-52.15
-1.21
44.09
77.16
94.85
97.52
87.89
69.54
45.95
20.25
-4.45
-25.08
-39.09
-45.34
-44.81
-40.47
-36.33
-35.94
-41.11
-51.52
-65.06
-78.87
-90.29
-97.46
-99.34
-95.50
-86.02
-71.38
-52.52
-30.87
-8.15
13.95
34.07
51.30
65.16
75.47
82.32
86.13
87.66
87.91
87.91
88.31
89.10
89.69
89.11
86.47
81.24
73.51
63.91
53.43
43.19
34.19
27.19
22.55
20.25
19.90
20.92
22.68
24.64
26.32
27.34
27.37
26.23
23.96
20.88
17.48
14.30
11.64
9.56
7.91
6.46
5.12
3.96
3.13
2.71
2.66
2.74
2.65
2.19
1.32
0.21
-0.86
-1.61
-1.90
-1.81
-1.57
-1.52
-1.92
-2.87
-4.20
-5.57
-6.43
-6.25
-4.59
-1.23
3.79
10.18
17.43
24.87
31.76
37.42
41.40
43.49
43.76
42.41
39.73
35.91
31.11
25.53
19.40
13.06
6.81
0.81
-4.95
-10.55
-16.01
-21.11
-25.48
-28.69
-30.49
-30.98
-30.52
-29.66
-28.87
-28.51
-28.76
-29.71
-31.35
-33.60
-36.18
-38.56
-40.06
-40.10
-38.46
-35.48
-32.01
-29.09
-27.64
-28.10
-30.39
-33.92
-37.86
-41.38
-43.77
-44.61
-43.72
-41.25
-37.60
-33.45
-29.57
-26.57
-24.73
-23.74
-22.88
-21.31
-18.46
-14.31
-9.39
-4.60
-0.72
1.82
3.07
3.44
3.43
3.50
3.93
4.87
6.31
8.07
9.82
11.26
12.27
13.08
14.23
16.33
19.79
24.53
29.90
34.91
38.43
39.61
38.13
34.27
28.80
22.73
16.96
12.10
8.32
5.56
3.65
2.51
2.18
2.72
4.02
5.77
7.53
8.83
9.44
9.36
8.80
8.03
7.18
6.25
5.10
3.59
1.67
-0.49
-2.61
-4.43
-5.86
-6.99
-7.95
-8.87
-9.62
-9.92
-9.42
-7.89
-5.30
-1.85
2.10
6.21
10.19
13.83
16.94
19.35
20.90
21.47
21.05
19.79
17.99
15.98
14.01
12.21
10.53
8.90
7.24
5.65
4.33
3.43
2.98
2.80
2.62
2.17
1.36
0.28
-0.96
-2.31
-3.90
-5.95
-8.62
-11.82
-15.12
-17.81
-19.14
-18.62
-16.17
-12.18
-7.35
-2.49
1.82
5.29
7.96
10.07
11.85
13.35
14.49
15.09
15.06
14.48
13.60
12.73
12.02
11.50
10.99
10.34
9.50
8.58
7.81
7.34
7.12
6.93
6.43
5.38
3.71
1.60
-0.69
-2.91
-4.96
-6.89
-8.87
-11.00
-13.24
-15.30
-16.72
-17.04
-15.87
-13.08
-8.87
-3.66
1.91
7.22
11.71
15.09
17.28
18.36
18.48
17.80
16.43
14.56
12.44
10.35
8.52
6.98
5.59
4.14
2.49
0.74
-0.91
-2.24
-3.19
-3.91
-4.67
-5.67
-6.93
-8.28
-9.51
-10.52
-11.39
-12.36
-13.73
-15.62
-17.85
-19.89
-21.01
-20.56
-18.14
-13.86
-8.26
-2.16
3.70
8.85
13.18
16.73
19.58
21.57
22.49
22.17
20.71
18.52
16.14
14.02
12.32
10.92
9.58
8.13
6.65
5.39
4.64
4.57
5.13
6.05
6.96
7.55
7.57
6.93
5.65
3.75
1.29
-1.64
-4.91
-8.33
-11.59
-14.35
-16.27
-17.08
-16.66
-15.04
-12.40
-9.01
-5.20
-1.26
2.49
5.81
8.48
10.31
11.20
11.18
10.45
9.25
7.95
6.74
5.69
4.79
3.98
3.25
2.64
2.20
1.87
1.54
1.09
0.54
0.05
-0.12
0.23
1.16
2.49
3.90
5.00
5.49
5.21
4.15
2.48
0.51
-1.27
-2.34
-2.25
-0.87
1.53
4.39
6.97
8.68
9.25
8.81
7.73
6.46
5.30
4.37
3.55
2.72
1.78
0.77
-0.23
-1.07
-1.71
-2.05
-2.08
-1.74
-1.02
0.02
1.13
1.96
2.12
1.40
-0.18
-2.34
-4.66
-6.85
-8.78
-10.49
-12.13
-13.79
-15.48
-17.10
-18.50
-19.48
-19.81
-19.22
-17.46
-14.46
-10.40
-5.74
-1.10
3.02
6.31
8.78
10.61
12.00
13.02
13.68
13.96
13.87
13.51
12.97
12.25
11.25
9.82
7.93
5.72
3.56
1.87
1.02
1.09
1.91
3.09
4.26
5.09
5.48
5.41
4.92
4.05
2.76
1.07
-0.98
-3.25
-5.59
-7.72
-9.38
-10.28
-10.26
-9.37
-7.81
-5.93
-4.05
-2.32
-0.74
0.76
2.14
3.23
3.74
3.53
2.67
1.47
0.30
-0.60
-1.28
-2.01
-3.06
-4.53
-6.22
-7.82
-8.97
-9.55
-9.70
-9.72
-9.89
-10.34
-10.99
-11.64
-12.08
-12.21
-12.09
-11.86
-11.71
-11.84
-12.42
-13.60
-15.38
-17.60
-19.81
-21.45
-22.00
-21.21
-19.20
-16.36
-13.17
-9.95
-6.84
-3.85
-1.13
1.05
2.28
2.26
0.95
-1.32
-4.03
-6.66
-8.95
-10.95
-12.97
-15.37
-18.31
-21.72
-25.23
-28.45
-31.13
-33.32
-35.34
-37.71
-40.85
-44.94
-49.85
-55.25
-60.79
-66.33
-71.99
-78.08
-84.94
-92.67
-101.08
-109.73
-118.04
-125.40
-131.34
-135.35
-136.79
-134.80
-128.35
-116.66
-99.59
-77.99
-53.44
-27.87
-2.90
20.27
40.52
56.15
64.69
63.57
51.60
30.44
5.00
-17.76
-31.26
-31.67
-18.99
3.82
32.83
65.04
99.11
134.60
170.60
204.91
234.23
255.41
266.65
267.94
260.66
246.50
226.80
202.53
175.03
146.56
120.49
100.42
89.01
86.84
92.10
101.03
109.18
112.83
109.91
100.44
86.23
70.30
56.12
46.95
45.22
51.86
65.94
84.63
103.89
119.74
129.71
133.73
134.00
133.71
135.52
140.31
147.00
153.43
157.52
158.09
154.86
147.80
136.68
121.16
101.31
78.17
53.72
30.09
8.56
-10.99
-29.67
-48.51
-67.52
-85.64
-101.48
-114.39
-124.99
-134.79
-145.07
-156.04
-166.65
-175.37
-181.11
-183.85
-184.37
-183.65
-182.14
-179.58
-175.30
-168.78
-160.11
-149.93
-139.19
-128.69
-118.95
-110.05
-101.86
-94.19
-86.95
-80.12
-73.83
-68.21
-63.37
-59.37
-56.15
-53.54
-51.29
-49.13
-46.84
-44.35
-41.67
-38.83
-35.77
-32.36
-28.55
-24.51
-20.59
-17.32
-15.07
-13.91
-13.53
-13.37
-12.90
-11.81
-10.19
-8.38
-6.88
-6.08
-6.12
-6.88
-8.00
-9.01
-9.48
-9.14
-7.97
-6.12
-3.86
-1.50
0.81
2.96
4.94
6.70
8.13
9.07
9.42
9.16
8.44
7.50
6.59
5.81
5.19
4.65
4.20
3.88
3.80
3.99
4.32
4.53
4.29
3.30
1.43
-1.26
-4.52
-7.98
-11.26
-14.02
-16.11
-17.65
-18.96
-20.48
-22.51
-25.06
-27.71
-29.79
-30.63
-29.80
-27.28
-23.39
-18.65
-13.66
-8.84
-4.50
-0.84
2.02
4.02
5.17
5.57
5.42
4.94
4.37
3.89
3.63
3.64
3.93
4.46
5.11
5.74
6.19
6.29
5.94
5.07
3.64
1.73
-0.51
-2.80
-4.79
-6.16
-6.77
-6.71
-6.36
-6.24
-6.89
-8.63
-11.46
-14.99
-18.54
-21.31
-22.52
-21.66
-18.63
-13.72
-7.61
-1.16
4.81
9.72
13.33
15.68
16.99
17.57
17.69
17.55
17.27
16.91
16.52
16.18
15.93
15.84
15.91
16.09
16.27
16.25
15.87
15.04
13.74
12.07
10.13
7.98
5.69
3.30
0.95
-1.18
-2.92
-4.21
-5.15
-6.06
-7.32
-9.24
-11.91
-15.07
-18.20
-20.60
-21.61
-20.80
-18.09
-13.74
-8.29
-2.42
3.24
8.18
12.11
14.98
16.84
17.87
18.19
17.93
17.19
16.07
14.73
13.36
12.14
11.25
10.79
10.83
11.41
12.51
14.11
16.09
18.27
20.38
22.06
23.01
22.98
21.92
19.98
17.47
14.75
12.08
9.51
6.88
3.92
0.38
-3.78
-8.41
-13.13
-17.50
-21.06
-23.43
-24.34
-23.63
-21.35
-17.73
-13.21
-8.31
-3.57
0.65
4.16
7.04
9.47
11.62
13.48
14.90
15.68
15.70
15.04
13.91
12.69
11.67
11.02
10.79
10.87
11.11
11.39
11.64
11.81
11.86
11.71
11.24
10.33
8.88
6.93
4.66
2.30
0.07
-1.93
-3.75
-5.50
-7.20
-8.82
-10.29
-11.54
-12.61
-13.59
-14.45
-15.01
-14.91
-13.71
-11.16
-7.33
-2.61
2.45
7.23
11.28
14.34
16.29
17.14
16.97
15.96
14.34
12.43
10.50
8.82
7.56
6.80
6.57
6.79
7.31
7.95
8.55
9.02
9.38
9.75
10.23
10.85
11.45
11.71
11.29
9.97
7.71
4.79
1.58
-1.50
-4.17
-6.40
-8.30
-10.11
-12.05
-14.26
-16.78
-19.49
-22.19
-24.54
-26.11
-26.48
-25.34
-22.58
-18.42
-13.28
-7.76
-2.44
2.24
6.02
8.82
10.73
11.93
12.68
13.19
13.59
13.86
13.91
13.59
12.90
11.94
10.86
9.84
8.96
8.17
7.36
6.47
5.51
4.59
3.83
3.28
2.85
2.42
1.83
1.07
0.25
-0.48
-0.99
-1.33
-1.67
-2.20
-3.06
-4.19
-5.48
-6.82
-8.23
-9.82
-11.67
-13.71
-15.62
-16.92
-17.15
-16.04
-13.63
-10.28
-6.47
-2.72
0.68
3.59
6.06
8.17
9.91
11.20
11.86
11.80
11.11
10.03
8.97
8.23
8.00
8.21
8.62
8.90
8.79
8.19
7.20
6.06
5.01
4.20
3.58
2.93
2.03
0.78
-0.71
-2.16
-3.28
-3.93
-4.17
-4.26
-4.47
-4.99
-5.88
-7.16
-8.75
-10.61
-12.56
-14.33
-15.56
-15.89
-15.14
-13.31
-10.68
-7.58
-4.38
-1.34
1.38
3.68
5.56
6.98
7.96
8.51
8.67
8.41
7.76
6.71
5.38
3.94
2.60
1.56
0.91
0.61
0.52
0.48
0.42
0.36
0.40
0.58
0.78
0.81
0.44
-0.39
-1.50
-2.51
-3.10
-3.17
-2.92
-2.75
-3.00
-3.77
-4.77
-5.53
-5.57
-4.64
-2.74
-0.13
2.85
5.84
8.47
10.38
11.27
11.00
9.63
7.45
4.94
2.53
0.58
-0.77
-1.50
-1.67
-1.32
-0.55
0.51
1.64
2.56
3.04
2.93
2.28
1.23
0.05
-1.10
-2.16
-3.16
-4.15
-5.17
-6.25
-7.38
-8.58
-9.91
-11.38
-13.02
-14.78
-16.67
-18.71
-20.93
-23.30
-25.66
-27.69
-28.92
-28.90
-27.38
-24.39
-20.28
-15.63
-11.03
-6.90
-3.40
-0.46
2.13
4.53
6.74
8.60
9.90
10.48
10.34
9.64
8.65
7.64
6.84
6.34
6.22
6.47
7.12
8.11
9.31
10.50
11.34
11.53
10.88
9.37
7.23
4.76
2.32
0.17
-1.62
-3.11
-4.52
-6.08
-7.97
-10.27
-12.90
-15.69
-18.35
-20.58
-22.07
-22.61
-22.06
-20.39
-17.72
-14.31
-10.52
-6.75
-3.34
-0.50
1.72
3.36
4.55
5.37
5.92
6.22
6.35
6.40
6.51
6.80
7.33
8.08
8.90
9.67
10.24
10.58
10.72
10.73
10.65
10.42
9.98
9.24
8.18
6.80
5.22
3.51
1.76
-0.03
-1.87
-3.77
-5.78
-7.88
-10.05
-12.29
-14.56
-16.77
-18.79
-20.34
-21.11
-20.81
-19.31
-16.65
-13.11
-9.05
-4.83
-0.74
3.00
6.21
8.74
10.48
11.44
11.78
11.74
11.59
11.56
11.73
12.10
12.60
13.21
13.88
14.59
15.28
15.92
16.45
16.80
16.90
16.61
15.81
14.38
12.35
9.89
7.27
4.76
2.52
0.58
-1.13
-2.71
-4.21
-5.69
-7.17
-8.69
-10.32
-12.12
-14.10
-16.21
-18.31
-20.16
-21.42
-21.81
-21.10
-19.22
-16.29
-12.57
-8.42
-4.16
-0.09
3.54
6.55
8.88
10.54
11.63
12.30
12.66
12.79
12.75
12.65
12.66
12.96
13.67
14.82
16.31
17.92
19.48
20.86
21.93
22.69
23.09
23.10
22.73
21.98
20.86
19.33
17.34
14.84
11.88
8.61
5.23
1.93
-1.22
-4.24
-7.20
-10.19
-13.24
-16.32
-19.36
-22.22
-24.68
-26.45
-27.15
-26.45
-24.20
-20.44
-15.51
-9.88
-4.12
1.31
6.03
9.83
12.60
14.37
15.20
15.24
14.65
13.64
12.41
11.13
9.90
8.80
7.88
7.27
7.04
7.24
7.78
8.53
9.25
9.85
10.30
10.70
11.08
11.40
11.46
11.08
10.14
8.66
6.79
4.76
2.72
0.81
-0.96
-2.60
-4.21
-5.89
-7.76
-9.89
-12.26
-14.73
-17.10
-19.13
-20.53
-20.99
-20.29
-18.29
-15.03
-10.82
-6.15
-1.54
2.58
6.01
8.71
10.81
12.34
13.29
13.57
13.15
12.15
10.82
9.49
8.44
7.83
7.69
7.90
8.33
8.84
9.37
9.90
10.43
10.94
11.39
11.69
11.74
11.46
10.87
10.03
9.02
7.91
6.65
5.17
3.35
1.15
-1.36
-4.07
-6.83
-9.50
-12.04
-14.46
-16.82
-19.16
-21.40
-23.31
-24.50
-24.56
-23.15
-20.21
-16.00
-11.02
-5.86
-1.03
3.16
6.64
9.40
11.45
12.79
13.31
13.01
11.99
10.51
8.94
7.65
6.89
6.69
6.94
7.43
7.98
8.43
8.75
8.88
8.80
8.57
8.21
7.76
7.21
6.50
5.55
4.34
2.90
1.33
-0.29
-1.98
-3.82
-5.95
-8.40
-11.08
-13.81
-16.45
-19.00
-21.49
-23.96
-26.31
-28.21
-29.19
-28.87
-27.03
-23.77
-19.45
-14.58
-9.71
-5.23
-1.40
1.66
3.93
5.48
6.35
6.66
6.54
6.12
5.58
5.09
4.76
4.65
4.80
5.19
5.78
6.47
7.17
7.76
8.21
8.58
8.96
9.45
10.01
10.51
10.69
10.31
9.24
7.54
5.41
3.07
0.75
-1.47
-3.59
-5.66
-7.75
-9.92
-12.18
-14.54
-16.96
-19.38
-21.60
-23.33
-24.15
-23.71
-21.76
-18.36
-13.85
-8.83
-3.91
0.38
3.81
6.37
8.26
9.74
11.04
12.25
13.33
14.15
14.59
14.66
14.50
14.40
14.69
15.59
17.12
19.11
21.34
23.54
25.58
27.42
29.17
31.09
33.55
36.87
40.97
45.02
47.28
45.21
36.09
17.78
-10.39
-47.23
-89.73
-133.69
-174.55
-208.42
-232.76
-246.80
-251.41
-248.59
-240.72
-229.79
-216.96
-202.52
-186.19
-167.68
-147.10
-125.15
-102.97
-81.87
-62.92
-46.78
-33.60
-23.04
-14.30
-6.15
2.94
14.32
28.83
46.35
65.71
85.00
102.08
115.18
123.33
126.46
125.15
120.38
113.24
104.74
95.73
86.96
78.94
71.92
65.88
60.57
55.66
50.87
46.12
41.53
37.40
34.00
31.43
29.60
28.23
27.01
25.66
24.02
22.03
19.71
17.19
14.65
12.42
10.87
10.53
11.94
15.67
22.22
31.73
43.85
57.68
71.87
85.01
95.91
103.90
108.80
110.71
109.90
106.61
101.16
94.06
85.99
77.76
70.04
63.29
57.56
52.65
48.24
44.11
40.20
36.60
33.40
30.58
27.86
24.85
21.13
16.51
11.08
5.22
-0.51
-5.60
-9.71
-12.79
-15.05
-16.90
-18.77
-21.04
-23.98
-27.66
-32.04
-36.95
-42.10
-46.98
-50.90
-53.11
-52.94
-50.15
-45.01
-38.35
-31.22
-24.64
-19.28
-15.38
-12.86
-11.38
-10.60
-10.18
-9.84
-9.37
-8.65
-7.71
-6.65
-5.65
-4.83
-4.23
-3.74
-3.16
-2.21
-0.75
1.22
3.51
5.73
7.48
8.46
8.58
8.00
6.98
5.77
4.50
3.25
2.02
0.89
-0.01
-0.56
-0.71
-0.52
-0.20
-0.05
-0.37
-1.40
-3.22
-5.73
-8.59
-11.33
-13.48
-14.68
-14.76
-13.79
-11.92
-9.34
-6.23
-2.79
0.74
4.10
7.07
9.47
11.19
12.15
12.29
11.54
9.90
7.53
4.76
2.05
-0.28
-2.07
-3.36
-4.26
-4.85
-4.98
-4.40
-2.88
-0.42
2.69
5.84
8.33
9.62
9.48
8.10
5.96
3.54
1.17
-1.08
-3.35
-5.82
-8.56
-11.48
-14.42
-17.24
-19.85
-22.20
-24.06
-25.05
-24.62
-22.41
-18.36
-12.93
-6.95
-1.29
3.44
7.08
9.82
11.97
13.74
15.11
15.96
16.22
16.01
15.66
15.60
16.18
17.58
19.73
22.33
24.95
27.09
28.33
28.35
27.08
24.67
21.43
17.74
13.93
10.24
6.77
3.54
0.52
-2.36
-5.23
-8.21
-11.38
-14.69
-17.94
-20.85
-23.19
-24.90
-26.14
-27.20
-28.32
-29.62
-30.98
-32.19
-32.90
-32.83
-31.79
-29.63
-26.36
-22.11
-17.16
-11.94
-6.94
-2.63
0.65
2.74
3.70
3.80
3.39
2.86
2.51
2.50
2.81
3.35
4.01
4.69
5.34
5.94
6.45
6.83
7.04
7.01
6.69
6.02
4.95
3.50
1.73
-0.19
-2.08
-3.83
-5.46
-7.09
-8.91
-11.09
-13.71
-16.78
-20.21
-23.79
-27.15
-29.75
-31.00
-30.36
-27.60
-22.83
-16.65
-9.82
-3.20
2.62
7.36
11.04
13.90
16.12
17.85
19.08
19.74
19.82
19.38
18.63
17.87
17.40
17.44
18.06
19.13
20.38
21.46
22.06
21.97
21.20
19.93
18.43
17.06
16.07
15.53
15.31
15.12
14.62
13.52
11.75
9.30
6.33
2.96
-0.72
-4.67
-8.86
-13.18
-17.42
-21.28
-24.41
-26.50
-27.38
-26.92
-25.14
-22.08
-17.84
-12.62
-6.81
-0.92
4.47
8.90
12.13
14.22
15.45
16.14
16.50
16.59
16.38
15.85
15.07
14.21
13.46
12.91
12.51
12.12
11.63
11.00
10.29
9.62
9.04
8.49
7.78
6.75
5.29
3.43
1.31
-0.92
-3.14
-5.27
-7.21
-8.86
-10.11
-10.92
-11.40
-11.84
-12.59
-13.98
-16.11
-18.79
-21.57
-23.83
-24.99
-24.62
-22.60
-19.12
-14.64
-9.76
-5.11
-1.19
1.72
3.60
4.63
5.10
5.28
5.32
5.22
4.88
4.20
3.16
1.92
0.75
0.01
0.02
0.94
2.83
5.55
8.86
12.41
15.83
18.81
21.16
22.91
24.30
25.63
27.11
28.77
30.34
31.38
31.42
30.11
27.37
23.33
18.34
12.81
7.07
1.34
-4.28
-9.75
-15.04
-20.00
-24.38
-27.76
-29.76
-30.10
-28.69
-25.80
-21.92
-17.64
-13.59
-10.27
-7.94
-6.65
-6.23
-6.40
-6.81
-7.22
-7.50
-7.62
-7.58
-7.37
-6.92
-6.16
-5.12
-3.95
-2.88
-2.09
-1.64
-1.50
-1.58
-1.84
-2.35
-3.24
-4.59
-6.35
-8.32
-10.20
-11.70
-12.67
-13.08
-13.01
-12.59
-11.90
-10.98
-9.85
-8.55
-7.21
-5.99
-5.04
-4.36
-3.74
-2.88
-1.50
0.40
2.52
4.30
5.23
5.03
3.80
1.99
0.15
-1.26
-2.01
-2.12
-1.73
-0.99
0.07
1.49
3.42
5.97
9.17
12.94
17.13
21.49
25.68
29.25
31.59
32.06
30.11
25.57
18.77
10.49
1.74
-6.52
-13.63
-19.30
-23.53
-26.50
-28.48
-29.72
-30.54
-31.20
-31.92
-32.78
-33.73
-34.66
-35.41
-35.80
-35.63
-34.72
-32.91
-30.16
-26.57
-22.40
-17.92
-13.35
-8.83
-4.36
0.12
4.71
9.49
14.50
19.63
24.64
29.20
32.95
35.63
37.15
37.60
37.19
36.18
34.75
33.09
31.34
29.70
28.26
26.99
25.68
24.09
21.96
19.22
16.03
12.64
9.35
6.36
3.70
1.34
-0.74
-2.52
-3.92
-4.99
-6.00
-7.45
-9.87
-13.54
-18.30
-23.44
-28.01
-31.14
-32.38
-31.82
-29.95
-27.36
-24.48
-21.52
-18.50
-15.35
-12.09
-8.76
-5.45
-2.23
0.80
3.46
5.54
6.84
7.29
7.01
6.34
5.69
5.43
5.75
6.67
8.01
9.49
10.82
11.75
12.14
11.94
11.20
10.05
8.62
6.98
5.12
2.96
0.49
-2.19
-4.78
-6.96
-8.53
-9.52
-10.20
-11.01
-12.29
-14.19
-16.59
-19.20
-21.67
-23.68
-24.96
-25.32
-24.58
-22.65
-19.64
-15.89
-11.85
-8.02
-4.75
-2.17
-0.23
1.24
2.39
3.28
3.92
4.29
4.38
4.29
4.15
4.08
4.15
4.42
4.84
5.35
5.90
6.53
7.31
8.34
9.68
11.24
12.78
13.95
14.52
14.46
13.93
13.23
12.61
12.09
11.45
10.34
8.47
5.79
2.53
-0.95
-4.32
-7.51
-10.68
-14.07
-17.78
-21.62
-25.06
-27.46
-28.36
-27.60
-25.39
-22.24
-18.71
-15.30
-12.32
-9.95
-8.29
-7.30
-6.85
-6.78
-6.89
-7.06
-7.23
-7.43
-7.69
-8.05
-8.54
-9.20
-10.14
-11.46
-13.22
-15.35
-17.66
-19.90
-21.91
-23.68
-25.39
-27.28
-29.50
-32.01
-34.61
-36.95
-38.65
-39.51
-39.48
-38.77
-37.72
-36.74
-36.12
-35.91
-35.89
-35.77
-35.34
-34.60
-33.74
-32.82
-31.62
-29.47
-25.59
-19.35
-10.60
0.21
12.34
24.99
37.63
50.00
61.98
73.37
83.76
92.64
99.51
104.13
106.49
106.87
105.67
103.36
100.31
96.89
93.37
89.95
86.74
83.70
80.68
77.41
73.67
69.29
64.25
58.69
52.80
46.71
40.46
34.00
27.23
20.19
13.01
5.98
-0.63
-6.67
-12.13
-17.09
-21.69
-26.04
-30.17
-34.05
-37.58
-40.56
-42.68
-43.53
-42.83
-40.47
-36.71
-32.07
-27.20
-22.70
-18.99
-16.17
-14.22
-13.00
-12.33
-12.05
-12.05
-12.21
-12.42
-12.60
-12.68
-12.62
-12.34
-11.76
-10.83
-9.51
-7.89
-6.13
-4.49
-3.21
-2.44
-2.17
-2.24
-2.49
-2.78
-3.05
-3.34
-3.74
-4.29
-5.02
-5.87
-6.76
-7.63
-8.47
-9.34
-10.37
-11.70
-13.40
-15.35
-17.27
-18.71
-19.21
-18.44
-16.31
-12.98
-8.81
-4.26
0.25
4.35
7.84
10.65
12.77
14.22
14.88
14.55
13.00
10.11
5.99
1.10
-3.85
-8.10
-11.03
-12.40
-12.34
-11.28
-9.79
-8.36
-7.34
-6.82
-6.78
-7.02
-7.42
-7.87
-8.40
-9.07
-9.88
-10.76
-11.58
-12.22
-12.69
-13.10
-13.58
-14.25
-15.09
-15.96
-16.71
-17.23
-17.43
-17.16
-16.23
-14.41
-11.56
-7.72
-3.23
1.44
5.84
9.62
12.65
14.90
16.37
17.04
16.93
16.14
14.94
13.68
12.66
12.01
11.66
11.39
11.08
10.73
10.51
10.61
11.10
11.85
12.63
13.19
13.39
13.22
12.71
11.88
10.66
8.99
6.87
4.43
1.92
-0.47
-2.59
-4.45
-6.08
-7.58
-8.96
-10.23
-11.45
-12.72
-14.17
-15.87
-17.68
-19.25
-20.11
-19.79
-18.06
-15.02
-11.00
-6.52
-2.01
2.19
5.81
8.70
10.68
11.69
11.81
11.29
10.49
9.76
9.29
9.12
9.19
9.42
9.85
10.53
11.51
12.71
13.93
14.93
15.42
15.27
14.47
13.09
11.33
9.40
7.52
5.85
4.48
3.37
2.46
1.62
0.82
0.08
-0.52
-0.89
-1.03
-0.99
-0.86
-0.78
-0.83
-1.00
-1.14
-0.94
-0.00
2.05
5.34
9.55
13.96
17.64
19.77
19.90
18.08
14.75
10.39
5.42
0.08
-5.39
-10.68
-15.30
-18.77
-20.81
-21.50
-21.29
-20.78
-20.52
-20.77
-21.47
-22.27
-22.69
-22.31
-20.94
-18.66
-15.81
-12.87
-10.33
-8.58
-7.76
-7.89
-8.85
-10.47
-12.53
-14.81
-17.08
-19.22
-21.16
-22.99
-24.87
-26.91
-29.10
-31.20
-32.76
-33.25
-32.24
-29.55
-25.34
-20.01
-14.14
-8.27
-2.84
1.81
5.48
8.11
9.79
10.73
11.25
11.65
12.09
12.55
12.84
12.82
12.47
11.96
11.56
11.52
11.93
12.65
13.43
14.01
14.19
13.88
13.16
12.12
10.93
9.66
8.36
6.96
5.36
3.52
1.53
-0.39
-1.92
-2.82
-3.07
-2.92
-2.91
-3.64
-5.62
-9.01
-13.55
-18.61
-23.29
-26.75
-28.37
-27.94
-25.63
-21.90
-17.27
-12.19
-7.06
-2.15
2.30
6.04
8.95
11.00
12.31
13.04
13.40
13.57
13.66
13.72
13.75
13.76
13.77
13.85
14.12
14.70
15.61
16.71
17.76
18.41
18.41
17.68
16.32
14.54
12.52
10.31
7.95
5.43
2.82
0.27
-2.06
-4.13
-5.98
-7.76
-9.58
-11.55
-13.69
-16.00
-18.49
-21.06
-23.48
-25.32
-26.04
-25.15
-22.38
-17.84
-12.01
-5.58
0.73
6.32
10.79
14.02
16.08
17.12
17.38
17.05
16.31
15.37
14.44
13.77
13.52
13.73
14.33
15.10
15.76
16.17
16.32
16.36
16.47
16.75
17.15
17.46
17.42
16.88
15.83
14.41
12.79
11.12
9.44
7.71
5.91
4.06
2.25
0.53
-1.16
-3.03
-5.37
-8.42
-12.20
-16.48
-20.81
-24.59
-27.22
-28.21
-27.30
-24.51
-20.16
-14.80
-9.05
-3.47
1.58
5.95
9.60
12.55
14.66
15.75
15.62
14.21
11.71
8.49
5.05
1.86
-0.78
-2.75
-4.04
-4.65
-4.52
-3.51
-1.53
1.31
4.64
7.92
10.64
12.41
13.15
12.97
12.08
10.66
8.85
6.73
4.35
1.77
-0.95
-3.74
-6.49
-9.06
-11.32
-13.20
-14.80
-16.33
-18.08
-20.23
-22.72
-25.21
-27.19
-28.08
-27.42
-25.00
-20.91
-15.49
-9.30
-2.95
2.98
8.12
12.28
15.45
17.73
19.18
19.84
19.76
19.03
17.83
16.37
14.86
13.42
12.11
10.96
9.99
9.28
8.86
8.70
8.70
8.74
8.77
8.80
8.86
8.94
8.92
8.59
7.75
6.28
4.28
1.94
-0.45
-2.73
-4.88
-6.96
-9.11
-11.31
-13.50
-15.55
-17.36
-18.90
-20.18
-21.22
-21.86
-21.83
-20.76
-18.41
-14.80
-10.21
-5.16
-0.22
4.25
8.04
11.18
13.71
15.60
16.77
17.09
16.52
15.20
13.46
11.73
10.43
9.78
9.80
10.25
10.80
11.10
11.00
10.56
9.98
9.44
8.94
8.31
7.25
5.51
3.03
-0.02
-3.41
-6.84
-10.09
-12.93
-15.27
-17.05
-18.36
-19.44
-20.61
-22.20
-24.36
-27.03
-29.93
-32.59
-34.51
-35.23
-34.40
-31.88
-27.81
-22.55
-16.70
-10.85
-5.52
-1.03
2.47
5.01
6.70
7.73
8.37
8.87
9.42
10.08
10.74
11.23
11.42
11.33
11.16
11.17
11.55
12.34
13.33
14.15
14.45
14.07
13.01
11.43
9.53
7.47
5.35
3.20
1.15
-0.70
-2.23
-3.40
-4.28
-5.01
-5.77
-6.74
-8.02
-9.71
-11.86
-14.49
-17.45
-20.43
-22.91
-24.31
-24.13
-22.14
-18.49
-13.63
-8.20
-2.87
1.87
5.69
8.49
10.36
11.54
12.30
12.89
13.42
13.87
14.11
14.00
13.53
12.84
12.13
11.60
11.34
11.33
11.48
11.66
11.75
11.70
11.49
11.13
10.67
10.16
9.66
9.14
8.55
7.79
6.81
5.61
4.24
2.78
1.23
-0.46
-2.38
-4.62
-7.25
-10.30
-13.75
-17.45
-21.08
-24.16
-26.14
-26.59
-25.35
-22.60
-18.75
-14.28
-9.61
-4.98
-0.59
3.44
6.92
9.70
11.68
12.85
13.28
13.15
12.69
12.15
11.75
11.63
11.82
12.28
12.92
13.69
14.48
15.19
15.64
15.60
14.88
13.41
11.30
8.72
5.88
2.94
-0.07
-3.15
-6.26
-9.38
-12.47
-15.55
-18.69
-21.94
-25.27
-28.60
-31.86
-35.06
-38.30
-41.71
-45.31
-48.87
-51.97
-54.08
-54.84
-54.16
-52.32
-49.83
-47.25
-45.02
-43.27
-41.89
-40.54
-38.78
-36.16
-32.33
-27.08
-20.38
-12.41
-3.58
5.54
14.34
22.25
28.98
34.47
38.88
42.46
45.43
47.87
49.76
51.06
51.76
51.94
51.72
51.21
50.44
49.35
47.84
45.73
42.93
39.33
34.91
29.65
23.58
16.73
9.12
0.88
-7.86
-16.90
-26.00
-34.90
-43.38
-51.13
-57.83
-63.15
-66.83
-68.82
-69.32
-68.74
-67.64
-66.55
-65.84
-65.69
-66.10
-66.92
-67.87
-68.54
-68.42
-66.88
-63.30
-57.17
-48.22
-36.50
-22.29
-6.03
11.78
30.56
49.57
67.92
84.63
98.89
110.35
119.29
126.50
132.94
139.28
145.63
151.53
156.21
158.99
159.46
157.52
153.23
146.68
138.00
127.41
115.29
102.15
88.50
74.67
60.74
46.63
32.36
18.18
4.62
-7.65
-17.98
-25.89
-31.17
-33.81
-34.00
-32.14
-28.85
-24.98
-21.36
-18.70
-17.35
-17.27
-18.16
-19.63
-21.32
-22.98
-24.39
-25.38
-25.81
-25.61
-24.88
-23.78
-22.54
-21.31
-20.15
-19.03
-17.91
-16.78
-15.70
-14.77
-14.10
-13.77
-13.86
-14.39
-15.38
-16.74
-18.38
-20.10
-21.64
-22.78
-23.34
-23.28
-22.73
-21.96
-21.38
-21.35
-22.08
-23.55
-25.33
-26.77
-27.12
-25.81
-22.64
-17.87
-12.15
-6.25
-0.93
3.34
6.36
8.19
8.99
8.95
8.25
7.04
5.53
3.97
2.60
1.58
0.98
0.68
0.56
0.53
0.68
1.14
2.07
3.51
5.28
7.02
8.39
9.11
9.08
8.35
7.08
5.39
3.43
1.32
-0.81
-2.83
-4.63
-6.14
-7.36
-8.36
-9.30
-10.39
-11.82
-13.71
-16.02
-18.50
-20.66
-21.97
-21.96
-20.47
-17.60
-13.79
-9.50
-5.18
-1.13
2.47
5.50
7.83
9.38
10.08
9.95
9.10
7.72
6.04
4.32
2.81
1.71
1.16
1.17
1.63
2.35
3.13
3.83
4.38
4.73
4.87
4.76
4.37
3.66
2.59
1.15
-0.63
-2.65
-4.79
-6.87
-8.69
-10.15
-11.21
-12.00
-12.77
-13.79
-15.25
-17.15
-19.22
-20.98
-21.90
-21.54
-19.77
-16.77
-12.89
-8.63
-4.37
-0.44
2.90
5.44
7.01
7.52
7.06
5.92
4.53
3.32
2.57
2.34
2.51
2.82
3.08
3.18
3.13
3.02
2.96
2.97
3.02
3.02
2.92
2.65
2.19
1.53
0.60
-0.63
-2.18
-4.00
-6.00
-8.06
-10.11
-12.10
-13.95
-15.62
-17.08
-18.38
-19.65
-20.98
-22.31
-23.33
-23.53
-22.45
-19.88
-15.97
-11.24
-6.32
-1.76
2.10
5.18
7.50
9.10
10.03
10.32
10.07
9.47
8.73
8.02
7.44
6.98
6.63
6.33
6.14
6.18
6.56
7.36
8.51
9.78
10.85
11.40
11.25
10.35
8.80
6.77
4.44
1.96
-0.50
-2.77
-4.79
-6.59
-8.34
-10.26
-12.55
-15.25
-18.20
-21.10
-23.53
-25.10
-25.47
-24.42
-21.94
-18.19
-13.51
-8.40
-3.31
1.38
5.46
8.80
11.33
13.05
13.97
14.24
14.10
13.79
13.52
13.31
13.12
12.81
12.31
11.63
10.87
10.16
9.58
9.15
8.86
8.65
8.48
8.31
8.09
7.69
6.97
5.79
4.10
1.98
-0.35
-2.62
-4.62
-6.27
-7.63
-8.86
-10.15
-11.65
-13.43
-15.50
-17.74
-19.89
-21.51
-22.15
-21.38
-19.06
-15.38
-10.79
-5.87
-1.13
3.07
6.50
9.06
10.68
11.31
11.03
9.99
8.46
6.73
5.10
3.80
2.99
2.73
2.96
3.50
4.08
4.40
4.26
3.60
2.52
1.16
-0.29
-1.84
-3.56
-5.58
-7.95
-10.65
-13.55
-16.47
-19.33
-22.15
-25.07
-28.27
-31.97
-36.27
-41.07
-46.00
-50.37
-53.34
-54.08
-52.07
-47.23
-39.94
-30.92
-20.94
-10.66
-0.45
9.56
19.42
29.17
38.77
48.02
56.57
64.06
70.16
74.67
77.48
78.57
77.93
75.65
71.92
67.13
61.75
56.29
51.14
46.57
42.67
39.46
36.84
34.59
32.38
29.78
26.38
21.95
16.53
10.42
4.00
-2.39
-8.63
-14.79
-20.99
-27.29
-33.57
-39.50
-44.74
-49.04
-52.34
-54.72
-56.27
-56.95
-56.59
-54.97
-52.02
-47.86
-42.88
-37.56
-32.28
-27.23
-22.42
-17.80
-13.35
-9.13
-5.28
-1.88
1.06
3.64
6.02
8.32
10.60
12.80
14.82
16.54
17.86
18.76
19.28
19.54
19.67
19.76
19.84
19.80
19.46
18.62
17.18
15.22
13.00
10.89
9.21
8.12
7.52
7.14
6.60
5.54
3.79
1.33
-1.61
-4.62
-7.22
-8.95
-9.51
-8.82
-7.05
-4.54
-1.73
0.99
3.26
4.87
5.66
5.57
4.65
3.06
1.05
-1.06
-2.97
-4.50
-5.63
-6.40
-6.92
-7.22
-7.29
-7.06
-6.48
-5.50
-4.19
-2.67
-1.11
0.27
1.33
2.03
2.50
2.90
3.40
3.99
4.52
4.73
4.38
3.45
2.04
0.36
-1.40
-3.16
-4.87
-6.48
-7.87
-8.82
-9.08
-8.44
-6.81
-4.28
-1.09
2.35
5.61
8.30
10.15
11.08
11.13
10.49
9.39
8.07
6.79
5.75
5.13
5.08
5.67
6.95
8.89
11.31
13.87
16.02
17.21
16.96
15.09
11.80
7.60
3.16
-0.92
-4.24
-6.69
-8.40
-9.65
-10.77
-12.07
-13.72
-15.71
-17.87
-19.78
-20.99
-21.09
-19.85
-17.36
-13.98
-10.28
-6.79
-3.91
-1.76
-0.26
0.74
1.40
1.76
1.77
1.39
0.54
-0.76
-2.45
-4.36
-6.19
-7.59
-8.20
-7.77
-6.28
-3.94
-1.19
1.46
3.53
4.72
4.96
4.37
3.22
1.79
0.32
-1.07
-2.33
-3.57
-4.90
-6.40
-8.12
-9.97
-11.76
-13.25
-14.20
-14.45
-14.01
-12.99
-11.53
-9.77
-7.68
-5.22
-2.32
0.93
4.25
7.31
9.74
11.35
12.11
12.15
11.66
10.76
9.52
8.00
6.34
4.77
3.57
2.94
2.91
3.29
3.72
3.85
3.45
2.53
1.25
-0.14
-1.41
-2.46
-3.30
-3.96
-4.52
-4.98
-5.33
-5.54
-5.68
-5.87
-6.23
-6.82
-7.53
-8.06
-8.05
-7.12
-5.13
-2.20
1.28
4.78
7.79
9.95
11.09
11.22
10.47
9.04
7.18
5.14
3.20
1.55
0.32
-0.45
-0.84
-0.91
-0.71
-0.21
0.62
1.73
2.97
4.12
4.91
5.19
4.95
4.32
3.49
2.66
1.96
1.41
1.00
0.68
0.37
-0.04
-0.68
-1.72
-3.24
-5.17
-7.25
-9.15
-10.48
-10.90
-10.26
-8.58
-6.06
-3.05
-0.01
2.59
4.29
4.73
3.75
1.44
-1.76
-5.22
-8.23
-10.23
-10.93
-10.35
-8.75
-6.50
-4.04
-1.73
0.16
1.52
2.44
3.17
4.02
5.24
6.90
8.84
10.80
12.51
13.79
14.61
15.02
15.12
14.95
14.60
14.08
13.37
12.34
10.91
8.99
6.66
4.17
1.91
0.24
-0.69
-1.04
-1.19
-1.59
-2.60
-4.28
-6.44
-8.73
-10.74
-12.13
-12.65
-12.20
-10.84
-8.75
-6.21
-3.60
-1.32
0.26
0.85
0.27
-1.43
-3.98
-6.82
-9.31
-10.84
-11.06
-9.98
-7.93
-5.33
-2.60
0.01
2.40
4.50
6.24
7.55
8.33
8.55
8.19
7.20
5.53
3.12
0.05
-3.45
-6.93
-9.94
-12.15
-13.56
-14.52
-15.65
-17.53
-20.45
-24.27
-28.36
-31.85
-33.90
-34.02
-32.14
-28.58
-23.81
-18.34
-12.55
-6.77
-1.34
3.39
7.19
10.07
12.30
14.31
16.56
19.43
23.22
28.17
34.48
42.12
50.60
58.98
65.94
70.24
71.15
68.68
63.54
56.82
49.61
42.67
36.40
30.90
26.06
21.65
17.37
12.80
7.44
0.85
-7.20
-16.57
-26.72
-36.85
-46.09
-53.73
-59.45
-63.24
-65.44
-66.58
-67.21
-67.87
-68.88
-70.32
-71.98
-73.51
-74.65
-75.38
-75.96
-76.73
-77.85
-79.13
-80.11
-80.34
-79.63
-78.14
-76.15
-73.79
-70.91
-67.13
-62.11
-55.69
-47.84
-38.41
-27.05
-13.39
2.70
20.68
39.39
57.34
73.33
86.79
97.92
107.29
115.48
122.77
129.08
134.21
138.03
140.63
142.30
143.56
144.91
146.79
149.32
152.23
154.89
156.45
156.16
153.61
148.68
141.58
132.58
122.01
110.19
97.51
84.48
71.62
59.40
48.14
37.98
28.95
21.03
14.13
8.09
2.64
-2.61
-8.08
-14.08
-20.72
-27.78
-34.84
-41.36
-46.86
-51.11
-54.21
-56.47
-58.35
-60.25
-62.46
-65.06
-67.97
-70.92
-73.43
-74.90
-74.75
-72.60
-68.58
-63.36
-58.04
-53.80
-51.52
-51.48
-53.31
-56.21
-59.23
-61.66
-63.23
-64.12
-64.83
-65.90
-67.74
-70.39
-73.50
-76.36
-78.13
-78.01
-75.52
-70.57
-63.58
-55.24
-46.35
-37.59
-29.32
-21.60
-14.34
-7.47
-1.03
4.73
9.42
12.69
14.28
14.08
12.23
9.07
5.18
1.22
-2.16
-4.55
-5.80
-6.16
-6.08
-6.09
-6.56
-7.60
-9.05
-10.58
-11.87
-12.66
-12.89
-12.61
-11.95
-11.11
-10.24
-9.46
-8.79
-8.15
-7.42
-6.51
-5.43
-4.31
-3.40
-2.93
-3.04
-3.73
-4.91
-6.42
-8.07
-9.64
-10.94
-11.77
-12.05
-11.89
-11.60
-11.59
-12.23
-13.64
-15.55
-17.37
-18.34
-17.78
-15.42
-11.40
-6.30
-0.95
3.89
7.67
10.13
11.30
11.40
10.68
9.45
7.99
6.52
5.16
3.95
2.88
1.93
1.10
0.48
0.20
0.32
0.78
1.37
1.84
1.95
1.61
0.89
-0.04
-1.05
-2.05
-3.08
-4.31
-5.87
-7.85
-10.23
-12.90
-15.65
-18.18
-20.22
-21.46
-21.68
-20.68
-18.43
-14.99
-10.52
-5.24
0.57
6.61
12.55
18.03
22.68
26.11
28.07
28.52
27.66
25.91
23.83
21.95
20.64
20.02
20.00
20.33
20.77
21.09
21.15
20.86
20.14
18.93
17.20
15.04
12.59
10.02
7.49
5.09
2.77
0.36
-2.37
-5.61
-9.36
-13.36
-17.02
-19.62
-20.48
-19.23
-16.01
-11.40
-6.20
-1.15
3.32
7.14
10.48
13.51
16.24
18.54
20.22
21.24
21.73
21.95
22.17
22.48
22.84
23.11
23.22
23.17
23.04
22.87
22.63
22.13
21.20
19.71
17.66
15.17
12.43
9.66
7.05
4.75
2.82
1.19
-0.33
-1.99
-3.96
-6.27
-8.67
-10.74
-11.93
-11.80
-10.15
-7.13
-3.20
1.01
4.91
8.12
10.55
12.30
13.58
14.53
15.21
15.59
15.61
15.26
14.64
13.88
13.17
12.65
12.32
12.09
11.78
11.19
10.28
9.14
7.96
6.95
6.16
5.45
4.61
3.50
2.15
0.76
-0.45
-1.46
-2.51
-3.98
-6.15
-9.05
-12.45
-16.05
-19.61
-22.96
-25.82
-27.61
-27.49
-24.65
-18.83
-10.61
-1.30
7.51
14.61
19.68
23.21
26.11
29.09
32.35
35.44
37.67
38.50
37.83
36.07
33.89
31.93
30.48
29.41
28.34
26.84
24.76
22.28
19.84
17.94
16.83
16.45
16.41
16.23
15.50
14.03
11.80
8.95
5.62
1.92
-2.06
-6.20
-10.39
-14.45
-18.21
-21.49
-24.12
-25.89
-26.56
-25.95
-24.00
-20.84
-16.79
-12.25
-7.66
-3.35
0.43
3.53
5.87
7.44
8.31
8.63
8.55
8.23
7.75
7.18
6.52
5.85
5.21
4.70
4.30
3.98
3.63
3.20
2.67
2.08
1.42
0.72
-0.04
-0.89
-1.85
-2.87
-3.92
-5.00
-6.16
-7.50
-9.16
-11.23
-13.73
-16.59
-19.61
-22.46
-24.75
-26.03
-25.99
-24.51
-21.75
-18.08
-13.97
-9.88
-6.11
-2.84
-0.15
1.92
3.30
3.93
3.86
3.24
2.39
1.69
1.48
1.93
2.96
4.35
5.75
6.86
7.49
7.59
7.27
6.64
5.83
4.93
3.97
2.91
1.67
0.19
-1.60
-3.66
-5.86
-7.98
-9.84
-11.33
-12.54
-13.63
-14.74
-15.91
-16.94
-17.52
-17.30
-16.07
-13.82
-10.80
-7.43
-4.17
-1.43
0.51
1.59
1.88
1.58
0.93
0.18
-0.49
-0.95
-1.17
-1.22
-1.24
-1.35
-1.64
-2.05
-2.44
-2.67
-2.61
-2.26
-1.73
-1.20
-0.85
-0.83
-1.25
-2.16
-3.54
-5.27
-7.11
-8.79
-10.05
-10.75
-10.93
-10.79
-10.59
-10.60
-10.98
-11.77
-12.86
-14.02
-14.94
-15.29
-14.83
-13.44
-11.22
-8.44
-5.43
-2.49
0.21
2.58
4.63
6.35
7.75
8.80
9.51
9.87
9.94
9.73
9.27
8.62
7.78
6.85
5.93
5.17
4.69
4.55
4.72
5.02
5.25
5.20
4.78
4.07
3.21
2.35
1.54
0.74
-0.16
-1.21
-2.44
-3.83
-5.36
-7.08
-9.01
-11.12
-13.28
-15.25
-16.77
-17.64
-17.74
-17.03
-15.53
-13.33
-10.57
-7.52
-4.50
-1.84
0.26
1.76
2.78
3.54
4.21
4.89
5.56
6.11
6.44
6.45
6.11
5.54
4.92
4.51
4.52
5.02
5.86
6.77
7.41
7.59
7.25
6.57
5.76
5.04
4.49
4.07
3.65
3.07
2.26
1.21
-0.04
-1.44
-2.99
-4.69
-6.57
-8.54
-10.52
-12.39
-14.13
-15.75
-17.33
-18.89
-20.35
-21.48
-21.95
-21.45
-19.74
-16.77
-12.74
-8.02
-3.21
1.12
4.49
6.69
7.82
8.22
8.28
8.29
8.37
8.45
8.45
8.29
7.98
7.64
7.38
7.28
7.36
7.61
7.96
8.32
8.60
8.71
8.63
8.39
8.03
7.59
7.08
6.43
5.57
4.52
3.30
2.01
0.72
-0.54
-1.76
-2.97
-4.20
-5.51
-7.03
-8.92
-11.30
-14.17
-17.32
-20.32
-22.68
-23.98
-23.94
-22.50
-19.78
-16.01
-11.54
-6.77
-2.17
1.81
4.94
7.22
8.88
10.21
11.42
12.52
13.36
13.80
13.89
13.84
13.97
14.53
15.61
17.06
18.65
20.12
21.21
21.68
21.29
19.96
17.75
14.98
12.15
9.67
7.80
6.45
5.33
4.02
2.23
-0.23
-3.38
-7.18
-11.52
-16.17
-20.80
-25.03
-28.53
-31.14
-32.97
-34.24
-35.18
-35.83
-35.95
-35.09
-32.76
-28.70
-22.93
-15.89
-8.28
-0.93
5.40
10.20
13.31
14.88
15.32
15.16
14.86
14.74
14.95
15.42
16.01
16.52
16.73
16.50
15.79
14.63
13.21
11.79
10.62
9.97
9.90
10.35
11.07
11.70
11.98
11.76
11.08
10.14
9.12
8.10
7.09
5.99
4.70
3.17
1.39
-0.68
-3.15
-6.18
-9.90
-14.20
-18.79
-23.09
-26.52
-28.55
-28.94
-27.70
-25.15
-21.72
-17.88
-13.98
-10.29
-6.91
-3.89
-1.29
0.83
2.37
3.31
3.66
3.58
3.36
3.32
3.73
4.66
5.95
7.24
8.21
8.61
8.50
8.12
7.83
7.90
8.37
9.05
9.58
9.58
8.80
7.21
4.96
2.36
-0.25
-2.57
-4.45
-5.90
-7.08
-8.29
-9.79
-11.72
-14.01
-16.38
-18.34
-19.37
-19.03
-17.15
-13.85
-9.51
-4.68
0.12
4.51
8.26
11.26
13.51
15.07
16.08
16.70
17.11
17.40
17.52
17.33
16.66
15.44
13.81
12.09
10.66
9.84
9.73
10.20
10.93
11.54
11.74
11.41
10.60
9.43
8.00
6.34
4.41
2.24
-0.07
-2.34
-4.43
-6.31
-8.14
-10.16
-12.55
-15.25
-17.97
-20.28
-21.72
-21.98
-20.92
-18.58
-15.08
-10.60
-5.40
0.13
5.44
9.94
13.11
14.79
15.24
15.07
14.99
15.52
16.70
18.19
19.40
19.87
19.52
18.63
17.78
17.51
18.17
19.78
22.06
24.52
26.55
27.66
27.45
25.83
23.01
19.44
15.73
12.42
9.85
8.09
6.98
6.14
5.14
3.59
1.24
-1.91
-5.60
-9.34
-12.53
-14.57
-15.09
-14.05
-11.69
-8.44
-4.80
-1.21
1.99
4.54
6.28
7.09
7.03
6.26
5.10
3.88
2.86
2.10
1.49
0.89
0.22
-0.46
-0.98
-1.24
-1.27
-1.28
-1.55
-2.29
-3.52
-5.08
-6.72
-8.22
-9.47
-10.49
-11.35
-12.12
-12.84
-13.50
-14.09
-14.56
-14.88
-15.08
-15.20
-15.27
-15.24
-14.92
-13.97
-12.12
-9.21
-5.39
-1.07
3.14
6.69
9.12
10.25
10.09
8.87
6.96
4.80
2.83
1.33
0.36
-0.26
-0.82
-1.50
-2.25
-2.80
-2.77
-1.90
-0.22
1.97
4.15
5.83
6.60
6.27
4.84
2.49
-0.51
-3.83
-7.14
-10.22
-12.94
-15.22
-17.01
-18.26
-18.95
-19.12
-18.88
-18.37
-17.68
-16.72
-15.31
-13.26
-10.56
-7.48
-4.54
-2.25
-0.98
-0.72
-1.10
-1.65
-1.89
-1.60
-0.81
0.27
1.47
2.71
3.99
5.30
6.54
7.47
7.83
7.48
6.48
5.09
3.69
2.54
1.70
1.00
0.11
-1.23
-3.15
-5.52
-8.06
-10.38
-12.16
-13.17
-13.40
-12.92
-11.93
-10.55
-8.88
-6.98
-4.96
-3.04
-1.57
-0.94
-1.43
-3.09
-5.61
-8.46
-10.99
-12.64
-13.12
-12.40
-10.80
-8.75
-6.77
-5.35
-4.90
-5.66
-7.67
-10.79
-14.66
-18.87
-23.04
-26.95
-30.55
-33.97
-37.39
-41.02
-44.93
-49.06
-53.14
-56.74
-59.36
-60.61
-60.34
-58.70
-56.10
-53.01
-49.80
-46.67
-43.69
-40.94
-38.55
-36.56
-34.70
-32.30
-28.31
-21.77
-12.23
-0.04
13.77
27.90
41.39
53.90
65.62
76.83
87.48
97.03
104.60
109.50
111.60
111.42
109.86
107.79
105.64
103.28
100.33
96.41
91.46
85.79
79.81
73.80
67.67
61.08
53.68
45.44
36.85
28.90
22.81
19.51
19.33
21.73
25.42
28.71
29.97
28.09
22.81
14.77
5.25
-4.15
-12.11
-17.83
-21.28
-23.00
-23.91
-24.91
-26.63
-29.38
-33.12
-37.59
-42.42
-47.23
-51.61
-55.22
-57.87
-59.63
-60.87
-62.16
-64.18
-67.43
-72.10
-77.96
-84.37
-90.42
-95.18
-97.94
-98.41
-96.96
-94.42
-91.96
-90.59
-90.86
-92.65
-95.21
-97.56
-98.81
-98.49
-96.64
-93.75
-90.55
-87.79
-86.04
-85.37
-85.15
-84.05
-80.27
-72.25
-59.24
-41.82
-21.78
-1.57
16.51
31.04
41.72
49.32
55.31
61.37
68.97
79.08
91.91
106.84
122.53
137.28
149.39
157.54
160.99
159.63
154.01
145.23
134.74
124.25
115.34
109.27
106.79
108.18
113.37
122.07
133.82
147.95
163.56
179.56
194.84
208.39
219.39
227.23
231.47
231.84
228.38
221.37
211.39
199.17
185.37
170.41
154.30
136.84
117.80
97.17
75.38
53.17
31.44
10.85
-8.37
-26.48
-43.95
-61.16
-78.02
-94.00
-108.22
-119.77
-128.04
-132.79
-134.22
-132.85
-129.52
-125.32
-121.42
-118.88
-118.18
-119.08
-120.51
-121.00
-119.21
-114.47
-106.90
-97.35
-86.94
-76.62
-66.96
-58.17
-50.31
-43.53
-38.20
-34.85
-33.99
-35.77
-39.83
-45.29
-50.97
-55.74
-58.87
-60.16
-59.87
-58.52
-56.61
-54.55
-52.67
-51.26
-50.46
-50.09
-49.58
-48.16
-45.29
-41.14
-36.73
-33.58
-33.01
-35.46
-40.17
-45.63
-50.16
-52.65
-52.75
-50.59
-46.39
-40.21
-32.07
-22.30
-11.66
-1.23
7.96
15.33
20.84
24.76
27.25
28.12
26.85
22.89
16.10
6.91
-3.60
-14.04
-23.01
-29.48
-32.95
-33.49
-31.74
-28.61
-25.12
-22.15
-20.26
-19.64
-20.12
-21.31
-22.68
-23.75
-24.07
-23.40
-21.68
-19.08
-16.02
-13.01
-10.51
-8.70
-7.43
-6.28
-4.78
-2.62
0.23
3.55
6.93
9.92
12.11
13.14
12.85
11.35
9.14
7.02
5.90
6.40
8.62
12.01
15.60
18.42
19.94
20.24
19.86
19.49
19.59
20.17
20.89
21.25
20.91
19.82
18.17
16.23
14.22
12.21
10.18
8.11
5.97
3.73
1.34
-1.31
-4.35
-7.79
-11.46
-15.02
-18.00
-19.91
-20.39
-19.26
-16.63
-12.82
-8.37
-3.90
0.03
3.06
5.10
6.31
7.00
7.51
8.06
8.72
9.45
10.21
11.02
11.96
13.07
14.32
15.53
16.52
17.14
17.35
17.24
16.95
16.52
15.90
14.95
13.59
11.85
9.92
8.07
6.56
5.40
4.44
3.38
1.87
-0.27
-3.00
-6.08
-9.14
-11.84
-13.91
-15.20
-15.62
-15.09
-13.52
-10.85
-7.16
-2.70
2.05
6.44
9.82
11.68
11.71
9.91
6.47
1.78
-3.62
-8.99
-13.39
-15.83
-15.46
-11.95
-5.69
2.13
9.85
15.78
18.84
18.87
16.62
13.37
10.29
8.05
6.66
5.69
4.66
3.37
1.91
0.45
-0.93
-2.41
-4.33
-6.96
-10.34
-14.27
-18.38
-22.38
-26.05
-29.23
-31.73
-33.20
-33.22
-31.38
-27.53
-21.86
-14.94
-7.58
-0.65
5.21
9.69
12.88
15.16
16.95
18.58
20.19
21.73
23.08
24.19
25.05
25.72
26.24
26.60
26.77
26.71
26.44
26.02
25.49
24.94
24.40
23.91
23.46
23.06
22.64
22.05
21.13
19.68
17.54
14.58
10.69
5.74
-0.33
-7.50
-15.51
-23.95
-32.29
-40.07
-46.91
-52.56
-56.72
-59.14
-59.49
-57.65
-53.75
-48.23
-41.69
-34.65
-27.42
-19.98
-12.13
-3.73
5.20
14.47
23.73
32.63
40.89
48.28
54.64
59.82
63.70
66.05
66.51
64.62
59.97
52.49
42.68
31.66
20.87
11.72
5.04
1.06
-0.54
-0.30
1.33
3.97
7.24
10.53
13.00
13.76
12.22
8.29
2.53
-4.10
-10.61
-16.29
-20.90
-24.48
-27.13
-28.73
-28.94
-27.38
-23.98
-19.19
-13.89
-9.08
-5.51
-3.34
-2.20
-1.40
-0.37
1.15
3.01
4.78
5.98
6.37
5.94
4.94
3.72
2.63
1.92
1.71
1.98
2.66
3.62
4.65
5.54
6.01
5.84
4.91
3.32
1.36
-0.49
-1.71
-1.95
-1.24
-0.04
0.87
0.67
-1.18
-4.71
-9.46
-14.58
-19.12
-22.30
-23.65
-23.14
-21.08
-18.06
-14.69
-11.48
-8.72
-6.47
-4.72
-3.38
-2.44
-1.90
-1.71
-1.75
-1.90
-1.99
-1.95
-1.68
-1.12
-0.22
1.02
2.44
3.78
4.74
5.16
5.04
4.50
3.71
2.75
1.56
0.12
-1.52
-3.14
-4.47
-5.25
-5.43
-5.17
-4.72
-4.36
-4.29
-4.63
-5.43
-6.67
-8.26
-9.94
-11.36
-12.06
-11.59
-9.63
-6.10
-1.17
4.71
10.90
16.76
21.75
25.53
28.02
29.27
29.39
28.50
26.70
24.07
20.69
16.72
12.31
7.67
3.07
-1.23
-4.97
-7.99
-10.25
-11.82
-12.85
-13.49
-13.85
-14.01
-14.07
-14.12
-14.34
-14.82
-15.62
-16.61
-17.58
-18.25
-18.47
-18.29
-18.03
-18.09
-18.75
-19.94
-21.16
-21.68
-20.73
-17.87
-13.15
-7.09
-0.51
5.64
10.54
13.62
14.71
14.04
12.22
10.00
8.05
6.73
5.99
5.48
4.78
3.69
2.34
1.11
0.45
0.63
1.64
3.24
5.07
6.91
8.67
10.39
12.14
13.86
15.35
16.33
16.55
15.90
14.41
12.26
9.70
6.98
4.30
1.87
-0.24
-2.06
-3.79
-5.74
-8.18
-11.20
-14.54
-17.65
-19.89
-20.69
-19.83
-17.44
-13.98
-10.02
-6.09
-2.55
0.42
2.86
4.87
6.59
8.08
9.30
10.10
10.28
9.77
8.72
7.43
6.29
5.62
5.52
5.86
6.34
6.69
6.77
6.59
6.34
6.16
6.07
5.86
5.24
3.95
1.93
-0.63
-3.37
-5.93
-8.07
-9.82
-11.37
-12.96
-14.76
-16.78
-18.85
-20.71
-22.08
-22.70
-22.40
-21.06
-18.68
-15.39
-11.48
-7.33
-3.31
0.34
3.54
6.33
8.78
10.89
12.56
13.65
14.13
14.10
13.77
13.39
13.10
12.93
12.74
12.38
11.74
10.82
9.75
8.73
8.01
7.70
7.78
7.98
7.94
7.32
5.97
4.03
1.81
-0.35
-2.26
-3.92
-5.54
-7.40
-9.72
-12.55
-15.73
-18.92
-21.64
-23.36
-23.68
-22.37
-19.49
-15.30
-10.25
-4.87
0.33
4.85
8.31
10.48
11.36
11.18
10.32
9.20
8.22
7.66
7.69
8.32
9.43
10.77
12.02
12.89
13.22
13.01
12.44
11.70
10.95
10.23
9.45
8.45
7.13
5.48
3.70
2.04
0.79
0.06
-0.32
-0.71
-1.63
-3.39
-6.02
-9.11
-12.00
-13.94
-14.36
-13.03
-10.10
-6.08
-1.63
2.53
5.88
8.14
9.32
9.67
9.46
9.01
8.47
7.96
7.53
7.19
7.00
6.97
7.14
7.46
7.91
8.46
9.05
9.64
10.16
10.52
10.58
10.16
9.09
7.29
4.85
2.01
-0.83
-3.26
-5.07
-6.31
-7.31
-8.51
-10.31
-12.83
-15.92
-19.11
-21.79
-23.34
-23.27
-21.33
-17.58
-12.39
-6.40
-0.36
5.04
9.34
12.30
13.97
14.55
14.37
13.74
13.01
12.43
12.18
12.31
12.73
13.28
13.78
14.10
14.22
14.19
14.12
14.09
14.11
14.04
13.65
12.68
10.97
8.57
5.78
3.00
0.58
-1.33
-2.86
-4.35
-6.21
-8.77
-12.12
-16.10
-20.29
-24.08
-26.82
-28.03
-27.45
-25.21
-21.74
-17.63
-13.43
-9.55
-6.21
-3.52
-1.57
-0.43
-0.15
-0.67
-1.83
-3.37
-5.00
-6.43
-7.40
-7.70
-7.26
-6.13
-4.50
-2.63
-0.71
1.18
3.12
5.19
7.41
9.59
11.39
12.46
12.62
11.92
10.64
9.11
7.58
6.10
4.54
2.65
0.20
-2.93
-6.67
-10.77
-14.79
-18.24
-20.66
-21.65
-21.01
-18.74
-15.05
-10.33
-5.08
0.16
4.96
9.01
12.20
14.54
16.11
17.05
17.52
17.67
17.63
17.53
17.42
17.33
17.30
17.35
17.51
17.72
17.88
17.87
17.60
17.12
16.51
15.86
15.12
14.09
12.54
10.38
7.74
4.96
2.39
0.20
-1.71
-3.63
-5.89
-8.65
-11.83
-15.22
-18.53
-21.57
-24.18
-26.17
-27.30
-27.23
-25.66
-22.51
-17.98
-12.57
-6.94
-1.71
2.71
6.21
8.90
11.00
12.69
14.08
15.09
15.63
15.58
14.92
13.78
12.43
11.25
10.60
10.73
11.68
13.29
15.20
16.96
18.15
18.49
17.92
16.53
14.60
12.45
10.36
8.49
6.83
5.32
3.82
2.20
0.43
-1.44
-3.33
-5.15
-6.85
-8.45
-10.05
-11.79
-13.78
-16.01
-18.26
-20.19
-21.34
-21.28
-19.78
-16.88
-12.88
-8.30
-3.63
0.72
4.53
7.70
10.19
11.93
12.85
12.95
12.39
11.46
10.54
9.93
9.80
10.11
10.71
11.44
12.19
12.94
13.75
14.64
15.58
16.42
16.88
16.65
15.51
13.50
10.95
8.35
6.19
4.77
4.01
3.59
3.06
2.05
0.39
-1.87
-4.50
-7.25
-9.94
-12.51
-15.01
-17.54
-20.14
-22.65
-24.70
-25.82
-25.55
-23.65
-20.24
-15.79
-10.95
-6.35
-2.46
0.50
2.58
3.90
4.64
4.95
4.96
4.79
4.54
4.36
4.35
4.64
5.31
6.42
7.94
9.71
11.50
13.03
14.07
14.47
14.24
13.50
12.42
11.19
9.94
8.67
7.32
5.82
4.19
2.55
1.11
0.06
-0.62
-1.15
-1.88
-3.15
-5.15
-7.82
-10.89
-13.98
-16.72
-18.70
-19.59
-19.13
-17.25
-14.14
-10.30
-6.42
-3.11
-0.74
0.67
1.37
1.70
1.87
1.85
1.45
0.53
-0.88
-2.46
-3.71
-4.21
-3.73
-2.38
-0.49
1.55
3.41
4.93
6.11
6.96
7.45
7.53
7.15
6.35
5.30
4.18
3.14
2.15
1.05
-0.32
-2.09
-4.23
-6.56
-8.87
-10.99
-12.89
-14.73
-16.70
-18.85
-21.02
-22.74
-23.45
-22.71
-20.40
-16.80
-12.47
-8.04
-3.94
-0.41
2.51
4.78
6.31
7.04
7.04
6.58
6.10
5.94
6.26
6.92
7.64
8.15
8.34
8.31
8.19
8.10
8.00
7.82
7.53
7.18
6.88
6.75
6.78
6.83
6.68
6.12
5.03
3.45
1.51
-0.63
-2.86
-5.16
-7.57
-10.17
-13.03
-16.16
-19.47
-22.74
-25.61
-27.60
-28.26
-27.26
-24.53
-20.28
-15.08
-9.63
-4.64
-0.69
1.94
3.30
3.70
3.64
3.59
3.88
4.56
5.48
6.35
6.97
7.26
7.35
7.43
7.67
8.11
8.63
9.10
9.43
9.63
9.71
9.72
9.63
9.39
8.94
8.24
7.29
6.14
4.86
3.48
2.06
0.60
-0.92
-2.55
-4.40
-6.60
-9.28
-12.48
-16.11
-19.88
-23.38
-26.07
-27.48
-27.28
-25.41
-22.13
-17.91
-13.42
-9.22
-5.76
-3.24
-1.58
-0.60
-0.01
0.43
0.82
1.20
1.48
1.60
1.51
1.23
0.84
0.53
0.47
0.81
1.58
2.69
3.90
5.00
5.77
6.13
6.03
5.44
4.32
2.65
0.49
-1.96
-4.36
-6.39
-7.90
-8.94
-9.79
-10.80
-12.24
-14.18
-16.43
-18.80
-21.04
-22.99
-24.53
-25.44
-25.34
-23.85
-20.73
-16.04
-10.26
-4.11
1.65
6.49
10.15
12.69
14.22
14.90
14.84
14.13
12.94
11.52
10.18
9.17
8.60
8.41
8.44
8.53
8.59
8.61
8.64
8.75
9.01
9.47
10.14
10.97
11.82
12.49
12.76
12.43
11.43
9.81
7.79
5.65
3.63
1.85
0.20
-1.55
-3.73
-6.61
-10.26
-14.44
-18.63
-22.15
-24.34
-24.74
-23.29
-20.22
-16.02
-11.29
-6.63
-2.51
0.75
3.08
4.57
5.51
6.19
6.87
7.64
8.47
9.23
9.80
10.15
10.35
10.55
10.91
11.53
12.41
13.43
14.37
14.92
14.78
13.74
11.72
8.81
5.24
1.35
-2.42
-5.54
-7.52
-8.02
-6.96
-4.64
-1.68
1.14
3.14
3.92
3.44
1.96
-0.11
-2.38
-4.53
-6.29
-7.45
-7.79
-7.19
-5.68
-3.43
-0.77
1.98
4.55
6.77
8.60
10.02
11.05
11.72
12.02
12.02
11.79
11.38
10.83
10.18
9.49
8.83
8.28
7.91
7.71
7.63
7.57
7.38
6.93
6.16
5.06
3.79
2.53
1.50
0.79
0.36
0.00
-0.51
-1.39
-2.74
-4.60
-6.93
-9.65
-12.59
-15.41
-17.58
-18.55
-17.89
-15.50
-11.72
-7.17
-2.53
1.67
5.16
7.88
9.86
11.10
11.59
11.33
10.46
9.17
7.69
6.21
4.86
3.74
2.91
2.40
2.18
2.14
2.14
2.07
1.91
1.68
1.43
1.14
0.73
0.09
-0.87
-2.19
-3.82
-5.62
-7.48
-9.29
-11.09
-12.99
-15.22
-17.97
-21.27
-24.89
-28.30
-30.82
-31.78
-30.76
-27.72
-22.94
-17.00
-10.56
-4.31
1.20
5.54
8.58
10.37
11.21
11.47
11.51
11.54
11.66
11.83
11.99
12.09
12.16
12.27
12.50
12.94
13.59
14.38
15.19
15.80
16.03
15.72
14.81
13.35
11.47
9.33
7.08
4.79
2.47
0.03
-2.60
-5.48
-8.61
-11.97
-15.52
-19.23
-23.01
-26.57
-29.44
-30.97
-30.50
-27.68
-22.68
-16.19
-9.32
-3.23
1.26
3.92
5.13
5.63
6.17
7.14
8.53
9.96
11.06
11.60
11.72
11.75
12.05
12.76
13.82
14.99
16.02
16.79
17.24
17.43
17.40
17.15
16.63
15.80
14.65
13.20
11.44
9.39
7.05
4.45
1.65
-1.28
-4.25
-7.24
-10.25
-13.38
-16.64
-19.96
-23.06
-25.50
-26.81
-26.63
-24.86
-21.71
-17.64
-13.19
-8.82
-4.80
-1.18
2.07
4.99
7.51
9.49
10.78
11.43
11.60
11.59
11.70
12.08
12.73
13.50
14.29
15.04
15.83
16.67
17.54
18.27
18.68
18.71
18.40
17.90
17.28
16.46
15.18
13.18
10.35
6.82
3.01
-0.59
-3.58
-5.82
-7.45
-8.78
-10.24
-12.17
-14.77
-18.03
-21.62
-25.08
-27.79
-29.18
-28.89
-26.87
-23.39
-18.99
-14.32
-10.02
-6.51
-3.92
-2.08
-0.70
0.49
1.55
2.31
2.56
2.14
1.19
0.08
-0.75
-1.05
-0.87
-0.51
-0.34
-0.62
-1.38
-2.42
-3.50
-4.43
-5.22
-5.95
-6.73
-7.60
-8.52
-9.42
-10.23
-10.88
-11.18
-10.80
-9.36
-6.62
-2.72
1.80
6.07
9.20
10.61
10.21
8.38
5.80
3.18
1.06
-0.14
-0.13
1.32
4.29
8.63
13.90
19.40
24.35
28.09
30.28
30.92
30.26
28.77
26.91
25.01
23.31
21.86
20.59
19.39
18.20
17.01
15.91
15.03
14.42
14.00
13.56
12.83
11.61
9.90
7.88
5.88
4.19
2.91
1.87
0.74
-0.84
-3.08
-5.90
-8.97
-11.88
-14.31
-16.20
-17.76
-19.36
-21.37
-23.98
-27.19
-30.85
-34.66
-38.36
-41.61
-44.10
-45.48
-45.53
-44.16
-41.57
-38.29
-35.04
-32.65
-31.75
-32.64
-35.24
-39.10
-43.61
-48.20
-52.43
-56.16
-59.44
-62.42
-65.20
-67.70
-69.72
-70.96
-71.15
-70.08
-67.58
-63.49
-57.63
-49.89
-40.36
-29.38
-17.66
-6.09
4.45
13.27
20.01
24.57
27.03
27.46
26.03
23.01
19.04
15.00
11.88
10.32
10.29
11.09
11.76
11.73
11.21
11.14
12.56
15.75
19.89
23.25
24.22
22.34
18.85
16.34
17.65
24.53
36.93
53.03
70.27
86.40
100.51
113.27
126.57
142.87
164.47
192.98
228.88
271.12
316.89
361.80
400.66
428.92
443.93
445.61
436.15
418.73
396.11
369.78
340.06
307.02
271.35
234.69
199.18
166.41
136.63
108.48
79.28
45.65
4.45
-45.99
-104.55
-166.46
-223.41
-265.13
-282.37
-270.20
-230.34
-171.44
-106.83
-50.78
-14.71
-4.92
-22.12
-62.50
-119.13
-183.31
-245.41
-296.01
-327.37
-335.30
-320.54
-288.77
-249.11
-211.34
-182.91
-167.14
-162.95
-166.21
-171.45
-173.62
-169.29
-157.22
-138.52
-116.17
-94.10
-75.62
-62.31
-53.38
-46.26
-38.11
-27.39
-14.65
-2.14
7.27
11.37
9.24
1.24
-11.38
-26.72
-42.31
-55.31
-63.10
-64.46
-60.35
-53.89
-49.12
-49.07
-54.30
-62.63
-70.32
-73.81
-71.26
-62.91
-50.46
-36.00
-21.09
-6.52
7.55
21.25
34.66
47.79
60.50
72.47
83.23
92.20
98.88
102.91
104.02
102.03
96.76
88.15
76.47
62.34
46.75
30.75
15.20
0.59
-12.84
-24.92
-35.34
-43.68
-49.62
-53.21
-55.15
-56.69
-59.30
-64.01
-70.95
-79.02
-86.26
-90.50
-90.23
-85.26
-76.83
-67.10
-58.26
-51.60
-47.18
-44.05
-40.92
-36.93
-32.02
-26.77
-21.94
-17.91
-14.50
-11.17
-7.43
-3.24
1.06
4.92
8.07
10.58
12.89
15.51
18.69
22.37
26.15
29.51
31.96
33.21
33.20
32.10
30.27
28.06
25.77
23.50
21.22
18.80
16.12
13.15
9.97
6.66
3.34
0.16
-2.67
-4.91
-6.31
-6.71
-6.15
-4.76
-2.73
-0.27
2.50
5.39
8.17
10.54
12.21
13.02
12.97
12.30
11.35
10.51
10.07
10.26
11.10
12.49
14.25
16.12
17.91
19.45
20.71
21.66
22.28
22.50
22.20
21.31
19.86
18.04
16.09
14.21
12.46
10.71
8.77
6.38
3.41
-0.15
-4.11
-8.16
-11.92
-14.99
-17.09
-18.07
-17.90
-16.64
-14.49
-11.67
-8.43
-5.08
-1.89
0.94
3.32
5.23
6.72
7.82
8.51
8.76
8.61
8.17
7.60
7.09
6.75
6.64
6.73
6.99
7.31
7.60
7.72
7.47
6.74
5.50
3.86
2.05
0.33
-1.15
-2.39
-3.54
-4.79
-6.33
-8.21
-10.47
-13.01
-15.67
-18.24
-20.43
-21.86
-22.24
-21.43
-19.54
-16.89
-13.88
-10.82
-7.86
-4.98
-2.09
0.84
3.70
6.27
8.29
9.63
10.32
10.54
10.49
10.37
10.27
10.23
10.25
10.38
10.66
11.10
11.62
12.05
12.13
11.65
10.48
8.61
6.19
3.48
0.79
-1.59
-3.51
-5.02
-6.35
-7.85
-9.81
-12.39
-15.42
-18.50
-21.06
-22.58
-22.73
-21.41
-18.82
-15.30
-11.30
-7.22
-3.35
0.20
3.41
6.35
8.99
11.26
12.98
14.04
14.37
14.08
13.41
12.66
12.07
11.79
11.79
11.91
11.94
11.71
11.12
10.21
9.07
7.84
6.61
5.44
4.31
3.16
1.96
0.69
-0.63
-1.94
-3.22
-4.49
-5.92
-7.67
-9.88
-12.57
-15.52
-18.35
-20.57
-21.76
-21.66
-20.18
-17.44
-13.72
-9.40
-4.86
-0.44
3.65
7.33
10.58
13.32
15.44
16.81
17.40
17.33
16.87
16.38
16.12
16.19
16.52
16.92
17.22
17.34
17.30
17.16
16.96
16.72
16.34
15.68
14.59
12.99
10.90
8.47
5.89
3.39
1.08
-1.06
-3.12
-5.25
-7.62
-10.31
-13.33
-16.62
-20.05
-23.49
-26.78
-29.75
-32.22
-33.92
-34.57
-33.91
-31.86
-28.50
-24.16
-19.31
-14.40
-9.77
-5.54
-1.73
1.73
4.79
7.33
9.23
10.45
11.14
11.60
12.25
13.39
15.13
17.35
19.80
22.23
24.45
26.39
28.02
29.34
30.37
31.14
31.75
32.24
32.60
32.70
32.35
31.33
29.55
27.11
24.23
21.11
17.82
14.27
10.27
5.70
0.59
-4.82
-10.11
-14.80
-18.42
-20.60
-21.16
-20.11
-17.75
-14.52
-10.98
-7.58
-4.62
-2.19
-0.23
1.35
2.59
3.45
3.89
3.85
3.35
2.45
1.32
0.15
-0.81
-1.33
-1.31
-0.86
-0.25
0.18
0.08
-0.72
-2.21
-4.25
-6.67
-9.37
-12.35
-15.63
-19.28
-23.32
-27.79
-32.64
-37.89
-43.53
-49.59
-56.11
-63.06
-70.38
-77.95
-85.60
-93.18
-100.52
-107.45
-113.80
-119.36
-123.90
-127.17
-128.89
-128.81
-126.83
-123.01
-117.67
-111.30
-104.46
-97.62
-91.01
-84.60
-78.10
-71.12
-63.21
-53.92
-42.78
-29.38
-13.56
4.46
23.91
43.55
62.02
78.26
91.79
102.79
111.79
119.28
125.34
129.72
132.01
132.09
130.21
126.94
122.81
118.08
112.64
106.24
98.79
90.57
82.19
74.38
67.63
62.09
57.48
53.30
49.15
44.82
40.46
36.48
33.37
31.50
31.01
31.76
33.43
35.70
38.38
41.46
44.98
49.02
53.50
58.20
62.73
66.71
69.85
72.10
73.60
74.63
75.39
75.93
76.11
75.68
74.43
72.28
69.30
65.66
61.53
57.01
52.19
47.12
41.89
36.54
31.09
25.41
19.34
12.70
5.39
-2.52
-10.87
-19.40
-27.86
-36.05
-43.88
-51.39
-58.62
-65.56
-72.01
-77.63
-81.92
-84.47
-85.01
-83.58
-80.48
-76.20
-71.20
-65.88
-60.45
-54.99
-49.48
-43.92
-38.30
-32.63
-26.96
-21.29
-15.58
-9.80
-3.87
2.23
8.50
14.84
21.12
27.14
32.68
37.55
41.58
44.68
46.81
47.92
48.00
47.00
44.90
41.79
37.89
33.56
29.13
24.85
20.80
16.89
12.96
8.80
4.34
-0.49
-5.60
-10.88
-16.12
-21.02
-25.27
-28.55
-30.59
-31.18
-30.19
-27.69
-23.84
-19.09
-13.97
-9.08
-4.93
-1.80
0.26
1.34
1.65
1.44
0.99
0.61
0.58
1.05
2.03
3.36
4.77
6.01
6.96
7.59
8.01
8.35
8.69
9.00
9.17
9.06
8.50
7.45
5.90
3.95
1.72
-0.72
-3.40
-6.40
-9.83
-13.74
-18.05
-22.55
-26.91
-30.71
-33.55
-35.12
-35.16
-33.65
-30.67
-26.51
-21.59
-16.43
-11.56
-7.49
-4.54
-2.83
-2.24
-2.46
-3.10
-3.79
-4.34
-4.70
-4.95
-5.20
-5.48
-5.72
-5.79
-5.60
-5.13
-4.46
-3.72
-3.01
-2.44
-2.02
-1.80
-1.78
-1.95
-2.28
-2.66
-2.97
-3.13
-3.14
-3.07
-3.03
-3.17
-3.58
-4.30
-5.28
-6.42
-7.62
-8.71
-9.61
-10.21
-10.37
-9.89
-8.54
-6.19
-2.86
1.22
5.61
9.87
13.59
16.58
18.84
20.46
21.57
22.24
22.48
22.33
21.81
21.04
20.16
19.33
18.65
18.11
17.64
17.05
16.19
15.01
13.54
11.95
10.44
9.16
8.18
7.40
6.61
5.57
4.09
2.12
-0.23
-2.76
-5.27
-7.62
-9.80
-11.91
-14.03
-16.20
-18.37
-20.46
-22.32
-23.81
-24.73
-24.83
-23.79
-21.33
-17.35
-12.04
-5.87
0.40
6.02
10.42
13.36
14.99
15.68
15.89
15.87
15.67
15.12
14.10
12.59
10.87
9.34
8.35
8.07
8.38
8.98
9.55
9.90
10.02
9.98
9.83
9.48
8.75
7.46
5.62
3.44
1.28
-0.48
-1.68
-2.39
-2.88
-3.51
-4.51
-5.93
-7.62
-9.32
-10.85
-12.18
-13.40
-14.63
-15.89
-16.96
-17.50
-17.16
-15.72
-13.23
-9.95
-6.33
-2.76
0.45
3.16
5.32
7.00
8.25
9.15
9.74
10.06
10.16
10.11
10.00
9.96
10.10
10.46
11.00
11.65
12.33
13.01
13.66
14.22
14.57
14.57
14.07
13.08
11.69
10.11
8.59
7.25
6.08
4.87
3.41
1.53
-0.70
-3.06
-5.25
-7.03
-8.39
-9.58
-10.97
-12.85
-15.27
-17.96
-20.39
-22.00
-22.36
-21.28
-18.84
-15.36
-11.22
-6.80
-2.42
1.66
5.25
8.19
10.31
11.54
11.93
11.65
10.94
10.05
9.13
8.29
7.56
7.02
6.81
7.00
7.56
8.31
8.97
9.26
9.03
8.31
7.21
5.87
4.38
2.66
0.66
-1.66
-4.23
-6.86
-9.31
-11.42
-13.14
-14.55
-15.76
-16.93
-18.14
-19.48
-20.97
-22.62
-24.38
-26.04
-27.29
-27.77
-27.16
-25.34
-22.36
-18.44
-13.92
-9.16
-4.49
-0.19
3.50
6.38
8.39
9.54
9.98
9.91
9.56
9.11
8.77
8.70
9.06
9.88
11.05
12.32
13.39
13.97
13.97
13.43
12.53
11.38
10.00
8.33
6.29
3.84
1.09
-1.77
-4.56
-7.17
-9.55
-11.73
-13.76
-15.75
-17.85
-20.18
-22.83
-25.77
-28.81
-31.66
-33.93
-35.25
-35.27
-33.84
-30.96
-26.84
-21.82
-16.32
-10.77
-5.51
-0.74
3.41
6.88
9.56
11.25
11.73
10.94
9.05
6.58
4.23
2.66
2.22
2.81
4.01
5.28
6.23
6.76
6.97
7.03
6.98
6.73
6.12
5.02
3.42
1.46
-0.66
-2.73
-4.59
-6.18
-7.55
-8.89
-10.45
-12.44
-14.96
-17.91
-21.04
-23.97
-26.28
-27.64
-27.78
-26.54
-23.93
-20.13
-15.53
-10.63
-5.95
-1.94
1.13
3.19
4.32
4.68
4.44
3.74
2.63
1.11
-0.83
-3.18
-5.86
-8.69
-11.53
-14.21
-16.71
-19.04
-21.25
-23.34
-25.19
-26.61
-27.37
-27.22
-25.97
-23.54
-19.94
-15.33
-9.99
-4.39
0.93
5.44
8.73
10.64
11.27
10.95
10.14
9.23
8.54
8.24
8.43
9.10
10.29
11.97
14.12
16.67
19.53
22.52
25.48
28.24
30.64
32.56
33.95
34.79
35.02
34.57
33.41
31.66
29.64
27.80
26.62
26.35
26.90
27.89
28.76
29.02
28.34
26.70
24.29
21.47
18.57
15.88
13.50
11.35
9.20
6.77
3.90
0.59
-2.96
-6.48
-9.71
-12.50
-14.85
-16.90
-18.83
-20.75
-22.70
-24.47
-25.70
-25.91
-24.68
-21.84
-17.55
-12.29
-6.65
-1.20
3.65
7.73
10.98
13.41
15.03
15.86
15.96
15.52
14.80
14.10
13.65
13.50
13.63
13.90
14.20
14.47
14.70
14.89
15.00
14.94
14.61
13.94
12.95
11.67
10.13
8.38
6.44
4.40
2.39
0.51
-1.17
-2.72
-4.32
-6.16
-8.41
-11.11
-14.18
-17.47
-20.76
-23.74
-26.06
-27.29
-27.06
-25.17
-21.68
-16.91
-11.38
-5.64
-0.20
4.55
8.38
11.15
12.90
13.74
13.96
13.82
13.59
13.42
13.33
13.28
13.24
13.21
13.20
13.19
13.09
12.78
12.17
11.23
10.05
8.74
7.41
6.04
4.59
3.01
1.35
-0.30
-1.78
-3.04
-4.11
-5.17
-6.41
-7.96
-9.80
-11.73
-13.45
-14.63
-14.95
-14.23
-12.41
-9.65
-6.24
-2.60
0.87
3.84
6.20
7.96
9.18
9.94
10.26
10.10
9.48
8.51
7.38
6.35
5.59
5.18
5.03
4.99
4.88
4.63
4.21
3.66
3.00
2.20
1.16
-0.22
-2.02
-4.20
-6.59
-8.91
-10.96
-12.59
-13.81
-14.76
-15.63
-16.60
-17.74
-19.03
-20.24
-21.08
-21.18
-20.22
-18.04
-14.71
-10.53
-5.91
-1.30
2.99
6.76
9.94
12.48
14.33
15.49
16.00
16.02
15.76
15.41
15.08
14.76
14.41
13.96
13.44
12.90
12.40
11.95
11.47
10.87
10.05
8.98
7.71
6.27
4.69
2.96
1.02
-1.11
-3.36
-5.59
-7.63
-9.41
-10.94
-12.34
-13.74
-15.21
-16.74
-18.28
-19.75
-21.08
-22.16
-22.81
-22.82
-22.01
-20.34
-17.95
-15.14
-12.25
-9.59
-7.32
-5.49
-4.07
-2.98
-2.14
-1.45
-0.83
-0.23
0.41
1.06
1.76
2.56
3.52
4.71
6.19
7.98
10.03
12.28
14.55
16.64
18.29
19.31
19.61
19.26
18.43
17.29
15.94
14.41
12.69
10.78
8.75
6.69
4.69
2.82
1.07
-0.57
-2.11
-3.59
-5.09
-6.65
-8.32
-10.04
-11.64
-12.82
-13.22
-12.53
-10.64
-7.67
-4.02
-0.23
3.14
5.70
7.26
7.89
7.78
7.19
6.37
5.49
4.68
4.00
3.47
3.07
2.80
2.68
2.72
2.95
3.35
3.83
4.24
4.45
4.37
4.06
3.60
3.14
2.72
2.38
2.05
1.69
1.28
0.79
0.24
-0.39
-1.14
-2.01
-3.00
-4.01
-4.93
-5.68
-6.26
-6.72
-7.11
-7.39
-7.42
-7.01
-5.92
-4.02
-1.28
2.21
6.29
10.70
15.14
19.24
22.64
25.05
26.34
26.51
25.71
24.16
22.08
19.64
16.98
14.26
11.61
9.13
6.83
4.57
2.14
-0.64
-3.81
-7.24
-10.72
-13.98
-16.89
-19.42
-21.70
-23.87
-26.03
-28.20
-30.32
-32.28
-33.98
-35.34
-36.32
-36.93
-37.22
-37.22
-36.95
-36.40
-35.62
-34.65
-33.59
-32.52
-31.48
-30.36
-28.93
-26.93
-24.11
-20.35
-15.71
-10.37
-4.62
1.27
6.99
12.29
16.95
20.84
23.85
26.00
27.40
28.21
28.58
28.65
28.52
28.28
28.06
28.01
28.22
28.69
29.28
29.70
29.69
29.05
27.76
25.93
23.71
21.20
18.43
15.43
12.21
8.91
5.68
2.63
-0.23
-2.95
-5.68
-8.47
-11.34
-14.17
-16.87
-19.39
-21.76
-24.09
-26.51
-29.00
-31.43
-33.47
-34.70
-34.82
-33.64
-31.25
-27.91
-24.00
-19.87
-15.81
-12.04
-8.74
-6.08
-4.13
-2.89
-2.19
-1.78
-1.42
-1.01
-0.55
-0.14
0.15
0.35
0.58
0.94
1.49
2.14
2.78
3.26
3.48
3.38
2.94
2.18
1.19
0.08
-1.04
-2.13
-3.22
-4.40
-5.74
-7.18
-8.60
-9.84
-10.82
-11.59
-12.37
-13.40
-14.84
-16.65
-18.57
-20.15
-20.92
-20.53
-18.84
-16.02
-12.41
-8.40
-4.34
-0.48
3.04
6.12
8.62
10.48
11.67
12.28
12.51
12.60
12.69
12.83
12.97
13.03
12.99
12.90
12.90
13.09
13.48
13.94
14.25
14.17
13.57
12.43
10.91
9.24
7.58
5.99
4.42
2.77
0.99
-0.88
-2.72
-4.41
-5.92
-7.29
-8.68
-10.19
-11.84
-13.52
-15.03
-16.16
-16.72
-16.65
-15.96
-14.69
-12.91
-10.64
-7.91
-4.76
-1.39
1.92
4.77
6.82
7.90
8.09
7.66
6.97
6.39
6.15
6.36
6.97
7.80
8.69
9.45
10.02
10.44
10.82
11.23
11.64
11.90
11.83
11.32
10.41
9.24
8.00
6.76
5.51
4.15
2.60
0.90
-0.89
-2.67
-4.42
-6.18
-8.01
-9.89
-11.71
-13.25
-14.24
-14.46
-13.75
-12.08
-9.55
-6.39
-2.98
0.31
3.10
5.16
6.41
6.96
6.99
6.68
6.18
5.61
5.04
4.58
4.34
4.41
4.76
5.30
5.86
6.31
6.59
6.69
6.67
6.60
6.45
6.18
5.72
5.02
4.08
2.96
1.70
0.35
-1.09
-2.64
-4.34
-6.19
-8.21
-10.32
-12.43
-14.31
-15.73
-16.44
-16.24
-15.02
-12.81
-9.74
-6.04
-2.01
2.06
5.85
9.09
11.59
13.30
14.31
14.79
14.96
14.98
14.87
14.61
14.18
13.63
13.07
12.63
12.34
12.13
11.85
11.38
10.63
9.60
8.36
6.95
5.36
3.59
1.66
-0.41
-2.56
-4.76
-7.04
-9.47
-12.06
-14.78
-17.40
-19.60
-21.03
-21.37
-20.45
-18.25
-14.89
-10.64
-5.83
-0.92
3.69
7.59
10.61
12.70
13.95
14.52
14.49
13.97
13.02
11.76
10.33
8.96
7.79
6.91
6.28
5.81
5.42
5.07
4.77
4.50
4.20
3.72
2.86
1.53
-0.19
-2.08
-3.79
-5.06
-5.83
-6.24
-6.60
-7.19
-8.06
-9.08
-9.92
-10.23
-9.77
-8.46
-6.36
-3.61
-0.40
3.08
6.63
9.95
12.75
14.78
15.90
16.14
15.71
14.90
14.00
13.27
12.83
12.74
12.93
13.32
13.75
14.10
14.31
14.32
14.13
13.71
13.03
12.06
10.81
9.32
7.70
6.08
4.50
2.99
1.50
-0.01
-1.59
-3.29
-5.11
-7.02
-8.88
-10.43
-11.37
-11.41
-10.39
-8.33
-5.46
-2.07
1.48
4.85
7.79
10.14
11.85
12.91
13.38
13.28
12.63
11.50
9.99
8.28
6.58
5.07
3.86
2.96
2.36
2.02
1.87
1.80
1.63
1.16
0.29
-0.92
-2.23
-3.38
-4.16
-4.52
-4.61
-4.63
-4.76
-5.17
-5.87
-6.84
-7.97
-9.08
-9.93
-10.25
-9.75
-8.34
-6.06
-3.18
-0.11
2.69
4.88
6.23
6.78
6.66
6.08
5.24
4.28
3.29
2.31
1.38
0.54
-0.22
-0.93
-1.62
-2.30
-2.96
-3.55
-4.11
-4.72
-5.47
-6.44
-7.61
-8.90
-10.14
-11.23
-12.13
-12.93
-13.82
-14.93
-16.34
-17.95
-19.58
-20.92
-21.74
-21.81
-21.04
-19.42
-17.03
-14.10
-10.89
-7.69
-4.78
-2.34
-0.45
0.88
1.68
1.93
1.65
0.89
-0.23
-1.55
-2.85
-3.98
-4.86
-5.44
-5.74
-5.74
-5.46
-4.91
-4.20
-3.47
-2.86
-2.48
-2.39
-2.53
-2.83
-3.22
-3.65
-4.13
-4.65
-5.18
-5.68
-6.09
-6.44
-6.74
-7.02
-7.22
-7.15
-6.49
-4.96
-2.39
1.13
5.23
9.42
13.20
16.27
18.51
20.01
20.88
21.18
20.93
20.14
18.87
17.27
15.55
13.90
12.46
11.24
10.21
9.30
8.49
7.71
6.93
6.07
5.04
3.77
2.27
0.59
-1.14
-2.76
-4.22
-5.51
-6.73
-8.02
-9.49
-11.18
-13.06
-15.03
-16.95
-18.64
-19.89
-20.47
-20.17
-18.89
-16.69
-13.77
-10.49
-7.22
-4.26
-1.78
0.20
1.76
2.96
3.83
4.35
4.42
4.05
3.30
2.35
1.44
0.79
0.50
0.57
0.87
1.24
1.60
1.88
2.08
2.21
2.23
2.06
1.66
0.98
0.03
-1.18
-2.54
-3.98
-5.39
-6.69
-7.87
-8.92
-9.93
-10.97
-12.08
-13.28
-14.54
-15.79
-16.91
-17.72
-17.96
-17.42
-15.90
-13.40
-10.13
-6.46
-2.79
0.51
3.22
5.23
6.60
7.41
7.79
7.89
7.85
7.79
7.78
7.78
7.70
7.46
7.02
6.47
5.96
5.62
5.55
5.67
5.83
5.82
5.46
4.63
3.41
1.96
0.48
-0.93
-2.20
-3.38
-4.52
-5.64
-6.72
-7.66
-8.45
-9.10
-9.73
-10.48
-11.46
-12.69
-14.08
-15.51
-16.82
-17.83
-18.30
-17.99
-16.71
-14.37
-11.09
-7.25
-3.28
0.38
3.45
5.81
7.48
8.57
9.13
9.23
8.91
8.29
7.54
6.88
6.50
6.51
6.92
7.63
8.44
9.16
9.63
9.74
9.49
8.93
8.14
7.25
6.36
5.54
4.81
4.17
3.57
2.93
2.18
1.27
0.16
-1.14
-2.55
-3.97
-5.30
-6.52
-7.71
-8.98
-10.50
-12.29
-14.27
-16.24
-17.92
-19.03
-19.34
-18.72
-17.13
-14.64
-11.46
-7.86
-4.18
-0.69
2.38
4.92
6.91
8.38
9.33
9.84
10.01
9.99
9.96
10.07
10.40
10.95
11.68
12.49
13.31
14.04
14.62
15.02
15.16
15.02
14.56
13.76
12.65
11.30
9.81
8.30
6.86
5.52
4.23
2.88
1.39
-0.26
-2.01
-3.73
-5.31
-6.70
-7.98
-9.29
-10.79
-12.60
-14.70
-16.98
-19.21
-21.05
-22.15
-22.14
-20.79
-18.04
-14.16
-9.58
-4.89
-0.55
3.15
6.10
8.36
9.97
10.99
11.48
11.57
11.46
11.36
11.41
11.63
11.93
12.23
12.51
12.86
13.38
14.06
14.80
15.36
15.48
15.02
14.00
12.57
10.99
9.44
8.01
6.64
5.21
3.61
1.82
-0.06
-1.90
-3.57
-5.03
-6.36
-7.60
-8.83
-10.04
-11.25
-12.48
-13.70
-14.85
-15.71
-15.94
-15.16
-13.18
-10.08
-6.27
-2.28
1.34
4.24
6.32
7.67
8.43
8.76
8.78
8.58
8.27
8.01
7.93
8.17
8.75
9.63
10.64
11.54
12.14
12.33
12.13
11.69
11.15
10.64
10.14
9.56
8.75
7.60
6.08
4.24
2.15
-0.04
-2.26
-4.41
-6.42
-8.26
-9.97
-11.60
-13.28
-15.14
-17.20
-19.37
-21.46
-23.11
-23.94
-23.59
-21.86
-18.72
-14.36
-9.19
-3.68
1.63
6.34
10.16
13.00
14.93
16.13
16.81
17.20
17.47
17.73
18.02
18.38
18.84
19.39
20.02
20.70
21.38
22.04
22.68
23.36
24.10
24.88
25.60
26.14
26.39
26.38
26.19
25.95
25.79
25.72
25.75
25.85
26.04
26.30
26.57
26.73
26.59
26.04
25.04
23.76
22.52
21.73
21.76
22.80
24.83
27.50
30.31
32.65
34.10
34.46
33.73
32.00
29.24
25.25
19.74
12.56
3.92
-5.55
-14.79
-22.59
-27.87
-30.06
-29.32
-26.68
-23.82
-22.65
-24.61
-30.18
-38.65
-48.43
-57.67
-64.87
-69.29
-70.91
-70.10
-67.53
-63.88
-59.99
-56.66
-54.44
-53.44
-53.23
-53.14
-52.63
-51.62
-50.47
-49.69
-49.54
-49.79
-49.82
-49.07
-47.22
-44.36
-40.79
-36.74
-32.16
-26.86
-20.70
-13.82
-6.76
-0.23
5.09
8.82
11.01
12.01
12.23
11.96
11.28
10.13
8.54
6.75
5.16
4.22
4.16
4.96
6.29
7.71
8.93
9.87
10.77
12.02
13.98
16.90
20.78
25.52
30.93
36.85
43.20
49.86
56.64
63.19
69.06
73.76
76.94
78.45
78.35
76.79
73.94
69.98
65.18
59.95
54.84
50.44
47.20
45.24
44.35
44.10
43.94
43.47
42.47
40.94
39.05
37.10
35.37
34.10
33.36
33.03
32.79
32.26
31.04
28.85
25.59
21.39
16.66
12.04
8.31
6.21
6.20
8.27
11.88
16.07
19.73
21.97
22.25
20.51
17.02
12.20
6.48
0.25
-6.20
-12.61
-18.78
-24.65
-30.33
-36.08
-42.13
-48.52
-54.93
-60.70
-65.01
-67.18
-66.90
-64.28
-59.81
-54.14
-47.94
-41.71
-35.79
-30.33
-25.36
-20.90
-16.97
-13.61
-10.85
-8.62
-6.71
-4.75
-2.40
0.66
4.50
9.04
14.00
18.96
23.43
26.88
28.84
29.03
27.40
24.17
19.74
14.46
8.52
1.96
-5.31
-13.31
-21.92
-30.79
-39.43
-47.35
-54.14
-59.54
-63.50
-66.21
-68.00
-69.27
-70.32
-71.21
-71.76
-71.60
-70.35
-67.73
-63.82
-58.94
-53.67
-48.74
-44.94
-42.93
-42.96
-44.71
-47.18
-48.97
-48.77
-45.84
-40.33
-33.14
-25.53
-18.75
-13.81
-11.50
-12.56
-17.60
-26.92
-40.10
-56.00
-72.80
-88.49
-101.16
-109.23
-111.53
-107.45
-97.16
-81.79
-63.37
-44.30
-26.63
-11.28
2.15
15.04
28.94
44.81
62.58
81.15
98.85
113.87
124.68
130.41
131.06
127.50
121.31
114.13
107.24
100.97
94.76
87.58
78.56
67.58
55.25
42.50
29.95
17.49
4.38
-10.19
-26.42
-43.36
-59.12
-71.45
-78.64
-80.40
-78.19
-74.94
-74.14
-78.76
-90.04
-106.89
-125.88
-142.03
-150.18
-146.44
-129.23
-99.60
-60.76
-17.14
26.40
65.46
96.64
117.96
129.13
131.48
127.51
120.04
111.47
103.29
96.16
90.30
85.84
82.84
81.06
79.61
77.24
72.76
65.85
57.20
48.21
40.11
33.28
27.08
20.33
12.14
2.64
-6.99
-14.97
-19.81
-20.96
-19.04
-15.45
-11.70
-8.79
-6.90
-5.56
-4.09
-2.09
0.41
3.05
5.37
7.11
8.27
9.08
9.73
10.28
10.59
10.47
9.74
8.42
6.68
4.76
2.91
1.27
-0.22
-1.78
-3.69
-6.13
-8.90
-11.50
-13.28
-13.56
-11.95
-8.59
-4.29
-0.27
2.17
2.02
-1.18
-7.31
-15.38
-23.63
-30.23
-34.09
-35.34
-35.37
-36.28
-40.15
-48.52
-61.17
-76.23
-90.92
-102.72
-109.89
-111.56
-107.55
-98.21
-84.95
-69.08
-51.66
-33.47
-15.25
2.68
20.88
40.58
63.24
87.20
108.05
121.19
125.18
121.67
113.57
103.64
94.03
88.80
87.17
88.37
92.06
97.59
103.29
107.60
110.53
110.80
109.45
106.95
103.64
99.54
93.41
82.54
64.40
38.32
5.71
-30.47
-67.87
-103.96
-136.10
-156.48
-159.63
-146.92
-125.77
-103.57
-83.10
-63.83
-46.57
-27.93
-7.09
13.40
30.07
40.75
45.39
46.11
44.34
42.22
41.90
43.41
44.56
43.09
38.45
31.98
25.72
19.85
13.25
3.00
-16.05
-49.02
-97.77
-159.12
-225.40
-286.69
-333.66
-357.21
-350.96
-313.94
-250.77
-169.91
-81.47
4.56
81.93
137.64
163.15
161.48
144.36
124.14
108.92
101.73
101.76
105.87
109.96
112.52
113.63
113.28
110.48
104.13
93.77
79.98
64.89
49.29
35.28
23.95
14.12
2.73
-12.41
-30.31
-45.18
-50.79
-43.08
-21.18
10.43
46.76
81.64
110.26
130.22
140.88
141.95
133.30
116.15
92.98
67.31
42.25
19.97
1.03
-13.88
-24.76
-31.73
-34.25
-31.55
-23.11
-9.66
7.07
24.86
41.52
55.02
64.14
68.57
68.62
65.00
58.33
49.22
38.34
26.48
14.23
1.85
-10.99
-25.25
-42.27
-63.09
-87.52
-113.68
-138.23
-157.64
-169.24
-172.19
-167.53
-157.46
-144.37
-129.86
-114.49
-98.05
-80.31
-61.49
-42.41
-24.11
-7.21
8.34
23.15
37.71
51.71
63.73
71.72
74.18
71.29
65.38
60.30
59.66
64.94
74.38
83.38
86.08
77.55
55.47
20.97
-21.72
-66.36
-106.17
-135.26
-149.80
-148.76
-134.03
-109.81
-81.48
-54.04
-30.92
-13.48
-1.41
6.29
10.46
11.28
8.66
2.86
-4.87
-12.22
-16.53
-15.74
-9.24
2.19
16.93
33.28
49.76
64.95
76.95
83.40
82.22
72.82
57.08
39.18
24.29
16.42
16.54
21.82
26.33
22.88
5.29
-29.45
-79.84
-139.66
-199.26
-248.16
-278.04
-285.27
-271.52
-242.56
-205.72
-167.24
-130.92
-98.17
-69.15
-43.91
-22.74
-5.79
7.77
19.96
33.45
50.44
71.53
95.37
119.03
139.14
153.07
159.81
160.14
156.13
150.38
145.11
141.66
140.37
140.74
141.74
142.09
140.45
135.59
126.72
113.80
97.83
80.70
64.79
52.13
43.77
39.49
38.20
38.55
39.63
41.13
43.06
45.29
47.16
47.65
45.73
40.63
32.06
19.93
4.17
-15.44
-39.10
-66.77
-97.88
-131.22
-165.14
-197.87
-227.93
-254.39
-276.75
-294.60
-307.13
-312.93
-310.29
-298.00
-276.23
-246.96
-213.54
-179.73
-148.36
-120.78
-96.97
-76.33
-58.53
-43.78
-32.44
-24.36
-18.48
-12.85
-5.66
3.84
14.93
25.75
34.21
38.98
40.12
39.06
38.17
39.67
44.86
53.85
65.92
79.89
94.72
109.71
124.47
139.15
153.78
168.06
181.55
193.88
204.81
213.83
219.76
220.68
215.19
201.81
179.49
148.54
111.32
71.87
34.78
3.85
-18.76
-30.95
-33.28
-28.89
-22.13
-16.41
-13.07
-11.60
-10.32
-6.98
3.54
24.15
54.14
89.98
127.63
163.95
196.89
225.54
250.00
274.82
302.44
331.31
356.94
374.94
382.78
379.55
365.38
317.83
231.80
122.69
16.96
-65.92
-119.71
-147.14
-154.89
-150.65
-143.63
-134.87
-124.58
-114.05
-104.88
-96.87
-88.08
-76.78
-63.01
-45.24
-22.76
2.06
24.67
40.55
47.61
46.36
38.14
24.53
6.78
-12.75
-32.86
-53.85
-76.70
-101.88
-129.08
-158.15
-187.91
-216.56
-241.98
-263.69
-283.59
-305.38
-333.08
-369.33
-414.57
-463.81
-507.80
-536.46
-542.72
-524.93
-486.40
-433.65
-374.08
-315.33
-260.94
-210.80
-163.12
-115.40
-65.38
-10.78
49.78
123.51
202.98
272.19
317.71
337.10
336.92
325.24
308.08
288.25
266.71
242.92
219.27
201.57
191.58
188.79
190.16
192.23
192.32
189.41
179.59
165.09
149.54
135.28
125.39
118.41
113.04
108.39
103.54
96.62
87.06
74.98
61.09
45.95
31.00
18.03
7.94
0.26
-6.65
-13.60
-20.67
-27.44
-33.24
-38.20
-42.97
-48.57
-55.68
-64.15
-72.35
-78.20
-79.96
-76.79
-69.17
-58.51
-46.78
-35.89
-27.11
-20.73
-16.41
-13.45
-11.07
-8.79
-6.43
-4.13
-2.19
-0.88
-0.33
-0.62
-1.81
-3.86
-6.65
-9.84
-12.94
-15.44
-16.91
-17.16
-16.34
-14.92
-13.49
-12.58
-12.52
-13.33
-14.77
-16.49
-18.16
-19.61
-20.87
-22.01
-23.04
-23.73
-23.61
-22.10
-18.75
-13.47
-6.65
0.98
8.56
15.39
21.12
25.66
29.08
31.45
32.77
33.04
32.34
30.96
29.28
27.70
26.48
25.68
25.26
25.12
25.18
25.36
25.55
25.60
25.34
24.72
23.91
23.26
23.17
23.96
25.60
27.71
29.71
31.07
31.59
31.62
32.05
33.96
38.24
45.21
54.47
65.11
76.14
86.99
97.64
108.53
120.14
132.52
145.16
157.08
167.19
174.57
178.42
178.01
172.71
162.18
146.94
128.32
108.02
87.16
65.39
40.59
9.70
-29.71
-77.73
-131.23
-184.54
-231.24
-266.30
-287.64
-296.16
-294.60
-285.95
-272.32
-254.88
-234.52
-212.72
-191.71
-173.91
-160.77
-151.96
-145.33
-137.81
-126.64
-110.36
-89.08
-64.03
-36.99
-9.64
16.72
41.21
63.20
82.08
97.19
107.76
113.19
113.30
108.75
100.97
91.88
83.32
76.43
71.36
67.39
63.29
58.03
51.07
42.51
32.91
22.99
13.27
4.02
-4.71
-12.92
-20.48
-27.12
-32.47
-36.28
-38.51
-39.36
-39.16
-38.20
-36.56
-34.09
-30.46
-25.44
-19.03
-11.64
-4.05
2.77
7.88
10.67
10.88
8.64
4.41
-1.21
-7.61
-14.10
-20.09
-25.07
-28.75
-31.13
-32.38
-32.79
-32.54
-31.72
-30.33
-28.45
-26.33
-24.40
-23.10
-22.75
-23.37
-24.69
-26.23
-27.51
-28.23
-28.35
-28.14
-27.96
-28.18
-29.02
-30.41
-31.97
-33.06
-32.97
-31.12
-27.22
-21.50
-14.55
-7.29
-0.69
4.47
7.78
9.24
9.22
8.27
6.87
5.40
3.96
2.55
1.08
-0.50
-2.14
-3.76
-5.26
-6.59
-7.71
-8.63
-9.36
-10.01
-10.82
-12.10
-14.13
-17.03
-20.65
-24.55
-28.24
-31.27
-33.52
-35.15
-36.50
-37.91
-39.44
-40.82
-41.39
-40.37
-37.09
-31.31
-23.34
-13.92
-4.05
5.33
13.55
20.21
25.09
28.02
28.86
27.68
24.87
21.18
17.57
14.87
13.49
13.29
13.70
14.10
14.06
13.53
12.70
11.82
11.01
10.19
9.19
7.90
6.37
4.83
3.46
2.34
1.30
0.05
-1.72
-4.17
-7.31
-10.93
-14.69
-18.12
-20.67
-21.77
-20.99
-18.11
-13.23
-6.80
0.50
7.97
14.98
21.08
25.98
29.43
31.21
31.23
29.52
26.39
22.41
18.24
14.50
11.55
9.45
7.97
6.73
5.43
3.91
2.25
0.64
-0.76
-1.98
-3.25
-4.90
-7.22
-10.30
-13.98
-17.98
-21.99
-25.85
-29.56
-33.22
-36.92
-40.61
-44.06
-46.82
-48.22
-47.49
-43.89
-36.96
-26.76
-13.98
0.18
14.27
26.97
37.39
45.17
50.41
53.49
54.90
55.11
54.47
53.25
51.58
49.58
47.32
44.98
42.81
41.19
40.43
40.73
42.05
44.03
46.10
47.67
48.36
48.22
47.81
47.98
49.49
52.59
56.80
61.08
64.18
65.26
64.28
62.04
59.86
59.09
60.52
64.08
68.83
73.22
75.60
74.76
70.58
64.24
58.15
55.39
58.54
68.42
82.99
97.42
105.42
101.66
84.07
55.00
20.42
-12.41
-37.79
-53.60
-61.62
-66.33
-73.06
-86.06
-107.47
-136.97
-172.00
-208.24
-240.49
-263.73
-274.17
-270.09
-251.84
-221.58
-182.82
-140.25
-99.33
-65.71
-43.95
-36.00
-40.35
-52.30
-65.60
-74.78
-76.91
-72.02
-62.41
-51.27
-41.36
-34.51
-31.52
-32.40
-36.48
-42.64
-49.68
-56.79
-63.69
-70.50
-77.18
-83.06
-87.04
-88.30
-87.16
-85.37
-85.22
-88.12
-93.35
-97.94
-98.06
-90.95
-76.64
-57.90
-38.86
-22.93
-11.26
-2.78
4.56
12.06
19.34
24.75
26.74
25.23
22.01
19.90
21.23
26.56
34.62
43.22
50.65
56.55
61.84
67.84
75.16
83.20
90.46
95.28
96.81
95.30
91.94
88.14
84.98
82.86
81.60
80.66
79.58
78.18
76.56
75.09
74.14
73.98
74.61
75.73
76.82
77.29
76.66
74.61
71.12
66.40
60.74
54.47
47.80
40.89
33.86
26.90
20.36
14.74
10.54
8.11
7.48
8.37
10.18
12.37
14.59
16.82
19.21
21.89
24.68
27.10
28.51
28.50
27.11
24.82
22.32
20.23
18.81
17.98
17.51
17.15
16.79
16.39
15.97
15.53
15.08
14.76
14.77
15.30
16.36
17.73
18.98
19.64
19.39
18.13
16.01
13.26
10.13
6.81
3.50
0.48
-1.92
-3.32
-3.49
-2.45
-0.42
2.26
5.25
8.29
11.10
13.37
14.78
15.10
14.32
12.76
11.02
9.70
9.16
9.41
10.19
11.19
12.20
13.20
14.27
15.38
16.36
16.90
16.69
15.54
13.46
10.72
7.66
4.68
1.98
-0.46
-2.88
-5.66
-9.10
-13.16
-17.47
-21.30
-23.93
-24.87
-23.98
-21.52
-17.87
-13.47
-8.62
-3.55
1.53
6.38
10.75
14.45
17.40
19.63
21.25
22.47
23.53
24.60
25.77
27.02
28.25
29.37
30.39
31.40
32.58
34.06
35.86
37.87
39.99
42.10
44.12
46.04
47.86
49.65
51.44
53.29
55.26
57.42
59.76
62.19
64.42
65.88
65.83
63.54
58.45
50.61
40.69
29.83
19.02
8.56
-2.19
-14.38
-28.88
-45.47
-62.54
-77.52
-87.74
-91.28
-87.38
-76.31
-59.10
-37.64
-15.03
4.27
14.81
11.69
-7.73
-42.38
-87.50
-135.97
-180.48
-215.38
-237.52
-246.20
-242.23
-227.20
-203.25
-172.99
-139.56
-106.12
-75.23
-48.12
-24.55
-3.29
17.00
36.89
55.87
72.60
85.59
93.96
97.78
97.95
95.74
92.32
88.44
84.41
80.27
76.03
71.75
67.51
63.35
59.21
54.91
50.32
45.48
40.65
36.25
32.62
29.76
27.22
24.23
20.05
14.33
7.27
-0.40
-7.69
-13.73
-17.97
-20.31
-21.05
-20.77
-20.18
-19.92
-20.43
-21.81
-23.82
-25.97
-27.72
-28.58
-28.24
-26.57
-23.54
-19.27
-13.98
-8.07
-2.09
3.39
7.89
11.17
13.29
14.51
15.22
15.75
16.32
16.97
17.61
18.11
18.38
18.46
18.45
18.45
18.50
18.53
18.48
18.41
18.50
19.04
20.16
21.75
23.33
24.21
23.76
21.64
17.96
13.17
7.87
2.58
-2.41
-6.95
-10.98
-14.44
-17.26
-19.47
-21.27
-22.99
-25.07
-27.85
-31.40
-35.44
-39.30
-42.10
-42.99
-41.50
-37.69
-32.21
-26.02
-20.08
-14.99
-10.87
-7.43
-4.26
-1.08
2.11
5.09
7.56
9.30
10.30
10.70
10.75
10.71
10.83
11.28
12.15
13.44
15.05
16.82
18.56
20.04
21.08
21.57
21.41
20.61
19.21
17.31
15.02
12.38
9.40
6.06
2.36
-1.56
-5.45
-9.05
-12.19
-14.90
-17.44
-20.14
-23.25
-26.78
-30.54
-34.14
-37.18
-39.30
-40.21
-39.70
-37.65
-34.15
-29.49
-24.14
-18.66
-13.48
-8.84
-4.79
-1.27
1.76
4.31
6.33
7.81
8.78
9.32
9.45
9.23
8.70
7.98
7.22
6.59
6.18
5.89
5.46
4.57
2.89
0.25
-3.25
-7.25
-11.23
-14.70
-17.36
-19.25
-20.69
-22.11
-23.78
-25.73
-27.69
-29.29
-30.29
-30.69
-30.76
-30.88
-31.28
-31.96
-32.67
-32.99
-32.38
-30.30
-26.21
-19.74
-10.74
0.48
13.24
26.47
39.01
49.91
58.59
64.97
69.26
71.83
72.98
72.90
71.76
69.75
67.13
64.17
61.02
57.66
54.01
49.99
45.70
41.40
37.41
33.92
30.85
27.83
24.49
20.56
16.07
11.33
6.78
2.69
-0.85
-3.99
-7.03
-10.22
-13.68
-17.35
-21.07
-24.63
-27.86
-30.72
-33.34
-35.94
-38.65
-41.48
-44.12
-46.08
-46.82
-45.96
-43.43
-39.53
-34.76
-29.64
-24.56
-19.73
-15.19
-10.97
-7.16
-3.88
-1.30
0.50
1.57
2.10
2.34
2.48
2.66
2.88
3.10
3.25
3.27
3.17
2.97
2.72
2.50
2.38
2.37
2.40
2.31
1.91
1.09
-0.16
-1.74
-3.50
-5.33
-7.19
-9.07
-10.97
-12.88
-14.77
-16.61
-18.44
-20.34
-22.42
-24.68
-27.05
-29.28
-31.09
-32.11
-32.02
-30.64
-28.01
-24.36
-20.08
-15.56
-11.05
-6.62
-2.25
2.10
6.29
10.05
13.06
15.10
16.23
16.71
17.00
17.45
18.25
19.33
20.55
21.69
22.61
23.29
23.76
24.01
24.03
23.76
23.19
22.40
21.46
20.49
19.51
18.49
17.36
16.07
14.60
12.98
11.20
9.21
6.91
4.21
1.16
-2.08
-5.24
-8.08
-10.47
-12.48
-14.32
-16.26
-18.51
-21.05
-23.65
-25.83
-27.05
-26.84
-24.98
-21.64
-17.25
-12.34
-7.34
-2.49
2.17
6.61
10.69
14.13
16.63
18.03
18.46
18.35
18.24
18.56
19.48
20.86
22.39
23.74
24.73
25.36
25.73
25.97
26.07
25.97
25.57
24.78
23.63
22.19
20.56
18.82
16.97
14.94
12.64
10.01
7.02
3.83
0.70
-2.05
-4.12
-5.42
-6.09
-6.48
-6.94
-7.80
-9.15
-10.96
-13.11
-15.47
-17.89
-20.16
-22.04
-23.25
-23.61
-23.11
-21.91
-20.24
-18.30
-16.10
-13.50
-10.36
-6.68
-2.61
1.51
5.33
8.57
11.12
12.97
14.25
15.09
15.64
16.06
16.48
16.99
17.57
18.18
18.72
19.13
19.36
19.43
19.29
18.86
18.05
16.83
15.24
13.39
11.49
9.62
7.84
6.03
4.04
1.73
-0.98
-3.99
-7.11
-10.03
-12.45
-14.17
-15.21
-15.75
-16.05
-16.38
-16.93
-17.76
-18.87
-20.25
-21.88
-23.66
-25.39
-26.71
-27.20
-26.53
-24.55
-21.42
-17.47
-13.11
-8.69
-4.43
-0.44
3.22
6.49
9.28
11.47
12.99
13.84
14.08
13.89
13.47
12.98
12.56
12.22
11.91
11.56
11.15
10.70
10.29
10.03
10.00
10.21
10.60
11.06
11.45
11.70
11.80
11.74
11.55
11.21
10.64
9.77
8.57
7.11
5.49
3.78
1.93
-0.19
-2.69
-5.51
-8.40
-10.94
-12.83
-14.00
-14.68
-15.26
-16.13
-17.46
-19.16
-20.97
-22.60
-23.76
-24.27
-23.99
-22.80
-20.69
-17.73
-14.16
-10.33
-6.62
-3.33
-0.62
1.50
3.11
4.25
5.03
5.48
5.67
5.66
5.55
5.39
5.21
5.01
4.75
4.35
3.77
3.00
2.08
1.10
0.16
-0.67
-1.39
-2.17
-3.22
-4.76
-6.81
-9.14
-11.35
-13.05
-14.03
-14.50
-14.99
-16.18
-18.62
-22.41
-27.13
-31.96
-36.01
-38.75
-40.19
-40.94
-41.89
-43.87
-47.27
-51.96
-57.28
-62.17
-65.20
-64.49
-57.87
-43.52
-20.84
8.89
42.55
76.06
105.81
129.70
147.28
159.00
164.95
164.35
155.91
139.07
115.12
87.38
60.29
37.75
21.80
12.20
7.11
4.24
1.92
-0.50
-2.84
-4.68
-5.91
-7.02
-8.86
-12.24
-17.46
-24.16
-31.41
-38.10
-43.48
-47.40
-50.30
-52.83
-55.53
-58.46
-61.29
-63.39
-64.31
-63.91
-62.42
-60.25
-57.80
-55.25
-52.60
-49.77
-46.61
-43.01
-38.76
-33.65
-27.43
-19.98
-11.46
-2.39
6.52
14.57
21.37
26.83
31.10
34.25
36.12
36.43
34.92
31.62
26.94
21.50
15.92
10.61
5.73
1.29
-2.60
-5.73
-7.73
-8.24
-7.08
-4.28
-0.14
4.85
10.03
14.74
18.37
20.59
21.34
20.89
19.68
18.08
16.30
14.32
11.96
9.03
5.36
0.82
-4.64
-11.06
-18.36
-26.20
-34.02
-41.04
-46.49
-49.70
-50.35
-48.42
-44.18
-38.11
-30.81
-22.92
-15.10
-7.93
-1.82
3.01
6.60
9.21
11.20
12.90
14.47
15.92
17.11
17.91
18.33
18.54
18.80
19.36
20.28
21.47
22.75
23.94
25.02
26.00
26.92
27.73
28.19
27.98
26.79
24.37
20.71
15.98
10.46
4.55
-1.38
-7.03
-12.08
-16.32
-19.58
-21.85
-23.30
-24.33
-25.37
-26.77
-28.56
-30.42
-31.75
-31.91
-30.48
-27.45
-23.15
-18.17
-13.03
-8.09
-3.54
0.51
3.98
6.79
8.94
10.53
11.74
12.68
13.40
13.83
13.91
13.66
13.21
12.75
12.43
12.34
12.52
12.99
13.77
14.73
15.64
16.07
15.61
14.02
11.40
8.15
4.80
1.77
-0.72
-2.77
-4.56
-6.25
-7.81
-9.13
-10.07
-10.72
-11.43
-12.73
-15.09
-18.65
-23.14
-27.88
-32.03
-34.92
-36.21
-35.88
-34.20
-31.52
-28.09
-24.07
-19.51
-14.51
-9.32
-4.26
0.19
3.64
5.80
6.64
6.40
5.46
4.31
3.40
3.05
3.40
4.41
5.83
7.43
9.01
10.49
11.91
13.27
14.48
15.28
15.42
14.72
13.27
11.35
9.36
7.60
6.17
5.01
3.95
2.85
1.56
-0.04
-2.12
-4.85
-8.20
-11.86
-15.18
-17.36
-17.72
-16.00
-12.49
-7.86
-2.96
1.54
5.23
8.06
10.10
11.48
12.26
12.40
11.85
10.66
9.06
7.40
6.04
5.21
4.88
4.78
4.62
4.24
3.80
3.60
3.87
4.58
5.39
5.77
5.32
3.90
1.69
-0.96
-3.68
-6.20
-8.31
-9.89
-10.83
