1680692687.00
64.000000
-0.00
-0.00
-0.00
-0.00
-0.00
-0.00
-0.00
-0.00
-0.00
-0.00
0.00
0.01
0.01
-0.00
-0.03
-0.05
-0.05
0.00
0.13
0.36
0.66
1.01
1.37
1.72
2.06
2.40
2.79
3.24
3.80
4.42
5.06
5.66
6.20
6.68
7.15
7.68
8.31
9.14
10.09
11.04
11.88
12.56
13.14
13.76
14.65
15.96
17.91
20.32
22.90
25.38
27.58
29.57
31.67
34.32
37.81
42.54
48.15
54.10
59.83
64.97
69.59
74.15
79.36
85.73
93.79
103.04
112.68
121.81
129.86
136.87
143.45
150.92
157.97
166.87
178.21
192.08
207.29
220.93
228.64
225.80
209.01
177.39
133.33
80.67
23.74
-34.21
-91.64
-148.29
-204.28
-259.33
-312.60
-362.61
-408.45
-449.38
-484.82
-513.89
-535.18
-546.96
-547.47
-535.62
-511.19
-475.36
-430.25
-378.48
-322.68
-265.10
-207.47
-151.04
-96.85
-45.76
1.25
43.30
79.74
110.31
135.15
154.77
169.86
181.10
189.13
194.28
196.82
196.89
194.72
190.60
184.89
177.92
169.99
161.34
152.13
142.47
132.46
122.24
111.96
101.78
91.87
82.35
73.37
65.01
57.34
50.27
43.85
38.15
33.18
28.99
25.50
22.75
20.65
19.17
18.21
17.73
17.67
17.96
18.76
19.78
21.02
22.42
23.98
25.73
27.67
29.86
32.29
35.00
37.96
41.23
44.77
48.55
52.51
56.60
60.77
64.94
69.06
73.01
76.82
80.33
83.41
86.02
88.11
89.75
90.99
91.96
92.79
93.72
94.76
95.94
97.36
99.07
101.16
103.66
106.62
110.09
114.07
118.28
122.42
126.28
129.55
131.95
133.06
132.38
129.23
124.82
119.65
113.97
108.02
101.89
95.70
89.52
83.43
77.54
71.99
66.67
61.52
56.56
51.84
47.40
43.32
39.63
36.40
33.67
31.25
28.99
26.79
24.54
22.23
19.87
17.51
15.26
13.23
11.43
9.86
8.51
7.40
6.45
5.62
4.80
3.91
2.89
1.62
0.06
-1.82
-3.95
-6.28
-8.65
-10.92
-12.95
-14.58
-15.71
-16.28
-16.26
-15.72
-14.79
-13.60
-12.37
-11.25
-10.40
-9.88
-9.71
-9.89
-10.32
-10.93
-11.65
-12.40
-13.12
-13.72
-14.19
-14.46
-14.62
-14.73
-14.98
-15.56
-16.63
-18.34
-20.64
-23.40
-26.40
-29.42
-32.32
-35.08
-37.79
-40.54
-43.40
-46.27
-48.95
-51.09
-52.47
-53.03
-53.05
-52.99
-53.35
-54.48
-56.36
-58.77
-61.26
-63.59
-65.88
-68.72
-73.04
-79.72
-89.37
-101.89
-116.65
-132.73
-149.20
-165.56
-181.63
-197.77
-214.37
-232.34
-252.64
-276.21
-302.91
-330.76
-355.98
-373.81
-380.70
-375.21
-358.87
-335.23
-308.48
-282.14
-257.99
-236.41
-216.42
-197.04
-177.56
-157.98
-138.89
-120.60
-103.30
-86.62
-70.71
-56.09
-43.98
-35.59
-31.10
-29.64
-29.05
-27.67
-24.47
-20.03
-15.18
-10.64
-6.22
-1.17
4.76
11.49
17.76
22.84
26.21
28.16
29.28
29.83
30.35
30.95
32.43
34.92
38.40
42.22
45.37
47.38
47.71
46.75
44.55
41.69
38.47
35.41
32.95
30.99
29.39
27.46
25.16
22.48
20.21
18.94
19.24
21.22
24.24
27.82
30.60
31.81
30.63
27.06
21.95
16.47
12.21
9.75
9.48
10.65
12.57
14.74
17.07
20.05
23.67
27.73
30.91
32.16
30.58
26.39
20.62
14.50
9.29
5.41
3.25
2.40
2.59
3.49
5.12
7.65
10.61
13.43
14.86
14.72
13.53
12.59
13.17
15.48
19.23
23.25
26.99
29.65
30.83
30.23
27.75
23.87
18.90
13.52
7.79
2.21
-2.87
-6.84
-8.99
-8.91
-6.29
-1.69
4.28
10.31
15.53
19.36
21.55
22.13
20.84
17.96
13.70
9.38
6.20
5.00
5.92
8.05
10.66
12.75
14.17
14.50
13.69
11.75
8.86
5.77
2.91
0.84
-0.66
-1.64
-2.45
-3.07
-3.10
-1.94
1.28
6.54
13.35
19.68
23.62
23.71
19.96
13.84
7.08
1.46
-2.65
-5.06
-6.18
-6.06
-4.35
-0.79
4.78
11.25
17.33
21.15
22.02
20.22
16.75
12.83
8.87
5.09
1.37
-1.59
-3.31
-3.33
-1.87
0.55
3.43
6.18
8.86
10.94
12.28
12.29
10.45
6.60
0.95
-4.94
-9.41
-10.67
-8.41
-3.63
1.81
6.13
8.77
9.56
9.06
7.28
4.42
0.55
-3.82
-7.72
-9.97
-9.23
-5.28
1.42
8.80
14.86
17.94
17.74
15.17
11.25
7.26
3.43
0.35
-1.75
-2.27
-0.42
3.98
10.91
18.86
26.08
30.36
30.44
26.14
18.35
9.00
-0.26
-7.83
-13.24
-16.22
-17.20
-16.55
-14.73
-12.18
-9.07
-5.86
-2.42
0.89
4.12
7.05
9.42
11.31
12.77
14.42
15.64
15.46
12.02
4.63
-5.25
-14.32
-18.59
-16.52
-8.96
0.70
9.33
15.24
18.66
20.98
22.89
24.37
23.95
20.63
14.08
5.43
-3.50
-11.06
-16.04
-18.35
-17.83
-15.08
-10.67
-5.61
-0.51
4.53
9.28
13.75
16.61
16.69
12.91
5.83
-2.60
-9.67
-12.80
-11.28
-5.74
1.24
7.08
9.63
8.38
4.59
0.20
-2.49
-2.66
-0.68
1.59
2.03
-0.89
-7.25
-15.16
-21.97
-24.71
-21.78
-12.91
0.38
15.51
28.77
35.35
30.71
11.67
-20.35
-59.25
-94.39
-114.62
-112.07
-85.17
-39.89
13.24
61.80
96.51
112.41
109.94
93.51
69.22
43.75
22.04
7.37
0.31
-0.30
3.03
7.61
11.33
12.53
10.58
5.26
-2.46
-11.18
-18.72
-23.00
-22.61
-17.32
-8.77
0.89
8.63
12.80
12.80
9.65
5.46
2.16
1.34
2.64
5.31
7.67
8.69
8.30
7.19
6.67
7.22
8.96
10.53
10.65
8.29
3.69
-1.68
-6.13
-8.22
-7.97
-5.92
-3.49
-1.43
-0.16
0.59
1.22
1.72
2.37
2.77
3.13
3.38
3.75
4.20
4.42
4.39
3.64
2.46
0.75
-1.27
-3.35
-4.97
-5.29
-4.06
-1.17
2.11
4.54
4.79
2.51
-1.70
-6.64
-10.64
-12.58
-11.57
-8.10
-3.19
1.41
4.51
5.87
5.92
5.78
5.58
5.23
3.88
1.67
-0.56
-1.47
0.16
3.63
7.56
9.76
9.24
6.42
2.98
0.94
1.12
3.45
6.10
7.27
5.39
0.46
-6.04
-11.91
-15.05
-15.00
-12.24
-8.59
-5.40
-3.57
-2.73
-1.71
0.49
4.54
9.57
14.39
17.32
17.84
16.26
13.54
11.08
9.30
8.72
8.95
9.81
10.81
11.55
11.85
11.28
10.01
7.64
4.35
0.15
-4.37
-8.52
-11.76
-13.51
-13.90
-12.89
-11.17
-9.08
-7.31
-6.06
-5.11
-4.00
-1.98
0.78
3.99
6.42
7.52
7.17
6.00
5.10
4.76
5.00
4.69
3.40
1.12
-1.07
-1.88
-0.97
1.44
4.07
6.59
8.71
10.83
12.68
13.37
12.19
8.96
5.10
1.97
0.83
1.19
1.75
1.10
-1.10
-3.77
-5.71
-5.71
-4.41
-2.76
-1.94
-2.23
-3.17
-4.47
-5.66
-7.30
-9.07
-10.57
-10.59
-8.27
-3.70
2.18
7.32
10.64
11.59
11.17
10.59
10.70
11.62
12.60
13.28
13.16
12.46
10.84
7.99
3.51
-2.45
-8.81
-14.26
-17.14
-17.15
-14.50
-10.51
-6.30
-2.68
0.07
2.43
4.32
5.73
5.84
4.50
2.11
-0.04
-0.38
1.28
4.21
6.26
6.13
3.73
0.67
-0.71
0.96
5.66
11.12
14.80
14.52
10.31
3.84
-2.43
-6.50
-7.85
-6.64
-3.83
0.14
4.52
8.82
12.20
13.84
13.57
11.37
8.13
4.37
0.83
-2.42
-5.45
-7.90
-9.27
-8.23
-4.34
2.10
9.21
14.69
16.80
14.92
10.17
3.88
-2.50
-8.43
-13.35
-16.96
-18.87
-18.68
-16.49
-12.50
-7.50
-1.98
3.08
7.17
9.80
10.62
9.93
8.01
5.97
4.46
4.12
4.29
3.81
2.06
-0.74
-2.60
-1.95
1.76
6.66
9.88
9.05
3.63
-4.56
-13.02
-19.28
-22.67
-23.34
-22.39
-20.59
-18.05
-14.54
-9.58
-3.62
2.91
8.63
12.86
15.20
15.76
15.18
13.91
12.72
11.60
10.94
10.45
9.99
9.48
8.58
7.57
6.32
5.65
6.00
7.93
10.98
13.89
15.25
13.96
10.69
6.48
2.83
0.15
-1.74
-3.22
-4.20
-4.04
-3.01
-1.77
-2.21
-5.24
-10.58
-16.28
-19.86
-19.91
-16.23
-11.02
-6.43
-4.49
-5.39
-8.09
-10.84
-11.73
-10.11
-5.82
-0.06
5.83
10.21
12.17
11.80
9.71
7.20
4.72
2.73
1.08
0.07
-0.18
0.16
0.66
0.44
-0.55
-1.90
-2.18
-0.60
2.86
6.96
9.92
11.01
10.10
8.35
6.37
4.62
2.73
0.42
-1.75
-3.09
-2.39
0.47
5.03
9.66
12.81
13.60
11.90
8.67
4.38
-0.39
-5.78
-11.38
-16.52
-20.26
-21.70
-20.57
-16.73
-10.98
-4.05
2.70
8.38
12.52
15.01
16.10
15.31
12.64
7.92
2.40
-2.43
-5.14
-4.93
-2.50
1.03
3.94
5.63
6.01
6.08
6.94
8.94
11.96
14.96
17.35
18.29
17.52
14.65
9.72
3.38
-3.40
-9.32
-13.88
-16.68
-17.93
-17.51
-15.40
-11.86
-7.47
-3.40
-0.00
2.22
3.69
4.45
4.28
2.82
-0.32
-4.41
-8.57
-10.99
-10.87
-8.19
-3.78
1.17
6.10
10.28
13.37
14.39
13.17
10.19
6.74
4.12
2.78
2.71
3.31
4.56
6.05
7.39
7.61
5.97
2.46
-2.39
-6.98
-10.44
-11.85
-11.31
-9.19
-6.27
-3.37
-0.91
0.33
0.57
-0.01
-0.43
0.43
3.09
7.48
12.38
16.64
18.79
18.20
14.50
8.23
0.65
-6.53
-11.40
-13.24
-11.88
-8.72
-5.05
-2.11
-0.29
0.77
1.52
2.90
5.01
8.00
10.74
12.07
10.68
6.34
0.48
-5.02
-7.90
-7.82
-5.67
-3.35
-2.18
-2.24
-2.84
-2.60
-0.97
2.35
6.39
9.93
11.64
10.79
7.94
4.31
1.73
0.52
-0.06
-1.95
-6.38
-12.68
-18.61
-21.49
-20.33
-15.80
-10.42
-6.24
-4.15
-3.44
-2.52
-0.37
3.53
8.09
12.06
13.69
12.05
7.24
0.41
-6.02
-9.98
-9.88
-6.51
-1.95
1.49
2.97
3.59
4.73
7.16
9.46
9.94
7.61
3.52
0.06
-0.74
1.72
5.85
9.71
11.37
10.56
8.04
5.39
3.92
3.79
4.87
6.05
7.02
7.35
7.23
6.90
6.50
6.29
5.80
5.11
3.91
2.66
1.82
1.82
2.63
3.51
4.12
4.01
3.76
3.76
4.41
5.53
6.85
8.44
10.48
13.55
17.38
21.60
25.00
26.84
26.75
24.66
21.20
16.29
10.48
3.80
-3.14
-10.02
-16.47
-21.90
-25.86
-27.11
-25.20
-20.17
-13.49
-7.11
-2.73
-1.27
-2.31
-5.36
-9.45
-14.15
-18.71
-22.56
-24.97
-25.47
-24.08
-20.90
-16.64
-11.45
-5.98
-0.46
4.65
8.76
11.72
13.10
13.22
11.88
9.45
5.98
2.01
-1.55
-4.25
-5.41
-5.25
-3.80
-1.40
1.81
5.48
8.81
11.03
10.90
8.01
2.38
-4.65
-11.40
-16.06
-17.43
-15.40
-10.47
-4.25
1.93
6.38
8.48
8.25
6.40
3.97
1.37
-0.81
-2.81
-4.20
-5.07
-5.50
-5.59
-5.63
-5.11
-3.69
-0.64
3.69
8.33
11.52
11.52
7.83
0.97
-7.01
-14.10
-18.49
-19.86
-18.75
-16.19
-12.82
-8.64
-3.92
1.23
5.52
8.09
8.28
6.36
3.34
0.16
-2.00
-2.95
-2.23
-0.22
2.78
6.34
9.83
12.94
15.01
16.02
15.93
15.42
14.82
14.11
12.81
10.27
6.71
2.75
-0.10
-1.12
-0.06
2.13
4.22
5.33
4.82
3.32
1.24
-0.45
-1.59
-2.30
-2.80
-3.27
-3.04
-2.07
-0.36
0.91
0.75
-1.44
-5.46
-10.28
-14.88
-17.85
-18.36
-15.48
-9.67
-2.24
4.60
8.85
9.90
8.13
5.27
2.17
-0.48
-2.86
-5.11
-6.67
-7.21
-6.40
-5.23
-4.53
-5.10
-6.40
-7.10
-6.24
-3.41
0.38
4.21
7.08
8.95
9.79
9.40
7.35
3.11
-2.71
-9.10
-13.97
-16.04
-14.63
-10.21
-3.79
3.61
10.53
16.10
19.00
19.00
16.39
12.16
7.75
4.15
2.30
1.98
2.97
4.23
4.98
4.81
3.82
2.63
1.23
-0.43
-3.17
-6.92
-11.03
-14.02
-14.52
-12.24
-7.88
-3.41
-0.05
1.31
1.39
1.34
2.24
4.57
7.53
10.32
11.63
11.27
9.02
5.25
0.73
-3.54
-5.87
-5.49
-2.11
2.87
7.94
11.60
13.07
12.24
9.07
4.36
-0.79
-4.30
-4.85
-2.06
2.75
7.37
10.07
9.73
6.86
2.03
-3.45
-8.65
-12.43
-13.66
-11.84
-6.77
0.03
6.89
11.67
13.58
13.20
11.84
11.06
10.95
10.93
9.49
5.99
0.38
-6.24
-12.32
-16.49
-17.78
-16.67
-14.03
-11.61
-10.22
-9.92
-9.97
-9.24
-7.41
-4.43
-1.57
0.35
0.55
-0.89
-3.27
-5.89
-7.65
-8.07
-6.45
-3.14
1.13
4.98
7.15
7.24
5.42
2.71
-0.35
-3.06
-5.51
-7.48
-8.50
-7.60
-3.77
2.56
9.92
15.34
16.99
14.66
10.38
6.91
5.68
6.77
8.47
9.70
9.83
9.45
9.46
10.37
12.34
14.40
15.79
15.45
13.31
9.70
5.31
0.93
-3.05
-6.27
-9.03
-11.12
-12.65
-13.09
-12.02
-9.19
-4.91
-0.54
2.74
3.57
2.11
-0.95
-4.32
-6.90
-8.32
-8.50
-8.35
-8.18
-8.38
-8.49
-7.83
-5.88
-2.38
1.85
5.98
8.33
7.75
3.52
-3.74
-12.08
-19.02
-22.36
-21.79
-18.09
-13.35
-8.97
-5.51
-2.28
1.76
6.67
11.87
15.37
16.04
13.54
9.12
4.45
0.64
-1.74
-3.26
-3.81
-3.39
-1.54
1.84
6.49
11.85
16.66
19.98
20.54
18.24
13.67
8.37
3.79
0.61
-1.21
-2.40
-2.93
-2.75
-1.22
1.57
5.15
8.61
10.90
12.04
11.93
11.34
10.36
8.79
5.77
0.69
-5.85
-12.60
-17.19
-18.45
-16.22
-12.02
-7.78
-4.94
-4.19
-4.95
-6.75
-8.49
-9.53
-9.14
-7.10
-3.51
1.20
6.07
10.54
13.57
14.82
13.78
10.79
6.43
1.52
-2.59
-5.37
-6.19
-5.75
-4.89
-4.83
-6.09
-7.98
-9.47
-9.17
-7.04
-3.58
-0.16
2.44
3.86
4.26
4.21
3.69
2.92
1.69
0.36
-0.90
-1.62
-1.56
-0.89
0.31
1.47
2.59
3.36
4.02
4.52
4.79
5.08
5.12
5.06
4.30
2.89
0.83
-1.25
-2.35
-1.90
0.57
4.45
9.12
13.12
15.24
14.37
10.17
3.60
-3.94
-10.57
-15.50
-18.38
-19.88
-20.42
-19.93
-17.84
-13.26
-6.42
1.81
9.14
13.77
14.57
11.68
6.44
0.31
-4.80
-7.87
-8.13
-6.16
-3.22
-0.61
0.92
1.84
2.35
2.42
0.92
-2.80
-8.34
-14.00
-17.39
-16.99
-12.53
-5.53
2.16
8.42
12.30
13.81
13.60
12.68
11.20
9.37
6.83
4.34
2.74
3.00
5.59
9.67
14.21
17.77
19.83
20.00
18.46
15.36
10.58
4.42
-2.80
-9.96
-16.13
-20.24
-22.26
-22.60
-21.88
-20.28
-17.35
-13.07
-7.61
-2.48
1.14
2.71
2.77
2.69
3.32
5.10
6.93
8.08
7.64
5.75
3.43
1.90
2.50
5.02
8.73
11.63
12.42
10.63
6.88
2.57
-1.40
-4.38
-6.89
-9.10
-11.34
-13.15
-14.04
-13.69
-12.13
-10.19
-8.10
-6.44
-4.66
-2.39
0.80
4.62
8.11
10.64
11.33
10.79
9.68
9.16
9.82
11.44
13.55
15.10
15.88
15.43
13.93
11.25
7.42
2.70
-2.37
-6.69
-9.45
-9.87
-8.24
-5.24
-2.08
0.34
1.73
2.10
2.27
2.27
2.21
1.51
-0.11
-2.75
-6.19
-9.59
-12.44
-13.60
-12.63
-9.22
-3.94
2.21
8.25
12.98
15.77
15.84
13.26
8.17
1.52
-5.51
-11.49
-15.00
-15.31
-12.25
-7.38
-2.77
-0.80
-2.39
-6.71
-11.93
-15.53
-16.50
-14.43
-10.24
-4.78
1.17
7.17
13.08
18.04
21.28
21.44
18.33
12.46
5.48
-0.88
-5.52
-8.12
-9.47
-9.83
-9.79
-9.14
-7.88
-5.88
-3.31
-0.72
1.76
3.46
4.61
5.10
5.23
5.22
5.05
5.10
5.20
5.66
5.98
5.89
5.01
3.34
1.35
-0.71
-2.47
-4.22
-5.67
-6.69
-6.57
-5.10
-2.56
0.45
3.07
5.43
7.38
9.13
9.96
9.13
6.09
1.01
-4.63
-9.59
-12.48
-13.37
-12.52
-10.49
-7.52
-3.51
0.80
4.54
6.27
5.95
4.50
3.67
4.64
7.16
10.32
12.89
14.81
15.95
16.19
14.56
10.06
2.70
-6.49
-15.32
-22.11
-25.52
-25.63
-22.90
-18.10
-11.94
-4.78
2.58
9.73
15.25
18.22
17.67
13.66
7.23
-0.10
-6.22
-10.19
-11.34
-10.33
-7.72
-4.10
0.24
5.12
9.57
12.85
13.88
12.85
10.38
7.43
4.76
2.70
1.79
1.96
3.04
3.79
3.04
0.06
-4.37
-8.29
-10.16
-9.13
-6.33
-3.13
-1.06
-0.38
-0.60
-0.86
-0.23
1.07
2.79
3.61
2.95
0.38
-3.64
-7.93
-11.32
-12.52
-11.66
-9.15
-6.34
-3.87
-1.65
0.82
4.22
8.07
11.67
13.60
13.33
10.76
6.57
1.84
-2.58
-5.80
-7.81
-8.53
-8.69
-8.55
-8.46
-8.20
-7.16
-5.08
-1.32
3.53
8.76
12.75
14.31
12.94
9.14
4.83
1.41
0.20
0.76
2.26
3.49
3.85
3.54
2.68
1.92
1.27
1.12
1.49
2.57
4.25
6.02
7.33
7.12
5.04
0.73
-4.97
-10.99
-15.79
-17.94
-16.72
-11.82
-4.34
4.42
12.09
16.95
17.82
14.72
9.16
2.89
-1.89
-4.54
-5.07
-4.77
-4.60
-4.62
-4.34
-2.82
-0.54
1.40
1.30
-1.17
-5.04
-8.35
-9.40
-8.13
-5.44
-3.16
-2.18
-2.69
-3.68
-3.99
-2.97
-0.63
1.71
2.99
1.99
-0.96
-4.76
-7.76
-8.44
-6.67
-2.62
2.60
8.39
13.86
18.19
20.54
20.08
17.12
12.29
7.07
2.30
-1.52
-4.93
-8.62
-12.75
-16.64
-18.48
-17.00
-11.69
-4.27
2.84
7.31
8.19
6.35
3.14
0.41
-1.42
-2.10
-2.16
-1.92
-1.20
0.08
2.15
4.22
5.91
6.70
7.07
7.85
9.36
11.34
12.49
11.96
8.94
3.86
-2.59
-9.32
-15.25
-19.63
-21.96
-22.65
-21.71
-19.44
-15.44
-9.64
-2.54
4.59
9.89
12.64
12.52
10.70
8.10
5.44
2.78
-0.16
-3.05
-5.72
-7.13
-6.99
-5.01
-1.61
2.66
7.28
11.28
14.21
15.29
14.93
13.76
12.79
12.40
12.18
11.65
10.10
7.80
4.80
1.42
-2.58
-7.06
-11.40
-14.64
-15.48
-13.81
-9.90
-5.36
-1.49
0.66
0.95
0.26
-0.52
-0.32
0.63
1.99
2.78
2.49
1.19
-0.97
-3.49
-6.52
-9.51
-12.01
-12.72
-10.58
-5.37
2.08
9.45
14.60
15.59
12.62
7.00
1.10
-3.21
-5.14
-4.87
-3.63
-2.22
-1.53
-1.43
-1.63
-1.34
-0.05
1.95
4.15
5.17
4.56
2.23
-0.82
-3.31
-4.24
-3.20
-1.10
1.31
3.09
4.64
6.38
8.49
10.36
10.60
8.92
5.83
3.42
2.90
4.13
5.07
3.33
-1.83
-9.28
-16.09
-20.27
-20.99
-19.65
-17.92
-16.70
-15.55
-13.08
-8.81
-2.90
2.82
6.96
8.52
7.79
6.12
4.84
5.19
6.92
9.58
11.73
12.46
11.63
9.81
8.38
7.92
8.73
9.63
9.56
7.57
3.56
-1.66
-7.10
-11.45
-14.26
-14.95
-13.83
-11.30
-8.32
-5.82
-4.41
-4.45
-5.11
-5.93
-6.11
-5.72
-4.95
-4.21
-3.80
-3.30
-2.74
-1.62
-0.26
1.25
2.60
3.70
4.84
5.97
7.45
8.88
10.33
11.57
12.61
13.30
13.24
12.14
9.64
6.39
3.07
0.82
0.03
0.64
1.93
2.79
2.63
0.79
-2.15
-5.60
-8.51
-10.36
-11.30
-11.35
-10.76
-8.83
-5.60
-1.28
2.77
5.25
5.67
4.43
2.92
1.84
1.51
1.16
0.13
-1.97
-4.73
-7.20
-8.73
-8.59
-7.00
-4.12
-0.94
1.73
2.93
2.16
0.23
-2.01
-2.99
-2.49
-0.95
0.37
0.65
0.28
0.21
2.00
5.67
10.46
14.58
16.77
16.73
15.14
13.23
11.36
9.57
7.20
4.10
0.28
-3.76
-7.40
-10.17
-11.53
-11.74
-11.11
-10.88
-11.57
-13.17
-14.75
-14.68
-12.33
-7.69
-2.45
1.93
4.20
4.56
4.47
5.38
8.46
12.88
16.94
18.42
16.37
11.16
4.17
-2.83
-8.71
-12.39
-13.62
-12.18
-8.80
-4.34
0.07
3.53
5.67
5.91
4.33
0.68
-4.17
-9.08
-12.53
-13.20
-11.04
-6.75
-2.53
0.15
0.30
-1.28
-2.77
-2.64
-0.04
4.04
8.37
11.26
11.85
9.74
5.33
-0.17
-5.37
-8.62
-9.60
-8.59
-6.87
-5.11
-3.36
-1.21
1.60
4.18
5.80
5.69
4.78
4.58
6.71
11.60
17.89
23.65
26.34
25.17
20.40
13.66
6.75
0.97
-3.02
-5.70
-7.06
-7.33
-6.01
-2.92
1.85
7.37
11.92
14.03
12.43
7.44
0.03
-8.03
-15.55
-21.82
-26.43
-29.02
-28.66
-25.12
-18.61
-10.74
-3.03
3.39
8.09
11.51
13.38
13.56
11.30
6.61
0.24
-6.00
-9.73
-9.48
-5.06
1.11
5.74
5.74
0.52
-7.92
-16.22
-21.22
-22.00
-19.16
-14.74
-10.17
-6.39
-3.19
-0.05
3.40
7.44
11.49
15.18
17.44
17.84
15.96
11.98
7.14
2.67
0.25
0.04
1.49
3.08
3.80
3.67
3.34
3.97
5.51
7.45
8.45
7.88
5.76
2.95
0.58
-0.84
-1.03
-0.54
0.40
1.20
1.69
1.65
0.95
-0.19
-1.89
-3.81
-6.29
-8.90
-11.26
-12.62
-12.26
-10.28
-6.85
-2.92
1.17
4.96
8.46
11.63
14.15
15.64
15.20
12.44
7.25
0.74
-5.70
-10.69
-13.50
-14.27
-13.26
-11.14
-8.12
-4.86
-1.61
1.40
4.03
6.19
7.03
5.88
1.87
-4.22
-10.71
-15.10
-15.12
-10.24
-1.21
9.32
18.69
24.24
24.93
21.06
14.03
5.97
-1.48
-6.99
-10.56
-12.50
-13.87
-15.24
-16.67
-17.51
-16.74
-14.22
-10.14
-5.77
-1.77
1.55
4.48
7.30
9.50
10.76
10.30
8.66
6.59
5.19
5.14
6.18
7.66
8.21
7.66
6.17
5.00
5.07
6.63
8.95
10.50
10.39
7.92
3.72
-1.50
-6.72
-11.29
-14.84
-17.02
-17.88
-16.87
-13.93
-8.88
-2.51
4.14
9.76
13.04
13.64
11.21
6.47
0.18
-6.20
-11.44
-14.52
-14.84
-13.01
-9.61
-5.78
-1.79
2.19
6.29
10.23
12.97
13.81
12.14
8.91
5.33
2.72
1.28
0.35
-0.92
-3.13
-5.76
-8.13
-9.25
-9.13
-8.00
-6.41
-4.70
-2.46
0.43
4.36
8.63
12.62
15.08
15.20
13.04
9.30
5.74
3.52
3.36
4.42
5.43
5.34
3.87
1.88
0.00
-1.09
-1.76
-2.14
-2.51
-2.77
-2.81
-2.76
-2.63
-2.81
-3.14
-3.82
-4.52
-5.16
-5.66
-5.78
-5.63
-4.86
-3.68
-1.90
0.03
1.53
2.09
1.45
0.21
-1.18
-1.96
-2.25
-2.38
-2.98
-4.57
-7.18
-10.62
-13.97
-16.38
-16.82
-15.07
-11.58
-7.56
-4.35
-2.62
-2.42
-2.68
-2.68
-1.72
-0.00
1.86
3.32
4.00
4.25
4.31
4.72
5.47
6.51
7.62
8.54
9.38
9.90
9.93
8.87
6.57
3.29
-0.07
-2.29
-2.73
-1.34
0.89
2.92
3.71
3.06
1.33
-0.61
-1.75
-1.70
-0.35
1.61
3.73
5.37
6.13
5.66
3.69
0.73
-2.54
-4.77
-5.26
-3.88
-1.26
1.54
3.83
4.89
4.64
2.97
0.47
-2.10
-3.75
-3.64
-1.71
1.62
5.05
7.48
7.73
5.63
1.61
-3.16
-7.18
-9.45
-9.18
-6.72
-2.59
1.90
5.57
7.37
6.69
3.99
-0.03
-3.92
-6.78
-7.95
-7.41
-5.55
-2.89
-0.29
1.82
2.95
3.24
2.83
2.10
1.45
1.34
2.21
3.93
6.15
7.60
7.53
5.49
2.18
-1.09
-3.31
-3.73
-2.86
-1.22
0.20
1.03
1.08
0.38
-0.68
-2.04
-3.01
-3.40
-2.83
-1.56
-0.12
0.88
0.85
-0.08
-1.60
-2.80
-3.20
-2.49
-0.94
1.02
2.87
3.91
3.94
2.60
0.50
-1.69
-2.92
-2.62
-1.09
1.12
2.92
4.06
4.19
3.61
2.36
0.55
-1.42
-3.30
-4.34
-4.34
-3.09
-1.15
0.75
1.77
1.24
-0.67
-3.44
-5.80
-6.96
-6.32
-4.23
-1.44
1.12
2.58
2.76
1.60
-0.08
-1.67
-2.39
-1.98
-0.64
1.39
3.50
5.51
6.73
6.76
5.06
1.71
-2.34
-5.85
-7.26
-6.12
-2.68
1.47
4.69
5.67
4.21
1.31
-1.61
-3.00
-2.53
-0.42
2.22
4.41
5.41
4.84
3.03
0.42
-1.83
-3.14
-3.00
-1.69
0.11
1.73
2.39
2.09
0.76
-0.85
-2.21
-2.71
-2.14
-0.73
1.29
3.28
4.84
5.26
4.38
2.35
-0.07
-1.94
-2.71
-2.07
-0.57
1.30
2.66
3.05
2.12
-0.15
-3.10
-6.05
-7.77
-7.81
-5.95
-2.98
0.04
2.19
2.91
2.48
1.17
-0.35
-1.76
-2.59
-2.43
-1.21
0.98
3.36
5.24
5.73
4.81
2.76
0.38
-1.59
-2.77
-2.85
-2.05
-0.59
0.68
1.18
0.45
-1.23
-2.88
-3.78
-3.25
-1.71
0.22
1.53
1.69
0.70
-0.98
-2.35
-3.01
-2.82
-2.38
-2.12
-2.27
-2.74
-3.15
-3.23
-2.41
-0.70
1.90
4.62
6.67
7.27
6.06
3.43
-0.07
-3.21
-5.20
-5.33
-3.86
-1.66
0.32
1.23
1.22
0.51
-0.22
-0.82
-1.16
-1.24
-1.13
-0.53
0.57
2.35
4.35
6.12
6.91
6.47
4.99
2.99
1.39
0.48
0.60
1.35
2.38
3.03
2.81
1.76
0.08
-1.31
-1.99
-1.57
-0.45
0.77
1.58
1.52
0.82
-0.34
-1.33
-1.95
-2.06
-1.86
-1.60
-1.27
-0.90
-0.37
-0.07
-0.17
-1.10
-2.61
-4.16
-5.04
-4.51
-2.73
-0.23
1.61
1.92
0.33
-2.51
-5.35
-7.19
-7.25
-5.79
-3.32
-0.94
0.31
-0.33
-3.08
-7.14
-11.39
-14.44
-15.71
-15.21
-13.92
-13.14
-14.02
-17.05
-21.57
-26.37
-29.70
-30.76
-29.53
-27.18
-25.47
-25.92
-29.44
-35.59
-43.16
-50.21
-55.00
-56.26
-53.60
-48.18
-42.46
-40.43
-45.70
-60.00
-80.99
-102.34
-115.62
-113.38
-92.58
-55.57
-9.59
36.29
74.28
100.27
114.16
118.53
116.83
111.58
104.56
96.96
90.40
86.86
88.33
96.12
110.11
128.70
148.36
164.40
171.16
163.23
137.01
92.33
34.18
-27.27
-78.12
-105.42
-101.64
-68.88
-19.42
28.11
54.96
50.57
16.72
-32.05
-74.97
-93.90
-81.71
-45.46
-2.35
28.36
34.81
16.75
-15.41
-46.76
-64.77
-63.76
-45.84
-18.11
10.19
31.33
40.45
36.59
22.50
3.56
-13.84
-24.70
-26.66
-21.10
-11.58
-2.60
2.79
3.86
1.79
-1.14
-3.80
-5.93
-8.64
-12.43
-16.50
-18.48
-15.71
-7.55
4.10
14.49
19.30
16.53
8.16
-1.13
-6.86
-6.59
-1.42
5.71
10.91
11.56
6.85
-1.83
-11.25
-17.95
-19.48
-16.25
-10.68
-6.47
-5.72
-7.98
-10.57
-10.28
-5.92
1.38
8.15
11.31
9.28
3.04
-4.50
-9.89
-10.37
-5.74
2.07
8.87
10.75
6.11
-3.25
-12.64
-17.54
-15.19
-6.44
5.57
16.30
21.37
17.35
2.35
-22.19
-50.86
-73.83
-80.35
-63.22
-23.63
27.60
73.58
98.02
92.62
60.11
13.60
-29.63
-54.77
-55.14
-33.75
-1.02
29.83
48.65
50.99
39.33
20.34
1.88
-9.93
-12.84
-8.05
0.33
8.19
12.35
12.18
9.22
5.71
3.37
1.87
-0.10
-4.17
-10.09
-15.76
-18.24
-15.47
-8.19
0.65
6.50
6.24
-0.74
-11.65
-21.74
-26.61
-24.03
-15.23
-3.64
6.10
11.02
10.06
4.85
-1.56
-6.21
-6.86
-3.70
1.75
6.57
8.51
6.64
1.97
-2.78
-5.24
-3.74
0.76
5.94
8.90
7.94
3.41
-2.84
-8.10
-10.96
-11.06
-9.65
-8.09
-7.22
-6.95
-6.41
-4.98
-2.42
0.47
3.16
5.16
6.74
8.16
9.21
9.47
8.28
6.01
3.18
0.85
-0.71
-1.62
-2.02
-2.10
-1.42
-0.22
1.40
2.80
3.82
4.61
5.33
6.32
7.17
7.73
7.28
5.66
2.68
-1.50
-6.18
-10.59
-13.59
-14.82
-14.09
-12.07
-9.13
-5.47
-1.03
4.01
8.59
11.60
11.77
9.45
5.74
2.44
0.74
0.69
1.90
3.20
4.03
3.51
1.47
-1.89
-5.51
-7.70
-7.37
-3.92
1.41
6.95
10.69
11.48
9.31
4.97
0.06
-4.29
-7.09
-8.48
-8.91
-9.04
-9.08
-8.69
-7.60
-5.70
-3.93
-2.79
-2.63
-2.53
-1.46
0.87
3.91
6.07
6.64
5.41
3.60
1.99
1.00
0.38
-0.53
-1.67
-3.14
-4.32
-5.07
-4.86
-3.37
-0.48
3.49
7.05
9.08
8.73
6.93
5.11
4.35
4.37
3.66
1.27
-2.77
-6.70
-9.12
-9.51
-8.87
-8.43
-8.39
-8.25
-6.96
-4.82
-2.55
-1.20
-0.53
0.56
2.99
6.71
10.04
11.58
10.69
8.63
6.86
6.14
5.99
5.04
2.91
-0.12
-2.72
-4.49
-5.69
-7.11
-8.86
-9.88
-9.29
-6.72
-3.72
-1.64
-1.01
-0.58
1.52
5.70
10.73
13.74
13.26
9.80
6.03
4.45
5.55
7.61
7.86
5.32
0.73
-3.49
-5.81
-6.26
-6.15
-6.80
-8.03
-9.16
-9.11
-8.11
-6.72
-5.48
-4.18
-2.11
0.77
4.21
7.00
8.67
9.12
8.92
8.36
7.24
5.56
3.42
1.99
1.94
3.34
4.91
5.24
3.92
1.62
0.16
0.20
1.66
3.49
5.14
6.79
8.83
11.33
13.06
13.08
10.86
7.54
4.48
2.36
0.62
-2.17
-6.40
-11.46
-15.44
-17.37
-17.44
-17.31
-18.46
-20.93
-23.44
-23.96
-21.90
-17.93
-13.97
-11.43
-10.50
-10.27
-9.09
-6.39
-2.13
2.69
7.00
9.71
10.09
8.18
4.63
1.06
-1.21
-1.22
0.65
3.28
5.29
5.95
5.61
5.07
5.34
6.36
7.67
8.35
7.98
6.77
5.09
3.47
1.93
0.67
-0.25
-0.61
-0.37
0.11
0.55
0.51
0.06
-0.65
-1.24
-1.46
-1.18
-0.45
0.50
1.50
2.25
2.76
2.84
2.54
1.77
0.65
-0.63
-1.96
-2.87
-3.27
-2.81
-1.69
-0.31
0.78
1.07
0.66
-0.20
-0.88
-1.16
-0.98
-0.57
-0.27
-0.10
-0.08
0.08
0.41
0.88
1.22
1.18
0.76
0.15
-0.21
-0.14
0.47
1.26
1.86
1.80
0.95
-0.45
-1.89
-2.61
-2.36
-1.20
0.14
0.95
0.81
-0.18
-1.31
-1.97
-1.65
-0.68
0.37
0.82
0.41
-0.48
-1.24
-1.14
-0.17
1.37
2.69
3.18
2.60
1.23
-0.14
-0.85
-0.48
0.62
1.91
2.76
3.01
2.80
2.32
1.83
1.31
0.94
0.73
0.78
0.93
0.93
0.71
0.16
-0.43
-0.97
-1.29
-1.42
-1.40
-1.23
-0.97
-0.48
-0.03
0.22
-0.06
-0.93
-2.15
-3.25
-3.70
-3.40
-2.44
-1.34
-0.42
-0.06
-0.33
-1.13
-2.15
-2.90
-3.08
-2.55
-1.69
-0.92
-0.79
-1.52
-2.82
-4.24
-4.97
-4.70
-3.36
-1.55
0.03
0.82
0.50
-0.63
-2.21
-3.56
-4.33
-4.31
-3.83
-3.44
-3.60
-4.51
-5.77
-6.92
-7.42
-7.25
-6.52
-5.54
-4.44
-2.94
-0.74
2.44
5.84
8.59
9.67
9.13
8.10
8.02
10.12
14.02
18.72
22.39
24.02
23.51
21.56
19.41
17.60
16.16
14.15
10.91
6.33
1.15
-3.41
-6.62
-8.24
-8.87
-8.84
-8.49
-7.64
-6.40
-5.09
-4.02
-3.50
-3.10
-2.82
-2.46
-2.63
-3.88
-6.37
-9.58
-12.05
-12.90
-11.43
-8.54
-5.40
-3.02
-1.62
-0.30
1.56
4.21
6.41
7.07
5.36
1.79
-2.37
-5.81
-7.54
-7.69
-6.51
-4.75
-2.42
0.44
4.01
8.02
11.56
13.88
13.95
11.93
8.19
3.67
-0.90
-5.08
-8.41
-10.94
-11.98
-11.27
-8.49
-4.05
0.88
4.97
7.07
7.36
6.26
4.80
3.28
1.74
-0.24
-2.94
-6.10
-9.12
-10.83
-10.76
-8.67
-5.51
-2.10
0.83
2.71
3.45
2.38
-0.23
-3.72
-6.53
-7.42
-6.13
-3.20
0.11
3.34
5.83
7.29
7.15
5.12
1.48
-3.01
-7.06
-9.78
-10.29
-8.77
-5.72
-2.37
0.46
2.53
3.93
5.03
5.26
4.57
2.71
0.47
-1.23
-1.74
-0.54
1.82
5.05
8.04
10.06
10.41
9.10
6.82
4.31
2.53
1.40
0.98
0.78
0.64
0.36
0.04
-0.09
-0.07
0.32
0.47
0.41
-0.11
-0.84
-1.49
-1.94
-1.82
-1.48
-0.43
1.36
4.27
8.33
13.23
18.66
23.73
27.93
30.10
29.62
26.15
20.50
14.50
10.12
8.69
9.89
12.69
15.39
17.38
18.42
19.05
19.52
19.65
19.45
18.66
17.47
15.58
12.88
8.91
3.69
-2.22
-7.94
-12.16
-14.47
-15.08
-15.40
-16.36
-18.42
-21.22
-23.98
-26.34
-27.71
-27.67
-25.51
-21.42
-16.26
-11.83
-9.59
-9.69
-11.51
-13.52
-15.20
-16.36
-17.38
-18.29
-18.63
-17.81
-15.47
-12.36
-9.52
-8.32
-8.91
-10.75
-12.45
-12.77
-11.40
-8.55
-5.58
-3.48
-3.27
-4.86
-7.28
-9.00
-8.44
-5.47
-0.62
4.33
8.17
10.22
10.82
10.77
10.41
9.79
8.12
5.21
1.17
-3.03
-6.62
-9.15
-10.45
-10.55
-8.96
-5.98
-2.11
1.11
2.62
2.19
0.58
-0.76
-1.15
-0.01
2.27
5.56
9.36
13.07
16.35
18.54
19.65
19.34
17.76
14.87
10.90
6.15
1.00
-3.61
-7.01
-8.38
-8.14
-7.15
-6.81
-7.84
-9.91
-12.00
-12.70
-11.72
-9.35
-7.06
-5.98
-6.65
-8.55
-10.09
-10.27
-8.39
-5.39
-2.31
-0.25
0.68
1.29
2.41
4.88
8.01
10.87
11.97
10.85
8.03
4.56
1.62
-0.71
-2.51
-4.48
-6.51
-8.54
-10.08
-10.77
-10.27
-8.29
-5.33
-1.95
0.39
1.14
0.31
-1.31
-2.38
-2.41
-1.19
0.23
1.32
1.73
2.26
4.03
7.59
12.77
18.05
22.15
23.93
23.32
20.40
15.36
8.79
1.57
-4.54
-8.34
-9.09
-7.68
-5.69
-4.76
-5.57
-7.21
-8.41
-7.60
-5.09
-1.99
-0.08
-0.19
-1.65
-3.19
-3.26
-2.02
0.08
1.89
3.08
4.01
5.17
7.02
8.78
9.66
8.43
5.29
1.27
-2.29
-4.62
-6.20
-7.78
-10.06
-12.27
-13.42
-12.33
-8.93
-3.94
1.58
6.34
9.84
11.22
10.52
7.77
3.57
-1.12
-5.35
-7.89
-8.56
-7.16
-4.61
-1.73
0.67
1.99
2.38
1.98
1.63
1.52
1.89
2.23
1.89
0.34
-2.47
-5.59
-7.91
-7.94
-5.48
-1.21
2.95
5.31
5.29
3.52
1.92
1.29
1.90
2.52
1.87
-0.59
-4.44
-7.95
-9.85
-9.05
-6.21
-2.62
0.31
1.91
2.57
2.66
2.48
1.35
-0.72
-3.23
-4.76
-4.13
-1.02
3.91
9.02
13.04
14.79
14.29
12.06
9.09
6.34
3.82
1.40
-1.70
-5.20
-8.47
-10.34
-9.96
-7.34
-2.91
1.95
6.18
8.46
8.52
6.72
3.82
0.55
-2.83
-5.68
-7.42
-6.92
-4.16
-0.02
3.56
4.97
4.15
1.98
0.27
-0.34
0.11
0.58
0.17
-1.11
-2.54
-2.53
-0.58
2.99
6.23
7.47
6.16
3.20
0.44
-1.30
-2.03
-3.05
-5.01
-7.84
-10.40
-11.18
-9.40
-4.90
0.84
6.15
9.00
8.89
6.54
3.56
1.71
1.48
3.03
5.53
8.54
11.10
12.49
12.10
9.52
5.35
0.08
-5.16
-9.95
-13.93
-17.25
-20.10
-22.21
-23.15
-21.93
-18.47
-13.15
-7.63
-3.24
-0.87
-0.47
-1.08
-1.93
-1.91
-1.04
0.75
2.70
4.11
4.68
4.19
3.41
2.61
2.45
2.57
2.70
2.59
2.35
2.68
3.54
4.83
5.40
4.74
2.85
0.64
-0.89
-1.41
-1.02
-0.56
-0.04
0.32
0.98
2.03
3.33
4.54
5.00
4.85
3.92
3.16
2.89
3.38
4.54
5.86
7.41
8.85
10.37
11.30
11.15
9.40
5.93
1.33
-3.93
-8.81
-12.85
-15.29
-15.96
-14.80
-12.04
-8.05
-3.13
1.93
6.77
10.29
12.17
12.17
10.60
8.09
4.99
2.04
-0.77
-2.75
-3.85
-3.94
-3.15
-1.88
-0.21
1.25
2.40
2.58
1.62
-0.77
-4.42
-8.62
-12.57
-15.03
-15.61
-14.01
-10.85
-6.68
-2.29
1.56
4.24
5.14
4.74
3.56
2.89
3.32
4.92
6.95
8.21
8.12
6.11
3.00
-0.49
-3.27
-4.78
-4.90
-3.56
-1.18
2.23
5.57
7.90
8.07
5.92
2.36
-1.19
-3.12
-3.20
-1.82
-0.54
-0.49
-2.23
-5.03
-7.44
-8.14
-6.37
-3.10
0.57
3.05
3.81
2.91
0.84
-1.39
-3.43
-4.43
-4.36
-3.07
-0.82
2.08
5.36
8.25
10.27
10.29
8.08
3.79
-1.40
-6.08
-9.35
-10.88
-11.23
-10.67
-9.63
-7.84
-5.43
-2.60
0.17
2.57
5.01
7.54
10.30
12.10
11.83
8.71
3.32
-2.25
-6.08
-6.60
-4.36
-0.85
1.94
3.04
2.93
2.82
4.17
6.73
9.45
10.39
8.53
4.13
-1.42
-6.38
-9.77
-10.90
-10.10
-7.52
-3.82
0.51
4.87
8.56
11.11
11.72
10.46
7.50
4.24
2.00
1.75
3.75
6.95
10.50
13.20
14.88
15.40
14.94
13.34
9.96
4.69
-2.10
-8.58
-12.97
-14.10
-12.84
-11.27
-11.32
-13.62
-16.53
-17.98
-16.38
-12.38
-7.97
-5.63
-6.44
-9.41
-12.53
-13.53
-12.21
-9.47
-7.16
-6.34
-6.61
-7.03
-6.38
-4.84
-2.58
-0.18
2.60
6.36
11.15
16.39
20.50
22.45
21.41
17.95
12.68
6.35
-0.35
-6.86
-12.04
-15.13
-15.39
-13.33
-9.78
-6.07
-2.88
-0.14
2.36
5.14
7.52
9.01
8.72
6.54
2.76
-1.97
-6.47
-10.24
-12.22
-12.23
-10.07
-6.00
-0.61
5.44
10.84
14.79
16.13
14.90
11.53
7.21
3.08
-0.18
-2.21
-3.51
-4.19
-4.77
-4.92
-4.46
-2.86
0.07
3.78
7.70
10.47
11.63
10.90
9.10
7.12
5.53
4.59
3.55
2.37
0.99
0.27
0.58
1.71
2.70
2.18
0.03
-3.46
-6.88
-9.34
-10.32
-10.15
-9.47
-8.70
-8.22
-7.58
-6.65
-4.91
-2.58
0.24
3.35
6.33
9.03
10.55
10.52
8.48
5.13
1.45
-1.43
-2.39
-1.31
1.94
6.38
10.94
13.96
14.23
11.52
6.39
0.69
-4.26
-7.46
-9.21
-10.24
-11.54
-13.61
-16.15
-18.36
-18.89
-17.30
-13.71
-9.50
-5.82
-3.27
-1.83
-0.84
-0.35
-0.37
-1.41
-2.96
-4.18
-3.85
-1.08
3.73
9.85
15.46
19.39
20.87
20.25
18.33
15.68
12.63
8.67
3.78
-2.02
-7.76
-12.58
-15.54
-16.17
-14.72
-11.49
-7.50
-3.23
0.41
3.23
4.77
4.61
2.66
-1.13
-5.48
-9.17
-10.58
-9.43
-6.26
-2.33
0.92
2.93
3.26
2.52
1.02
-0.50
-1.73
-2.53
-2.94
-3.34
-3.50
-3.42
-2.42
-0.37
2.78
6.46
9.83
12.35
13.39
13.47
12.85
12.36
12.22
12.38
12.85
13.49
14.75
16.17
17.17
16.25
12.48
5.81
-2.62
-10.68
-16.61
-18.93
-17.93
-14.42
-10.03
-5.97
-2.82
-0.93
-0.28
-1.50
-4.28
-8.04
-11.19
-12.49
-11.60
-8.78
-5.19
-1.25
2.16
4.46
4.76
2.53
-2.13
-8.42
-14.59
-19.07
-20.27
-18.06
-13.20
-7.40
-1.92
2.89
7.17
11.36
14.42
15.27
12.84
7.54
1.19
-3.90
-5.84
-4.72
-1.31
2.51
5.76
8.20
10.45
13.32
16.70
20.11
22.01
21.47
17.64
10.77
1.82
-7.52
-15.06
-19.31
-19.39
-16.26
-11.32
-6.34
-2.32
0.30
1.22
0.62
-1.54
-4.32
-6.91
-8.43
-8.77
-8.36
-7.55
-6.99
-6.60
-6.77
-7.22
-7.73
-7.51
-5.69
-2.20
2.61
7.28
10.82
12.45
12.56
11.62
9.86
7.08
2.94
-1.63
-5.10
-5.44
-2.37
2.76
7.31
9.24
8.51
6.35
4.84
4.51
5.12
5.56
5.19
4.11
2.67
1.68
1.25
1.69
2.57
3.46
3.80
3.00
1.04
-2.17
-6.12
-10.66
-14.89
-17.88
-18.47
-15.83
-10.18
-2.58
4.83
10.53
13.26
13.41
12.15
10.74
10.07
9.63
8.90
7.12
4.76
2.40
0.70
-0.08
-0.19
0.55
1.86
3.64
4.94
4.82
2.53
-1.74
-6.83
-11.71
-15.31
-17.77
-19.27
-20.31
-20.86
-20.40
-18.06
-12.99
-5.70
2.46
8.82
11.68
10.72
7.23
3.62
1.46
1.61
3.44
6.21
8.78
10.42
10.75
9.70
7.85
5.45
3.13
1.16
0.04
-0.34
-0.38
-0.57
-1.09
-1.03
0.17
2.74
5.47
6.98
6.33
3.65
0.16
-3.26
-5.49
-6.36
-5.59
-3.66
-1.47
0.09
0.12
-1.27
-3.98
-7.50
-11.69
-16.05
-19.98
-22.68
-23.16
-20.94
-15.69
-8.29
0.13
7.62
12.77
14.82
13.80
10.71
6.30
2.02
-1.18
-2.29
-1.01
2.33
7.30
12.90
18.53
22.70
24.22
22.10
16.79
9.88
3.10
-2.21
-6.02
-8.36
-9.48
-9.00
-7.13
-4.49
-2.17
-1.09
-0.93
-1.21
-0.96
-0.59
-0.64
-1.75
-3.59
-4.68
-4.09
-1.33
2.26
5.28
6.72
6.85
6.66
6.69
7.21
7.56
7.73
7.29
5.98
2.94
-2.43
-9.46
-16.30
-20.23
-20.26
-16.94
-12.94
-10.44
-9.86
-9.76
-7.85
-3.40
3.04
9.15
13.39
15.09
14.80
13.39
11.20
8.64
5.71
3.17
1.09
-0.67
-2.73
-5.36
-7.82
-9.27
-8.58
-6.21
-2.96
-0.05
2.01
3.43
4.45
5.56
6.47
7.48
8.46
9.26
8.92
6.14
0.52
-7.08
-13.66
-16.84
-15.68
-12.37
-10.31
-11.94
-16.98
-22.30
-24.73
-22.31
-16.21
-8.79
-2.48
1.96
5.32
8.49
12.08
14.85
15.51
12.77
6.99
-0.18
-6.46
-9.50
-8.61
-3.87
2.87
9.63
14.56
17.04
17.79
17.90
18.66
19.94
21.21
21.44
20.20
17.44
13.44
8.77
3.95
0.12
-2.23
-2.71
-1.96
-0.77
0.15
0.23
-0.58
-2.71
-5.78
-9.39
-12.45
-14.04
-13.56
-10.70
-6.00
-0.10
5.27
8.52
8.22
4.29
-2.21
-9.58
-15.60
-18.82
-18.09
-13.78
-7.17
-0.81
2.98
3.05
-0.20
-4.37
-7.42
-7.70
-5.58
-2.60
-0.74
-1.27
-3.64
-6.41
-7.26
-5.50
-1.64
2.59
5.75
7.49
8.11
8.32
7.83
6.41
3.65
0.10
-3.36
-5.81
-6.51
-5.48
-2.82
0.47
3.70
5.78
6.29
5.23
2.99
0.69
-1.13
-1.68
-1.30
-0.55
-0.19
-0.46
-0.72
-0.35
1.37
3.81
6.06
6.90
5.86
3.32
0.32
-1.78
-2.48
-1.49
0.37
2.44
3.89
4.50
4.43
3.94
3.59
3.17
2.81
1.99
0.77
-0.71
-2.05
-2.59
-2.51
-1.94
-1.80
-2.30
-3.40
-4.32
-4.08
-2.35
0.96
4.84
8.44
10.60
10.89
9.14
5.66
1.13
-3.97
-8.67
-12.44
-14.38
-14.45
-12.82
-10.05
-6.66
-2.72
1.20
4.77
6.94
7.57
6.98
6.09
5.90
6.35
7.16
7.30
6.74
5.57
4.43
3.83
3.64
3.64
3.01
1.70
-0.38
-2.66
-5.00
-7.54
-10.55
-14.10
-17.18
-18.68
-17.31
-13.49
-8.56
-4.57
-2.77
-2.77
-3.25
-2.08
1.06
5.54
9.10
9.77
6.94
1.47
-4.24
-8.45
-9.84
-8.98
-6.76
-4.04
-1.02
2.68
6.87
11.19
14.33
15.66
14.80
12.35
9.12
5.68
2.62
0.13
-1.14
-1.32
-0.62
-0.15
-0.64
-2.21
-4.34
-5.50
-5.31
-3.77
-2.27
-2.16
-4.17
-7.83
-11.27
-12.92
-11.34
-7.03
-1.16
4.40
8.28
10.03
9.59
7.71
4.82
1.94
-0.35
-1.43
-1.20
0.10
2.12
4.20
6.13
7.09
6.88
5.10
2.06
-1.66
-5.51
-8.55
-10.56
-10.70
-8.82
-4.96
0.12
5.38
10.21
14.10
17.53
20.15
21.64
20.94
17.51
11.55
4.11
-3.05
-8.66
-11.59
-11.99
-10.23
-7.24
-3.64
0.06
3.24
5.51
5.90
4.36
0.79
-3.89
-8.64
-12.31
-13.63
-12.41
-8.74
-4.35
-0.92
0.05
-1.40
-3.73
-5.11
-3.84
-0.21
4.64
8.35
9.22
6.39
0.56
-6.22
-11.93
-14.86
-15.04
-13.10
-10.28
-6.97
-3.09
1.28
5.51
7.86
7.37
3.84
-0.81
-4.36
-5.06
-2.76
0.86
3.99
4.77
3.14
-0.35
-4.19
-7.00
-7.77
-5.92
-2.10
2.95
7.71
11.59
14.34
16.27
17.57
17.73
16.42
13.50
10.15
7.48
6.11
5.27
3.62
0.35
-4.33
-8.74
-11.46
-11.42
-9.20
-5.87
-2.83
-0.91
0.04
0.16
0.08
-0.41
-1.18
-2.41
-3.95
-5.27
-6.22
-6.14
-5.05
-2.61
0.82
4.79
8.65
11.65
13.54
13.95
13.14
10.86
7.11
1.52
-5.68
-13.56
-20.57
-24.61
-24.66
-20.60
-14.36
-7.96
-3.27
-0.64
0.83
1.98
3.56
4.77
5.16
4.35
3.07
2.49
3.07
4.53
5.17
4.14
1.22
-1.97
-3.39
-1.71
2.76
7.84
11.30
11.25
7.93
2.39
-3.51
-8.39
-11.63
-12.96
-12.67
-10.43
-6.53
-1.05
4.85
9.78
12.34
11.78
8.95
5.10
2.10
0.65
0.74
1.54
2.30
2.98
3.30
3.31
2.17
-0.42
-4.18
-7.51
-8.45
-6.05
-0.59
5.63
10.51
12.38
11.05
7.23
1.90
-3.76
-8.95
-12.55
-14.08
-13.12
-10.18
-6.03
-1.77
1.68
4.05
5.16
5.57
5.16
4.03
1.87
-1.25
-4.58
-7.19
-7.94
-6.89
-4.42
-1.80
0.23
1.54
2.46
3.71
5.06
6.18
6.01
4.21
0.88
-3.10
-6.43
-8.27
-8.00
-6.31
-4.09
-2.82
-3.02
-4.45
-5.97
-6.23
-4.97
-2.42
0.28
2.91
5.62
8.95
12.56
14.99
15.03
11.95
7.24
2.67
-0.05
-0.99
-1.32
-2.18
-4.16
-6.21
-7.42
-6.78
-4.66
-1.75
1.25
3.97
6.84
9.55
11.77
12.18
10.10
5.57
-0.11
-4.87
-7.30
-6.89
-4.80
-2.22
-0.45
0.61
1.50
2.82
4.65
6.10
6.76
5.99
4.35
2.06
-0.52
-3.22
-6.00
-8.24
-9.86
-10.37
-10.11
-9.15
-7.75
-6.05
-3.97
-1.85
0.31
1.96
3.06
3.47
3.33
2.86
2.03
0.73
-1.40
-3.91
-6.43
-7.99
-8.21
-6.86
-4.06
-0.49
3.31
5.92
6.47
4.26
0.09
-4.43
-7.49
-7.58
-4.89
-0.06
5.23
9.76
12.65
13.78
13.60
12.23
9.90
6.10
1.09
-4.54
-9.49
-12.64
-13.54
-12.43
-10.10
-6.93
-3.62
-0.45
1.66
2.29
1.60
0.34
0.05
1.27
3.96
6.61
7.88
6.86
4.13
1.65
1.13
3.79
8.49
13.14
15.33
13.97
9.67
3.98
-1.25
-5.45
-8.44
-10.87
-12.92
-14.66
-15.76
-15.86
-14.77
-12.23
-8.73
-4.57
-0.84
1.92
3.33
3.50
3.18
2.87
3.31
4.05
4.79
4.97
4.72
4.87
5.79
7.48
8.66
8.54
6.82
4.65
3.37
3.73
5.49
7.14
7.53
5.76
2.57
-0.96
-3.42
-4.29
-4.08
-3.63
-3.93
-4.69
-5.52
-5.36
-3.94
-1.45
1.33
3.20
3.56
1.76
-1.38
-4.76
-6.93
-7.03
-5.11
-1.74
1.89
5.19
7.30
8.04
7.23
5.07
2.16
-1.10
-4.02
-6.44
-7.90
-8.60
-8.68
-8.63
-8.43
-7.59
-5.71
-2.51
0.73
2.93
3.07
1.42
-1.08
-3.64
-5.48
-6.77
-7.09
-6.40
-4.35
-0.97
3.28
7.68
10.86
11.94
10.19
6.37
1.80
-1.89
-3.80
-4.14
-3.63
-3.19
-2.77
-2.20
-0.69
1.68
4.46
6.56
6.97
5.86
3.56
1.31
-0.62
-2.18
-3.68
-5.07
-5.53
-4.66
-2.11
1.24
4.64
7.15
8.30
7.87
5.65
2.35
-1.23
-3.49
-3.83
-2.54
-1.22
-1.61
-4.30
-8.74
-12.96
-15.58
-15.61
-13.48
-9.61
-4.46
1.55
7.84
12.96
15.93
15.98
13.96
10.98
8.09
5.59
2.92
-0.11
-3.67
-6.77
-8.78
-9.18
-8.11
-6.26
-4.18
-2.75
-1.95
-1.78
-1.41
-0.24
2.04
5.22
8.37
10.77
11.55
11.03
9.61
8.15
6.92
5.69
4.21
2.46
1.50
2.03
4.56
7.94
10.47
10.48
7.38
2.41
-2.89
-6.33
-7.09
-5.21
-2.13
0.47
1.64
1.09
-0.05
-1.17
-1.86
-2.66
-4.09
-6.39
-9.26
-11.62
-12.77
-11.93
-9.56
-6.55
-4.36
-3.88
-4.89
-6.22
-5.89
-3.24
1.38
5.86
8.23
7.33
3.54
-1.20
-5.03
-6.18
-4.65
-1.27
2.32
4.92
6.30
6.59
6.33
4.90
1.84
-3.32
-9.60
-15.35
-18.88
-19.15
-16.42
-11.36
-5.61
-0.21
3.75
6.27
7.74
8.51
9.02
8.86
8.27
7.34
6.87
7.27
8.66
10.83
12.87
14.35
14.46
13.17
10.53
7.16
3.76
0.86
-0.97
-2.06
-2.66
-3.65
-5.27
-7.41
-9.33
-10.35
-10.48
-9.92
-9.34
-8.33
-6.68
-3.85
-0.43
2.20
2.71
0.10
-4.48
-9.20
-11.52
-10.54
-6.96
-2.63
0.62
2.68
4.04
5.89
7.96
9.37
8.74
5.43
0.20
-5.54
-9.79
-11.65
-10.79
-8.29
-5.22
-2.29
0.58
4.03
8.24
13.14
17.22
19.09
17.40
12.23
5.41
-0.63
-3.45
-2.81
0.22
3.23
4.69
4.38
3.10
2.05
1.17
0.39
-0.80
-1.72
-1.52
0.39
3.44
5.66
5.33
1.43
-4.60
-10.49
-13.72
-13.47
-10.51
-6.72
-4.05
-2.97
-3.38
-3.98
-4.01
-2.96
-1.25
0.19
0.94
0.63
0.29
0.66
2.57
5.74
9.29
12.29
13.74
13.70
12.00
9.17
5.36
0.97
-3.67
-8.28
-12.20
-15.04
-15.94
-14.87
-11.86
-7.90
-3.84
-0.44
1.94
3.86
5.39
6.88
7.73
7.56
6.03
3.31
0.26
-2.55
-4.18
-4.67
-4.14
-3.28
-2.54
-1.95
-1.46
-0.72
-0.22
-0.31
-1.57
-3.62
-5.76
-7.02
-6.68
-4.78
-1.48
2.17
5.37
7.00
6.99
6.05
5.17
5.32
6.09
6.96
6.98
6.18
5.10
4.64
5.61
8.00
11.44
14.40
15.72
14.46
10.71
5.08
-1.61
-8.13
-13.33
-15.50
-14.25
-10.13
-5.35
-2.05
-1.21
-2.55
-4.51
-6.30
-7.38
-8.24
-9.05
-9.62
-9.38
-7.42
-3.74
1.19
5.51
7.53
6.13
1.74
-4.05
-9.40
-12.46
-12.45
-8.90
-2.85
4.03
9.38
11.43
9.96
5.91
1.47
-1.97
-3.44
-3.44
-2.83
-2.38
-2.27
-1.60
0.07
2.92
5.53
6.49
5.00
1.61
-2.19
-5.30
-7.02
-7.77
-7.59
-6.76
-5.20
-2.98
-0.48
2.06
3.84
4.73
4.40
3.46
2.44
1.84
1.92
2.50
3.79
5.35
6.95
7.64
7.00
5.00
2.11
-0.83
-3.52
-5.45
-6.69
-6.86
-6.18
-4.71
-2.68
-0.27
2.64
5.55
8.06
9.03
8.05
5.14
1.18
-2.22
-3.91
-2.79
0.71
5.72
10.55
13.93
15.17
14.09
11.38
7.41
3.07
-1.22
-4.86
-7.75
-9.97
-11.78
-13.49
-14.78
-15.64
-15.46
-14.44
-12.59
-10.22
-7.51
-4.41
-1.35
1.53
3.46
4.33
3.87
2.39
0.66
-0.72
-0.80
0.43
2.78
5.04
6.06
4.95
1.68
-2.59
-6.61
-8.85
-8.84
-6.57
-3.08
0.54
3.33
5.03
6.28
7.42
8.94
10.09
10.45
9.49
7.36
4.85
2.49
1.10
0.70
1.42
2.71
4.10
5.35
6.31
7.16
7.47
7.15
5.88
4.19
2.50
1.10
-0.05
-1.38
-2.67
-3.72
-3.73
-2.70
-0.89
0.79
1.56
1.23
-0.26
-2.27
-4.81
-7.25
-9.28
-10.23
-9.51
-7.30
-4.06
-1.15
0.79
1.14
0.12
-1.90
-4.61
-7.38
-9.80
-10.89
-10.45
-8.62
-6.73
-5.95
-6.80
-8.58
-9.55
-8.50
-4.94
-0.16
4.45
7.63
9.31
10.31
11.27
12.76
13.86
13.75
11.41
6.95
1.57
-2.93
-4.70
-3.40
0.48
4.86
7.90
8.35
6.38
3.40
0.73
-0.65
-1.07
-0.94
-0.80
-0.44
0.32
1.29
1.79
0.81
-1.51
-4.67
-7.07
-7.92
-7.00
-5.15
-3.75
-3.33
-4.21
-5.40
-6.28
-6.42
-6.17
-5.84
-5.14
-3.82
-1.15
2.37
6.13
8.99
10.36
10.25
8.86
6.65
3.80
1.06
-1.05
-1.84
-1.44
-0.54
-0.07
-0.67
-1.88
-3.03
-3.11
-2.57
-2.48
-4.19
-8.12
-12.71
-16.04
-16.18
-13.36
-8.85
-4.70
-1.88
0.10
2.25
5.71
9.92
13.77
15.61
15.08
12.92
10.36
8.24
6.02
3.13
-0.82
-4.75
-7.32
-7.37
-4.96
-1.21
2.54
4.74
5.02
3.27
0.59
-1.93
-3.38
-3.31
-2.29
-0.65
0.82
2.21
3.39
4.60
5.95
7.23
8.48
8.99
8.46
6.22
2.23
-3.29
-9.63
-15.64
-20.11
-21.63
-19.91
-15.25
-9.49
-4.44
-1.52
-0.93
-1.64
-2.57
-2.27
-0.56
2.65
6.45
9.80
11.76
11.39
8.99
5.14
1.74
0.42
2.60
8.10
14.98
20.41
21.32
16.53
6.65
-5.31
-15.97
-22.40
-23.39
-19.38
-11.61
-1.99
8.30
17.61
24.77
28.54
28.43
25.04
19.45
13.55
8.31
4.68
2.74
2.53
3.83
5.83
7.67
8.05
6.62
3.35
-0.78
-4.86
-8.30
-10.99
-13.43
-15.73
-18.01
-19.51
-19.99
-19.34
-17.96
-15.98
-13.01
-9.03
-4.25
-0.38
1.30
0.18
-2.74
-5.43
-6.39
-4.85
-1.78
1.79
4.54
5.95
6.19
5.81
5.70
5.92
6.28
5.90
4.58
2.48
0.33
-1.20
-1.87
-1.54
-0.73
0.43
1.14
1.25
0.67
-0.40
-1.60
-3.24
-5.23
-7.78
-9.90
-10.67
-9.32
-5.81
-1.18
3.61
7.30
9.62
10.18
9.36
7.44
4.58
0.97
-3.42
-7.76
-11.16
-12.23
-10.73
-7.08
-2.61
1.46
4.82
7.50
10.31
12.85
14.57
14.19
10.92
5.09
-2.10
-8.17
-11.33
-10.21
-5.46
1.41
8.28
13.21
15.20
13.62
9.03
2.19
-5.11
-11.32
-15.03
-15.60
-13.40
-9.18
-4.40
-0.05
2.55
3.00
1.32
-1.68
-4.79
-7.28
-8.43
-8.70
-8.15
-7.21
-5.77
-3.62
-0.84
2.51
5.40
7.19
6.90
4.73
1.35
-2.15
-4.80
-6.46
-6.94
-6.57
-5.00
-2.32
1.28
4.71
6.62
6.16
3.48
0.62
-0.54
1.66
6.82
12.96
17.45
18.19
15.17
9.55
3.99
0.34
-0.45
0.99
3.03
4.33
4.05
2.88
1.40
0.25
-1.05
-3.18
-6.60
-11.06
-15.08
-17.14
-15.91
-11.87
-6.41
-1.67
1.20
2.33
2.51
2.84
2.99
2.64
1.20
-1.10
-3.52
-5.39
-6.08
-5.51
-3.32
0.03
3.80
6.73
7.67
6.09
1.98
-3.48
-8.83
-12.03
-12.16
-9.30
-4.75
-0.00
4.21
7.47
10.00
11.18
10.70
8.24
4.38
0.22
-3.08
-4.30
-3.55
-1.35
0.60
1.00
-0.59
-3.40
-5.99
-7.52
-7.61
-7.01
-6.00
-4.94
-3.53
-1.41
1.59
5.45
9.31
12.80
15.35
17.31
18.98
20.41
21.32
20.70
18.06
12.98
6.43
-0.33
-5.43
-7.61
-6.84
-4.10
-1.55
-0.53
-1.84
-4.54
-7.28
-8.65
-8.14
-6.40
-4.40
-3.57
-3.91
-4.96
-5.31
-3.97
-0.92
3.22
6.80
8.92
8.80
6.93
3.86
0.19
-3.87
-8.48
-13.14
-17.18
-18.96
-17.76
-13.74
-8.70
-4.92
-3.78
-5.46
-8.04
-9.66
-8.58
-4.91
0.03
4.44
7.03
8.16
8.41
8.77
8.93
8.40
6.72
4.12
1.59
-0.14
-0.45
0.14
1.18
1.69
1.23
-0.26
-2.38
-4.30
-5.67
-6.13
-6.24
-6.12
-5.95
-5.57
-4.49
-2.84
-0.51
1.84
3.98
5.60
6.84
7.92
8.67
8.85
7.54
4.61
0.33
-3.96
-7.04
-8.22
-7.36
-4.88
-0.88
3.74
7.98
9.98
8.80
4.85
-0.06
-3.35
-3.75
-0.99
3.38
7.89
11.08
12.28
11.61
9.26
5.91
1.53
-3.58
-9.26
-14.60
-18.50
-20.05
-18.78
-15.39
-10.77
-6.40
-3.02
-1.20
-0.70
-0.87
-1.10
-0.46
0.97
3.11
4.96
6.06
6.19
5.66
5.44
5.99
7.87
10.45
13.02
14.44
14.27
12.82
10.75
9.11
7.83
6.71
4.96
2.62
0.11
-1.83
-2.61
-2.28
-0.88
0.94
2.95
4.48
5.25
4.96
3.45
1.09
-1.77
-3.87
-4.76
-4.15
-3.20
-3.43
-5.77
-10.17
-14.84
-18.28
-19.19
-18.10
-15.95
-13.65
-11.51
-8.87
-5.59
-1.74
1.31
2.34
0.30
-4.33
-9.92
-14.22
-14.92
-11.24
-3.47
6.00
14.56
19.77
20.66
17.95
12.98
7.98
3.98
1.80
0.90
0.52
-0.00
-0.92
-1.54
-1.62
-0.88
-0.37
-0.92
-3.05
-6.19
-8.76
-9.55
-8.10
-5.67
-3.45
-2.56
-2.45
-1.79
0.70
5.44
11.02
15.82
17.98
17.46
14.98
11.92
9.51
7.98
7.54
7.57
7.96
8.17
7.95
7.09
5.62
4.15
2.64
1.12
-1.26
-4.49
-7.96
-10.26
-10.19
-7.78
-4.07
-1.07
0.24
-0.60
-2.72
-5.28
-7.69
-9.63
-11.37
-12.63
-13.55
-13.57
-12.68
-10.94
-8.61
-6.09
-3.14
0.00
3.18
5.46
6.29
5.44
3.08
-0.45
-4.99
-9.68
-13.40
-14.34
-11.82
-6.38
-0.05
4.79
6.85
5.86
3.45
1.19
0.59
1.88
4.19
6.42
7.72
8.44
9.08
10.67
13.24
16.34
18.79
19.21
17.11
12.79
7.98
4.02
1.83
0.84
0.06
-1.21
-3.14
-4.89
-6.04
-5.98
-5.07
-3.62
-2.15
-0.99
0.21
1.48
3.05
4.14
4.15
2.46
-0.91
-5.49
-10.46
-14.41
-16.20
-14.73
-10.63
-5.37
-1.18
0.61
0.23
-1.12
-1.45
-0.12
2.79
5.85
7.65
7.42
5.46
3.27
1.84
1.61
1.38
-0.15
-3.62
-8.32
-12.62
-15.11
-14.78
-12.00
-7.39
-2.28
2.44
6.21
9.02
11.18
12.41
12.81
11.89
10.09
7.98
6.29
5.71
6.33
8.19
10.30
11.65
10.86
7.53
2.26
-3.79
-9.25
-13.50
-16.11
-17.19
-16.64
-14.97
-12.53
-9.76
-7.03
-4.26
-1.96
-0.24
0.31
-0.13
-1.32
-2.67
-3.11
-2.07
1.15
5.82
10.74
14.19
15.14
13.57
10.14
6.08
1.96
-1.37
-3.59
-4.29
-3.60
-1.90
0.18
1.94
3.20
3.47
2.96
1.49
-0.64
-3.09
-5.58
-7.36
-8.30
-7.83
-6.35
-4.04
-1.41
1.37
4.51
7.71
10.53
11.58
10.18
6.26
1.19
-3.22
-5.58
-5.39
-3.49
-0.73
1.49
2.58
1.92
-0.44
-4.06
-8.35
-11.93
-14.10
-13.92
-11.65
-7.80
-3.40
0.62
4.00
6.23
7.36
6.92
5.04
1.99
-1.43
-4.37
-6.34
-6.86
-6.30
-4.64
-2.53
-0.30
1.59
2.99
4.17
5.16
6.59
8.23
10.21
11.97
12.98
12.82
11.39
9.42
7.14
4.87
1.90
-2.20
-7.49
-13.26
-18.07
-20.83
-20.71
-18.13
-13.74
-9.06
-5.13
-2.56
-1.33
-0.46
0.44
1.83
3.07
3.80
3.54
2.48
1.67
2.01
4.60
8.70
12.77
14.60
13.18
9.12
4.05
-0.07
-2.83
-4.50
-6.09
-7.82
-9.41
-10.03
-9.04
-6.52
-2.98
0.28
2.56
3.25
2.83
1.99
1.35
1.40
1.75
2.39
2.84
3.29
3.69
4.08
4.35
3.99
3.19
1.86
0.65
-0.22
-0.57
-0.58
-0.70
-0.97
-1.63
-2.40
-3.36
-4.12
-4.48
-4.00
-2.52
-0.29
2.30
4.18
4.90
4.02
2.29
0.74
0.12
0.71
1.53
1.97
1.49
0.77
0.43
0.85
1.88
2.74
3.12
2.40
0.79
-1.57
-3.98
-5.82
-6.89
-7.11
-6.87
-6.03
-4.53
-1.86
1.80
5.98
9.63
11.63
11.63
9.53
6.26
2.50
-0.79
-3.16
-4.49
-4.67
-4.15
-2.87
-1.39
-0.07
0.40
-0.39
-2.24
-4.57
-6.21
-6.95
-6.85
-6.84
-7.35
-8.32
-9.24
-9.46
-8.80
-6.96
-4.32
-1.02
2.37
5.69
8.89
11.65
13.63
13.63
11.09
5.75
-1.06
-7.44
-11.38
-11.57
-8.23
-2.09
4.92
11.31
15.57
17.23
16.40
13.42
8.93
3.23
-2.68
-7.87
-11.16
-12.25
-11.24
-8.73
-5.33
-1.13
2.99
6.21
6.90
4.56
-0.19
-5.55
-9.13
-9.85
-7.47
-3.54
0.71
4.22
7.05
9.67
11.99
13.69
13.67
11.97
8.90
5.66
3.06
1.34
0.46
-0.11
-0.50
-1.32
-2.67
-4.81
-7.25
-9.08
-9.39
-7.42
-3.59
1.44
5.91
8.62
8.56
5.66
0.84
-4.82
-9.63
-12.72
-13.24
-11.46
-8.08
-4.24
-0.96
1.63
3.51
5.21
6.35
6.40
4.64
0.91
-3.94
-8.88
-12.59
-14.72
-15.06
-14.19
-12.38
-9.72
-5.98
-0.94
4.58
9.47
11.92
11.69
9.60
7.51
7.13
8.55
10.77
11.72
10.44
6.94
2.76
-0.21
-0.99
0.42
2.72
4.87
5.98
6.22
5.75
4.72
2.83
-0.42
-4.58
-8.72
-11.00
-10.55
-7.46
-3.29
0.39
2.88
4.28
5.55
6.49
6.79
5.62
2.98
-0.26
-2.98
-3.85
-2.75
0.08
3.27
5.62
6.38
5.68
4.27
2.51
0.55
-2.22
-5.85
-10.03
-13.61
-15.44
-14.79
-11.47
-6.55
-1.35
2.08
2.81
0.84
-2.65
-6.14
-8.92
-10.42
-10.90
-10.09
-8.13
-5.22
-1.74
1.80
5.19
7.66
8.52
6.76
2.67
-2.48
-6.56
-7.58
-4.97
0.63
7.11
12.56
15.26
15.03
12.40
8.29
3.73
-0.84
-4.49
-6.77
-6.86
-4.90
-1.64
1.64
3.42
3.37
1.71
-0.09
-0.95
-0.18
1.76
3.76
4.99
4.92
4.21
3.12
2.04
0.51
-1.96
-5.43
-9.26
-11.99
-12.62
-10.40
-6.39
-1.68
2.35
5.11
6.68
7.15
7.13
6.51
5.92
5.49
5.61
6.36
7.40
8.57
9.17
9.02
7.48
4.56
0.33
-4.68
-9.33
-12.79
-14.18
-13.92
-12.55
-11.24
-10.67
-11.01
-11.73
-11.69
-10.14
-6.45
-1.56
3.38
6.72
7.69
6.41
3.48
0.14
-3.04
-5.03
-5.58
-4.43
-1.76
1.90
6.19
10.18
13.34
14.40
12.88
8.75
2.90
-3.19
-8.25
-11.23
-12.22
-11.37
-9.67
-7.61
-5.55
-3.37
-0.77
2.01
4.81
6.79
8.08
8.88
9.78
11.02
12.08
12.64
12.14
11.10
9.80
8.72
7.73
6.39
4.26
0.86
-3.29
-7.54
-10.52
-11.67
-10.93
-9.04
-7.00
-5.20
-4.08
-3.34
-3.27
-3.45
-3.50
-2.71
-0.54
2.49
5.72
7.74
8.27
7.35
6.04
5.39
5.73
6.70
6.91
5.68
2.84
-0.31
-2.46
-2.67
-1.06
1.35
3.64
4.68
4.49
2.96
0.69
-1.86
-4.19
-5.72
-6.28
-5.23
-2.99
0.15
2.97
4.43
4.05
1.93
-0.96
-3.87
-5.68
-6.26
-5.41
-3.60
-1.26
1.09
2.92
4.41
5.27
5.92
6.10
5.81
4.92
3.29
1.36
-0.83
-2.63
-4.19
-5.46
-6.78
-8.10
-8.96
-9.13
-8.25
-7.02
-5.89
-5.68
-6.42
-7.74
-8.79
-8.57
-6.88
-3.62
0.06
3.34
5.26
5.74
5.14
3.71
2.06
0.22
-1.03
-1.31
-0.14
2.38
5.56
8.60
10.17
9.77
7.16
3.41
-0.28
-2.72
-3.42
-2.64
-0.78
1.30
3.40
4.82
5.26
4.21
1.62
-1.75
-5.00
-6.66
-6.60
-5.02
-3.37
-2.85
-3.82
-5.65
-6.66
-5.74
-2.29
2.59
7.34
10.12
10.00
7.27
2.87
-1.59
-4.97
-6.18
-5.34
-3.06
-0.36
2.08
4.53
7.12
9.97
11.86
11.67
8.50
2.75
-3.84
-9.30
-11.45
-9.67
-4.31
2.37
7.64
9.14
5.78
-1.55
-11.04
-19.79
-25.52
-26.50
-22.92
-16.42
-9.46
-4.04
-0.52
1.52
3.35
5.01
6.19
6.00
3.97
0.80
-2.46
-4.27
-4.33
-2.73
-0.67
0.99
2.33
3.95
7.00
11.46
16.66
20.79
22.40
20.73
16.19
10.30
4.40
-0.30
-3.88
-6.39
-7.91
-7.85
-5.71
-1.67
3.39
7.68
10.27
10.37
8.52
5.30
1.51
-2.18
-5.51
-7.86
-9.27
-9.32
-8.41
-6.77
-4.63
-2.16
0.60
2.74
3.66
2.73
0.78
-0.85
-1.02
0.23
1.54
1.89
0.56
-1.72
-4.27
-6.45
-8.18
-9.43
-9.80
-9.33
-7.97
-6.70
-6.05
-6.11
-5.71
-3.35
1.42
7.63
12.63
14.69
13.33
10.37
7.80
6.75
7.05
7.19
6.28
3.80
0.75
-1.81
-2.83
-2.12
-0.54
1.35
2.79
4.15
5.40
6.53
6.72
4.87
0.43
-6.43
-13.93
-20.06
-22.68
-21.15
-16.13
-9.51
-3.23
1.52
4.18
5.23
4.81
3.48
1.60
-0.06
-0.62
0.23
2.45
4.61
5.75
4.98
2.64
-0.21
-2.54
-3.35
-2.61
-0.26
2.64
5.18
6.29
5.54
3.40
0.54
-2.01
-4.06
-5.26
-5.84
-5.50
-4.05
-1.16
3.18
8.03
12.31
14.36
13.91
11.35
8.08
5.07
2.33
-0.34
-3.50
-6.23
-7.59
-6.58
-3.32
0.97
4.81
6.65
6.34
4.09
1.16
-1.42
-2.94
-3.38
-3.42
-3.73
-5.02
-6.77
-8.28
-8.31
-6.53
-3.16
0.85
4.24
6.54
7.20
6.79
5.64
4.35
3.05
1.57
0.26
-0.58
0.10
2.13
4.55
5.43
3.37
-1.41
-7.36
-11.83
-13.56
-12.38
-9.95
-8.05
-7.85
-9.11
-10.36
-10.32
-8.01
-3.98
1.00
5.62
8.98
10.35
9.38
6.87
3.77
1.57
0.49
0.20
-0.09
-0.68
-0.89
-0.30
1.50
3.54
5.14
5.83
6.15
6.99
8.61
10.94
13.02
14.62
15.36
15.24
13.59
9.51
2.73
-6.05
-14.48
-20.39
-22.30
-20.78
-17.25
-13.11
-9.07
-5.06
-1.41
1.61
3.10
2.93
1.35
-0.80
-2.36
-2.68
-1.18
1.45
4.37
5.96
5.31
2.39
-1.66
-4.73
-5.39
-2.60
2.55
8.20
12.10
12.98
11.24
8.03
5.10
2.82
0.86
-2.06
-6.73
-12.98
-19.30
-23.53
-24.07
-20.41
-14.16
-7.44
-2.43
0.27
1.26
1.55
2.20
2.88
3.22
2.29
0.01
-3.23
-6.49
-8.46
-8.55
-6.39
-3.01
0.41
2.51
2.91
2.22
1.48
1.81
3.18
5.22
6.91
7.86
7.92
7.56
7.34
7.44
8.04
8.42
8.33
7.15
5.19
3.01
1.23
0.47
0.25
0.38
0.22
0.18
0.60
1.80
3.78
5.75
7.39
8.21
8.67
8.90
8.88
7.96
5.37
1.06
-4.54
-10.13
-15.04
-18.64
-20.95
-21.63
-20.27
-16.94
-12.17
-7.55
-4.09
-2.53
-2.24
-2.42
-2.32
-1.47
-0.23
1.26
2.11
2.36
1.85
1.16
1.01
1.92
4.47
8.02
11.93
14.94
16.58
16.93
16.47
15.68
14.30
12.29
9.23
5.54
1.53
-2.43
-6.19
-9.77
-13.02
-16.03
-18.20
-19.21
-18.18
-14.84
-9.38
-2.73
3.51
8.22
10.08
9.08
5.41
0.46
-4.23
-7.20
-7.20
-4.49
0.30
5.20
8.76
10.09
9.60
8.39
7.17
6.30
4.78
2.08
-2.04
-6.71
-10.80
-13.37
-14.07
-13.53
-12.05
-10.16
-7.60
-4.37
-0.40
4.16
8.91
13.78
17.93
20.73
20.85
18.07
12.99
7.36
3.43
2.36
4.60
8.68
13.06
15.97
16.80
15.70
12.97
9.14
4.04
-1.92
-8.25
-13.72
-17.24
-18.21
-16.70
-13.84
-10.69
-8.38
-6.90
-5.78
-3.98
-0.97
2.79
6.45
8.50
8.45
6.09
2.44
-1.55
-5.09
-7.73
-9.72
-10.69
-10.57
-8.77
-5.75
-2.44
-0.18
0.07
-1.35
-3.73
-5.87
-7.48
-8.41
-8.88
-8.88
-8.05
-6.07
-2.53
2.13
7.32
11.60
13.98
13.82
11.29
7.31
2.46
-2.34
-6.87
-10.17
-11.56
-10.40
-6.56
-0.93
5.36
10.42
13.10
12.37
8.65
3.21
-2.33
-6.50
-9.07
-10.14
-10.41
-9.73
-8.02
-5.16
-1.54
2.11
5.40
7.85
9.79
10.89
11.20
10.20
7.45
2.92
-3.13
-9.02
-13.17
-13.64
-10.20
-4.01
2.69
7.63
9.89
9.37
7.40
4.84
2.62
0.89
-0.36
-1.13
-1.57
-1.52
-1.44
-1.44
-2.09
-3.16
-4.31
-5.11
-5.24
-5.33
-5.52
-6.26
-6.71
-6.19
-4.08
-0.42
3.81
7.93
10.89
12.55
12.49
10.71
7.47
3.65
0.79
-0.17
1.18
3.56
5.63
6.04
4.69
2.19
-0.42
-2.13
-2.79
-2.12
-1.04
0.02
0.34
-0.43
-2.15
-4.61
-6.89
-8.65
-9.02
-7.96
-5.45
-1.71
2.70
7.18
10.31
11.20
9.11
4.92
0.14
-3.47
-5.00
-4.91
-4.07
-3.63
-3.84
-4.66
-5.40
-5.73
-5.52
-4.87
-4.17
-3.08
-1.75
0.06
1.76
2.76
2.46
0.58
-2.08
-4.92
-6.55
-6.45
-4.44
-1.11
2.53
5.82
8.24
10.16
11.42
12.03
11.41
9.42
6.32
2.68
-0.59
-3.02
-4.00
-3.81
-2.68
-1.30
0.10
1.72
3.52
5.36
5.97
4.80
1.85
-1.55
-3.78
-4.01
-2.23
0.30
2.73
4.01
3.82
2.11
-0.88
-4.62
-8.85
-12.87
-16.11
-17.49
-16.71
-13.99
-10.34
-6.57
-2.71
1.40
6.08
10.16
12.55
12.21
9.39
5.48
2.00
0.44
0.88
3.07
5.74
7.85
8.74
8.24
6.64
3.89
0.41
-3.56
-6.94
-8.97
-9.20
-7.84
-5.68
-3.11
-0.84
1.19
2.46
2.95
2.49
1.20
-0.46
-2.22
-3.14
-2.95
-1.20
1.49
4.12
5.69
5.64
4.52
2.80
1.22
-0.62
-3.12
-6.82
-11.39
-15.64
-18.20
-17.73
-14.59
-9.82
-5.46
-2.59
-1.34
-0.90
0.06
1.79
4.55
7.61
10.82
13.82
16.52
18.88
20.44
21.13
20.19
17.47
12.71
6.53
-0.16
-6.21
-10.56
-12.90
-13.04
-11.97
-10.36
-9.16
-8.39
-7.57
-6.27
-4.09
-1.88
-0.05
0.78
1.20
1.99
3.89
7.20
10.79
13.52
13.83
11.62
7.49
3.01
-0.55
-2.93
-4.46
-6.01
-7.45
-8.52
-8.25
-6.51
-3.81
-1.40
-0.82
-2.33
-5.61
-8.55
-9.36
-6.81
-1.37
5.09
10.67
13.70
14.29
12.87
10.53
7.73
4.48
0.68
-3.81
-8.33
-12.46
-15.22
-16.30
-15.35
-12.63
-8.65
-4.24
-0.52
2.14
3.26
3.26
2.30
0.82
-0.83
-2.43
-3.23
-3.31
-2.18
-0.17
2.49
5.29
7.59
9.11
9.47
9.15
8.04
6.45
4.24
1.63
-1.18
-4.18
-7.12
-10.09
-12.23
-12.80
-10.82
-6.39
-0.45
5.32
9.11
10.30
8.79
5.97
3.03
1.20
0.71
1.00
1.70
2.16
2.78
3.48
4.31
4.85
4.88
4.57
4.09
4.00
4.12
4.40
4.17
2.90
0.29
-3.36
-6.73
-8.74
-8.52
-6.81
-4.75
-3.57
-3.34
-3.11
-1.66
1.95
6.95
12.11
15.30
15.48
12.46
7.15
1.22
-4.28
-8.20
-10.55
-11.11
-10.37
-8.72
-6.45
-3.91
-1.05
1.46
3.20
3.27
1.65
-1.17
-4.29
-6.57
-7.73
-7.82
-7.86
-8.36
-9.65
-11.05
-11.50
-10.03
-6.20
-0.85
5.05
9.76
12.41
12.63
10.86
8.30
5.91
4.72
4.40
4.79
5.00
4.58
3.40
1.65
0.17
-0.61
-0.05
1.16
2.13
1.59
-1.05
-5.30
-10.09
-13.82
-15.67
-15.05
-12.72
-9.64
-6.78
-4.31
-1.50
2.15
6.91
11.43
14.65
15.61
14.48
12.04
9.00
6.38
4.44
3.88
4.51
5.96
7.31
7.70
6.80
4.47
1.26
-2.55
-6.19
-9.28
-11.28
-11.83
-10.76
-8.00
-4.31
-0.42
2.15
2.79
1.35
-1.36
-4.02
-5.81
-6.06
-5.31
-3.67
-1.65
0.65
3.00
4.69
5.37
4.66
3.24
1.53
0.02
-1.58
-3.82
-6.83
-10.39
-13.52
-15.72
-16.42
-15.81
-13.94
-10.92
-6.67
-1.11
5.04
11.01
14.96
15.91
13.53
8.77
3.37
-1.23
-3.82
-4.43
-3.06
-0.60
2.24
4.87
7.14
9.56
12.10
14.52
15.56
14.59
11.81
8.48
6.08
5.11
5.34
5.56
5.29
4.17
2.65
1.13
0.06
-0.18
0.10
0.66
0.54
-0.32
-1.76
-3.06
-3.44
-2.63
-0.35
2.68
6.00
8.23
8.52
6.25
1.58
-4.62
-11.32
-17.04
-20.94
-22.13
-20.78
-17.31
-12.60
-7.49
-2.51
1.56
4.50
5.63
4.99
2.67
-0.61
-3.79
-6.00
-6.41
-5.37
-3.13
-0.65
1.68
3.44
4.32
4.39
3.47
2.27
1.13
0.77
1.19
1.94
2.08
0.81
-1.53
-4.19
-5.86
-6.47
-6.46
-6.73
-7.23
-6.91
-4.88
-0.88
3.56
6.87
7.72
6.54
4.67
3.43
3.68
4.71
5.63
5.19
3.42
0.96
-1.01
-1.55
-0.68
1.41
3.58
5.07
5.12
3.95
2.43
1.58
2.01
2.84
2.96
1.05
-2.65
-7.14
-10.76
-11.98
-10.19
-5.34
1.14
7.56
11.57
11.97
8.86
3.52
-2.00
-6.24
-8.03
-7.74
-5.98
-3.98
-2.27
-0.73
0.67
1.93
1.90
-0.05
-4.15
-9.01
-12.88
-14.23
-12.63
-9.13
-4.87
-1.30
1.33
2.90
3.88
4.59
5.11
5.88
6.72
7.95
9.08
9.74
9.47
8.45
7.66
7.96
10.10
13.04
15.31
15.01
11.61
5.91
-0.57
-6.23
-10.60
-13.38
-15.19
-16.01
-15.95
-14.66
-11.88
-8.05
-3.87
-1.01
-0.06
-1.24
-3.25
-4.68
-4.42
-1.93
1.90
6.21
9.53
11.11
10.40
7.74
3.91
-0.18
-3.36
-5.16
-5.06
-3.43
-0.67
2.34
4.76
5.99
5.73
4.80
3.67
3.22
3.16
3.09
2.26
0.30
-2.12
-4.42
-5.32
-4.73
-2.82
-0.65
1.02
2.31
3.43
5.12
6.97
8.49
8.68
7.28
4.56
1.22
-1.77
-3.95
-4.71
-4.30
-2.77
-0.76
1.31
2.95
3.89
4.32
3.96
2.83
0.15
-3.99
-8.92
-13.15
-15.00
-14.09
-10.73
-6.71
-3.41
-1.96
-2.17
-2.93
-3.11
-1.79
0.32
2.27
2.77
1.82
0.17
-0.91
-0.47
1.39
4.16
6.67
8.57
9.59
10.24
10.63
10.46
9.12
5.94
1.62
-2.81
-5.57
-5.99
-4.52
-2.31
-0.94
-0.83
-1.87
-2.93
-3.47
-3.28
-2.70
-2.18
-1.41
-0.29
1.48
3.16
4.09
3.61
1.86
-0.49
-2.76
-4.34
-5.41
-5.77
-5.69
-4.85
-3.16
-0.56
2.61
5.27
6.71
5.88
3.28
-0.37
-3.72
-5.58
-5.51
-3.40
-0.23
3.24
5.68
6.64
6.18
4.94
3.85
3.13
2.98
2.80
2.52
1.86
0.88
-0.34
-1.73
-2.97
-4.17
-4.97
-5.71
-6.12
-6.07
-5.18
-3.30
-1.07
0.93
1.44
0.56
-1.40
-3.24
-3.84
-2.66
0.50
4.69
9.18
12.46
13.72
12.33
8.45
2.99
-3.02
-8.21
-11.92
-13.42
-12.88
-10.40
-6.56
-1.98
2.68
6.39
8.81
9.30
8.45
6.88
5.38
4.31
3.24
1.96
0.12
-1.38
-2.03
-1.35
0.21
1.68
2.32
1.51
-0.16
-2.09
-3.09
-2.72
-0.94
1.77
4.88
8.37
11.73
14.59
15.63
14.18
10.22
5.02
0.57
-1.67
-0.97
1.28
3.38
3.28
0.33
-4.67
-10.00
-13.79
-15.39
-14.87
-13.58
-12.31
-11.78
-11.98
-12.50
-13.13
-13.27
-12.86
-11.42
-9.16
-6.34
-3.58
-1.41
0.39
1.93
3.58
4.71
4.71
2.86
-0.70
-5.07
-8.76
-10.01
-8.29
-3.89
1.35
5.84
8.54
9.69
10.13
10.01
9.31
7.14
3.67
-0.39
-3.41
-3.86
-1.18
4.14
9.84
13.62
13.44
9.23
2.28
-5.23
-11.24
-14.71
-15.17
-13.44
-10.43
-7.76
-6.31
-6.51
-7.77
-8.78
-8.80
-7.01
-3.87
0.30
4.64
8.41
11.15
12.45
12.54
11.41
9.73
7.87
6.62
6.25
6.64
7.30
7.27
6.36
4.35
2.03
-0.23
-1.79
-2.39
-2.23
-1.40
-0.74
-0.39
-0.72
-1.12
-1.08
-0.04
2.35
5.38
8.37
9.78
8.90
5.37
-0.07
-6.26
-12.04
-16.36
-18.85
-18.94
-16.97
-13.24
-8.81
-4.56
-1.13
1.02
2.11
1.99
1.36
0.71
0.92
2.66
6.05
10.93
16.15
20.74
23.14
22.66
19.21
13.77
7.83
2.38
-1.94
-5.53
-8.36
-10.50
-11.40
-10.66
-7.99
-3.51
1.79
6.90
10.07
10.74
8.99
5.99
3.04
0.90
-0.03
-0.15
0.55
1.49
2.09
1.54
-0.80
-4.90
-10.35
-15.90
-20.44
-22.54
-21.74
-18.36
-13.52
-8.34
-3.16
1.87
6.84
10.55
11.96
10.25
6.02
1.08
-2.81
-4.27
-3.60
-1.47
0.78
2.47
3.72
5.29
8.17
12.08
15.91
17.66
16.30
11.98
6.34
1.45
-1.24
-1.10
0.63
2.37
2.14
-0.59
-5.02
-9.32
-11.68
-11.87
-10.50
-9.43
-9.61
-11.27
-13.50
-14.92
-14.74
-12.65
-9.65
-6.49
-4.05
-2.11
-0.21
2.06
4.88
7.77
10.46
12.17
12.59
11.13
8.01
4.07
0.50
-1.19
-0.82
1.23
3.18
3.57
1.55
-2.21
-5.83
-7.73
-6.94
-4.55
-2.07
-0.97
-1.35
-2.35
-2.88
-2.20
-0.57
1.90
4.31
6.30
7.22
6.89
5.29
2.42
-1.11
-4.87
-7.61
-8.76
-7.97
-5.77
-3.03
-0.28
1.93
3.62
4.18
3.46
1.35
-1.58
-4.46
-6.67
-7.67
-7.60
-6.29
-4.20
-1.59
0.99
3.19
4.99
6.26
7.32
7.76
7.79
7.26
6.55
6.27
6.93
9.20
12.58
16.35
18.71
18.39
14.74
8.20
-0.04
-8.79
-16.45
-21.83
-23.43
-21.04
-15.53
-9.05
-3.90
-1.16
-0.91
-1.85
-3.21
-4.25
-5.06
-5.64
-5.75
-5.00
-2.57
1.28
6.04
10.06
12.08
11.55
8.86
5.23
1.42
-1.79
-4.34
-5.83
-6.36
-5.96
-4.74
-2.81
0.19
3.85
7.66
10.20
10.86
9.74
7.89
6.84
7.13
9.02
11.69
14.63
17.02
18.30
18.00
15.57
11.03
4.32
-3.62
-11.78
-18.49
-22.85
-24.61
-24.18
-22.41
-19.58
-16.12
-11.91
-7.56
-3.42
0.01
2.45
4.13
4.90
5.06
4.23
2.76
0.71
-1.42
-2.72
-2.63
-0.39
3.41
7.88
11.26
12.44
10.93
7.20
2.48
-2.36
-6.35
-9.40
-11.09
-11.55
-10.76
-8.97
-6.67
-4.20
-2.30
-0.98
-0.73
-1.05
-1.51
-1.45
-0.29
1.75
4.52
6.93
8.69
9.18
8.49
7.12
5.79
5.64
6.91
9.63
12.43
13.98
12.80
8.58
2.26
-4.59
-10.01
-13.25
-14.00
-13.07
-10.96
-8.22
-5.18
-2.11
0.24
1.78
2.10
1.68
0.66
-0.49
-1.39
-1.91
-1.63
-1.22
-0.98
-1.79
-3.70
-6.01
-7.43
-6.65
-3.74
0.45
3.72
4.74
3.07
-0.11
-2.98
-4.34
-4.01
-3.17
-2.64
-2.86
-2.91
-1.86
0.82
4.73
8.61
11.49
12.38
11.60
9.58
7.23
5.15
3.29
1.68
-0.26
-2.25
-4.17
-5.45
-5.84
-5.10
-3.16
-0.67
1.70
2.57
1.45
-1.45
-4.79
-7.12
-7.64
-6.33
-4.08
-1.41
1.15
3.69
5.85
7.06
6.74
4.49
1.02
-3.02
-6.42
-8.77
-9.74
-9.28
-7.26
-3.34
2.00
8.34
14.28
18.99
21.79
22.64
21.75
18.85
13.98
6.93
-1.28
-9.27
-15.19
-18.16
-18.52
-17.37
-16.01
-14.56
-12.85
-10.19
-6.88
-3.74
-1.94
-2.24
-4.07
-6.34
-7.23
-6.30
-3.90
-1.59
-0.58
-0.77
-1.29
-0.66
1.16
3.82
6.14
7.89
9.64
11.98
15.32
18.72
21.24
21.53
19.42
15.02
8.93
1.79
-5.94
-13.05
-18.41
-20.48
-18.82
-13.79
-6.94
-0.25
4.54
6.20
4.99
1.73
-1.70
-3.95
-4.33
-3.25
-1.75
-0.36
0.31
0.59
0.27
-0.70
-2.37
-4.37
-5.57
-5.08
-1.98
2.83
7.87
10.98
11.13
8.68
4.88
1.41
-1.30
-3.22
-5.07
-6.85
-8.25
-8.55
-7.19
-4.39
-0.54
3.01
5.43
5.90
4.71
2.47
-0.15
-2.43
-4.29
-5.14
-5.09
-4.16
-3.06
-2.42
-2.26
-2.36
-1.93
-1.15
-0.35
-0.48
-1.82
-4.22
-7.10
-9.44
-10.57
-9.61
-6.86
-2.99
0.37
2.12
2.10
0.95
0.17
0.21
1.04
1.40
0.51
-1.75
-4.25
-5.13
-3.46
1.10
7.05
12.89
17.18
19.57
20.26
19.33
16.91
12.53
6.60
-0.19
-6.33
-10.58
-12.09
-10.89
-8.01
-4.45
-1.66
0.11
0.78
1.25
2.31
4.18
6.74
8.99
10.54
10.86
10.41
9.51
8.70
8.30
8.03
7.92
7.49
6.96
6.19
5.25
3.81
1.42
-2.04
-6.55
-11.25
-15.48
-18.19
-19.05
-17.91
-15.22
-11.66
-7.69
-4.11
-1.05
0.80
1.43
0.78
-0.78
-2.57
-4.25
-5.02
-4.71
-2.85
0.23
4.05
7.86
10.99
13.49
15.02
15.57
14.21
10.48
4.28
-3.39
-10.60
-15.57
-16.97
-15.09
-10.82
-5.67
-0.64
3.50
6.38
7.92
7.95
7.14
5.79
4.68
3.84
3.00
1.77
-0.25
-2.70
-5.36
-7.32
-8.29
-7.92
-6.18
-3.26
0.72
5.14
9.50
12.38
12.90
10.42
5.31
-1.15
-7.46
-11.92
-13.81
-12.87
-10.05
-6.44
-3.13
-0.60
1.26
2.49
3.38
3.64
3.44
2.60
1.01
-1.51
-4.98
-8.32
-10.48
-10.09
-7.40
-3.66
-0.74
0.18
-0.69
-2.38
-3.10
-2.27
0.09
2.84
4.74
4.98
3.39
0.50
-3.34
-7.08
-10.00
-11.13
-10.30
-7.89
-4.54
-0.84
3.35
7.56
11.32
13.10
12.03
8.11
2.59
-2.11
-4.29
-2.99
0.69
4.90
7.46
7.59
6.15
4.57
4.23
4.74
5.15
4.24
2.01
-0.86
-3.25
-4.31
-4.15
-2.91
-1.59
-0.67
-0.76
-1.78
-3.40
-5.30
-6.83
-8.10
-8.47
-7.79
-5.47
-1.47
3.74
9.46
14.44
18.06
19.35
18.26
14.81
9.78
4.24
-0.92
-4.83
-7.46
-8.65
-9.00
-8.66
-7.97
-6.68
-4.37
-1.07
3.02
6.45
8.31
7.71
5.10
1.32
-2.51
-5.18
-6.36
-5.47
-3.13
0.06
3.10
5.31
6.51
6.54
5.72
3.89
1.64
-0.59
-1.87
-1.80
-0.56
0.91
1.14
-0.40
-3.60
-6.69
-8.22
-7.17
-4.07
-0.49
2.27
3.06
2.13
-0.42
-3.71
-6.97
-9.08
-8.80
-6.08
-1.53
2.69
4.94
4.37
1.88
-0.72
-1.86
-0.76
1.67
4.31
5.89
6.18
5.54
4.68
4.02
3.21
1.81
-0.87
-4.23
-7.23
-8.20
-6.20
-1.66
3.92
8.26
10.31
9.51
6.85
3.25
-0.58
-4.22
-7.59
-10.09
-11.46
-11.08
-9.24
-6.21
-2.58
1.14
4.85
7.98
10.38
11.53
11.51
10.21
7.65
3.92
-0.65
-4.80
-7.59
-8.17
-7.20
-5.76
-4.84
-4.51
-4.06
-3.32
-2.28
-1.92
-2.18
-2.45
-1.52
1.18
4.94
8.39
9.77
9.01
6.49
3.58
0.91
-1.46
-3.50
-5.41
-6.54
-6.77
-5.72
-3.81
-1.22
2.00
5.80
10.27
14.56
18.00
19.39
18.34
14.62
8.65
1.40
-5.92
-11.56
-14.71
-14.99
-13.48
-11.42
-9.78
-8.70
-7.69
-6.61
-5.17
-3.93
-2.78
-1.84
-0.90
0.11
0.91
1.49
1.32
0.71
-0.41
-1.74
-3.15
-4.52
-5.30
-5.28
-3.99
-2.06
-0.20
0.44
-0.51
-2.55
-4.76
-5.88
-5.71
-4.23
-2.11
0.20
2.21
3.68
4.46
4.36
3.90
3.39
3.82
5.28
7.58
9.57
9.85
7.82
3.34
-2.05
-6.72
-9.06
-8.81
-6.76
-4.03
-1.66
0.47
2.20
3.52
3.66
2.16
-0.60
-3.45
-4.56
-3.32
0.03
3.69
6.03
5.94
3.79
0.99
-0.99
-0.85
1.00
3.72
5.77
6.48
5.78
4.07
2.21
0.40
-0.74
-1.23
-0.95
-0.20
0.75
1.98
3.47
5.50
7.13
7.31
4.69
-0.75
-7.81
-14.43
-18.30
-18.28
-14.13
-7.44
-0.17
5.38
8.24
8.65
7.51
6.14
4.63
2.94
0.37
-3.00
-6.74
-9.87
-11.17
-10.35
-7.20
-2.91
1.43
4.64
6.39
6.95
6.62
5.78
4.08
1.84
-0.61
-2.17
-2.20
-0.61
1.81
3.70
4.41
3.63
2.41
1.35
1.12
1.51
1.86
1.84
1.19
0.74
0.77
1.67
2.75
3.27
2.93
1.78
0.90
0.54
0.81
0.68
-0.62
-3.41
-7.18
-10.57
-12.61
-12.40
-10.25
-6.52
-2.27
1.75
5.04
7.35
9.03
9.79
9.80
8.49
6.15
3.09
0.13
-1.74
-2.37
-1.56
-0.18
1.46
2.75
3.66
4.43
5.13
6.26
7.64
9.35
10.60
10.72
8.78
4.33
-2.09
-9.42
-15.83
-20.20
-21.60
-20.38
-17.05
-12.44
-7.32
-2.16
2.28
5.91
8.08
8.89
8.09
5.77
2.39
-1.45
-4.45
-6.21
-6.38
-5.77
-5.12
-4.74
-4.41
-3.36
-1.66
0.61
2.38
3.24
2.91
1.74
0.34
-0.85
-1.30
-1.13
-0.05
1.66
3.94
6.27
8.11
9.11
9.09
8.87
8.80
9.47
10.46
11.24
11.16
9.73
7.31
3.99
0.64
-2.39
-4.66
-6.25
-7.41
-8.09
-8.50
-8.21
-7.56
-6.63
-5.96
-5.80
-6.27
-7.54
-9.40
-11.81
-13.89
-15.06
-14.47
-12.20
-8.73
-4.83
-1.37
1.67
4.02
6.06
7.64
8.89
9.77
10.21
10.36
9.71
8.52
6.76
5.14
4.29
4.58
5.91
7.32
8.12
7.40
5.29
2.10
-1.33
-4.56
-7.41
-9.61
-10.87
-10.35
-8.20
-5.05
-2.58
-1.97
-3.27
-5.47
-6.68
-6.17
-3.78
-0.57
2.47
4.58
5.47
5.50
4.80
4.18
3.77
3.72
3.76
3.73
3.72
3.85
4.60
5.50
6.04
5.01
1.92
-2.90
-7.93
-11.21
-11.31
-7.72
-1.95
4.05
8.00
9.07
7.60
4.65
1.78
-0.51
-1.66
-2.04
-1.96
-2.08
-2.86
-4.08
-5.36
-5.46
-4.01
-0.87
3.03
6.57
8.68
8.51
6.19
2.03
-2.67
-6.96
-9.92
-11.47
-11.88
-11.59
-10.99
-9.84
-8.21
-5.84
-3.38
-1.41
-0.59
-1.02
-1.69
-1.92
-0.93
0.68
2.08
2.43
1.76
1.23
1.99
4.97
9.07
12.48
13.07
10.40
5.87
1.82
0.20
0.86
2.57
3.53
3.47
3.02
3.58
5.76
8.85
11.62
12.59
11.85
9.92
8.11
6.72
5.09
2.44
-1.85
-6.81
-11.32
-13.91
-14.25
-12.49
-9.23
-5.34
-1.17
2.41
5.15
6.42
6.27
4.77
2.14
-1.31
-5.40
-9.20
-11.86
-12.23
-10.30
-6.73
-2.93
-0.04
1.88
3.19
5.00
7.03
8.70
8.64
6.15
1.75
-3.27
-6.92
-8.59
-8.00
-6.18
-3.81
-1.24
1.45
4.45
7.02
8.72
8.75
7.42
5.36
3.49
2.58
2.53
3.11
3.19
2.08
-1.02
-5.77
-11.13
-15.48
-17.36
-16.48
-13.20
-9.26
-5.99
-4.69
-5.40
-7.22
-8.70
-8.19
-5.76
-2.21
0.25
0.13
-2.90
-7.37
-10.47
-10.24
-5.65
1.87
10.22
17.19
21.85
24.51
25.78
26.27
25.41
22.63
17.16
9.38
0.40
-7.86
-13.42
-15.21
-13.13
-8.90
-4.39
-1.70
-1.44
-3.13
-5.53
-7.23
-7.94
-7.55
-6.91
-6.21
-5.71
-5.30
-4.54
-3.53
-2.02
-0.45
1.22
2.84
4.51
6.41
8.56
11.17
13.57
15.21
15.00
12.76
8.88
4.47
0.59
-2.38
-4.26
-5.34
-5.19
-3.91
-1.68
0.53
1.57
0.98
-1.12
-3.26
-4.34
-3.44
-1.08
1.54
3.53
4.60
5.87
7.85
10.43
11.86
10.35
5.24
-2.32
-9.50
-14.17
-15.37
-14.20
-12.26
-10.92
-10.39
-9.99
-9.01
-6.98
-4.45
-1.83
0.06
1.19
1.65
1.50
0.84
-0.75
-2.89
-5.18
-6.53
-6.66
-5.91
-4.85
-3.83
-2.13
0.44
3.57
5.62
5.23
2.31
-1.59
-3.96
-3.34
0.34
5.23
9.44
11.30
10.86
9.22
7.71
7.27
7.40
7.53
6.81
5.63
4.52
3.90
3.89
4.01
4.49
5.46
7.49
10.11
12.24
12.37
9.39
3.70
-3.48
-9.87
-14.10
-15.65
-15.53
-15.19
-15.46
-16.06
-15.47
-12.71
-7.41
-1.20
4.26
7.76
9.14
9.33
8.75
7.98
6.78
5.49
4.19
2.98
1.79
0.24
-1.28
-2.55
-2.77
-2.06
-1.03
-0.84
-2.41
-5.55
-9.46
-12.57
-14.10
-13.69
-12.07
-9.81
-7.23
-4.15
-0.19
4.23
8.85
12.56
15.10
16.20
15.88
14.42
11.71
8.24
4.17
0.40
-2.63
-4.30
-4.42
-3.21
-0.92
1.43
3.29
3.66
2.22
-1.14
-5.90
-10.72
-14.15
-14.67
-12.38
-8.32
-4.71
-3.11
-3.90
-6.01
-7.62
-7.71
-5.82
-3.03
-0.26
1.53
2.23
2.35
2.44
3.28
4.44
5.44
4.95
2.49
-1.64
-5.89
-7.96
-6.64
-1.49
5.73
13.01
18.31
20.78
20.59
18.21
14.59
10.23
6.16
2.78
0.30
-1.90
-4.64
-8.16
-12.24
-15.69
-17.79
-17.79
-15.76
-11.88
-6.81
-1.79
1.96
3.34
2.93
1.85
1.86
3.49
6.04
8.27
8.88
8.14
6.42
4.74
3.10
1.29
-0.78
-2.75
-3.33
-1.91
1.76
6.10
9.53
10.78
9.95
8.38
7.14
6.88
6.75
5.96
3.70
0.30
-3.27
-5.85
-6.59
-5.76
-3.91
-2.39
-1.71
-2.21
-3.42
-4.87
-6.39
-7.42
-8.02
-7.54
-6.20
-4.36
-2.87
-2.34
-2.50
-2.91
-2.37
-0.98
0.78
1.65
0.96
-0.93
-2.97
-3.73
-3.15
-1.89
-1.69
-3.47
-7.07
-10.97
-13.13
-12.41
-8.62
-3.32
2.03
5.83
7.77
8.03
7.06
5.67
4.04
2.72
1.38
0.06
-1.51
-3.00
-3.57
-2.83
-0.36
2.76
5.50
6.70
6.51
6.03
6.54
8.89
12.10
14.62
14.46
11.17
5.60
-0.22
-4.42
-6.25
-5.85
-4.38
-2.34
-0.32
1.80
3.65
4.71
4.45
2.34
-0.86
-4.54
-7.14
-7.86
-6.38
-3.21
0.22
2.78
3.31
2.14
-0.01
-1.55
-1.35
0.86
4.50
7.91
9.83
9.09
6.01
1.44
-3.26
-7.08
-9.56
-10.37
-9.68
-7.27
-4.08
-1.15
-0.08
-1.64
-5.24
-9.37
-11.63
-11.12
-7.67
-2.84
1.68
4.58
5.34
4.66
3.11
1.64
0.13
-1.41
-3.08
-4.53
-5.18
-5.06
-4.39
-4.22
-4.66
-5.56
-5.90
-4.82
-1.99
2.22
6.47
9.78
11.01
10.39
8.57
6.78
5.84
5.76
6.48
7.02
7.16
6.30
4.46
1.94
-0.50
-1.79
-1.63
0.07
2.20
3.98
4.53
3.54
1.18
-2.06
-4.90
-6.71
-6.98
-6.55
-6.36
-7.34
-9.37
-11.28
-11.80
-9.81
-5.80
-0.70
3.84
7.25
9.56
11.10
12.14
11.83
9.62
4.96
-1.12
-7.17
-11.37
-12.52
-10.70
-6.42
-1.32
3.40
6.46
7.63
7.35
6.42
5.84
5.58
5.44
4.45
2.36
-0.81
-4.24
-7.00
-8.34
-7.72
-5.59
-2.30
0.95
3.68
5.64
6.92
7.58
6.98
4.95
1.25
-2.74
-5.48
-5.36
-1.94
3.54
9.28
12.86
13.33
10.49
5.76
0.67
-3.70
-6.93
-9.53
-11.58
-13.19
-13.56
-12.11
-8.29
-2.58
3.65
8.68
10.92
10.45
8.18
6.03
4.92
4.75
4.61
3.50
1.75
-0.26
-1.61
-2.59
-3.62
-5.05
-6.52
-6.86
-5.52
-2.23
1.64
4.92
6.61
6.82
6.24
5.14
3.46
0.24
-4.45
-9.99
-14.65
-17.03
-16.60
-13.87
-10.11
-6.17
-3.14
-1.08
-0.35
-0.58
-1.40
-2.41
-2.89
-2.66
-1.19
1.06
3.67
5.69
6.65
6.96
7.21
8.43
10.32
12.03
11.82
8.71
2.79
-4.36
-10.21
-12.93
-11.57
-7.21
-1.55
3.29
6.18
6.80
5.53
3.44
1.10
-0.69
-2.06
-2.93
-3.43
-3.44
-2.64
-1.42
-0.09
0.31
-0.39
-2.02
-3.56
-3.75
-2.18
1.09
4.93
8.52
10.93
11.85
11.00
8.36
4.38
-0.40
-4.96
-8.81
-11.22
-12.07
-11.01
-8.04
-3.55
1.70
6.30
9.47
10.62
10.43
9.63
8.74
7.81
6.47
5.21
4.28
4.14
4.00
2.69
-0.52
-5.04
-8.85
-10.34
-8.76
-5.56
-2.67
-1.76
-2.84
-4.67
-5.98
-6.14
-6.03
-6.21
-6.92
-7.15
-5.98
-3.37
-0.44
1.23
1.37
0.42
-0.06
0.52
1.92
3.06
2.87
1.66
0.25
-0.09
0.25
0.12
-1.92
-5.75
-9.37
-10.62
-7.99
-2.58
3.65
8.40
10.85
11.23
10.15
8.29
5.77
3.44
1.79
1.42
1.80
1.78
0.25
-3.07
-6.77
-9.43
-9.81
-8.60
-7.06
-6.31
-6.43
-6.63
-6.43
-5.43
-4.28
-2.97
-1.60
0.00
1.67
2.75
3.08
2.40
1.43
0.40
-0.20
-0.29
0.31
2.19
5.37
10.02
15.04
19.29
21.29
20.41
17.04
12.18
7.34
2.97
-0.67
-4.04
-7.08
-9.70
-11.58
-12.37
-12.00
-10.05
-6.71
-2.16
2.46
6.10
7.67
6.77
4.03
0.43
-2.36
-3.82
-3.81
-3.39
-3.58
-4.65
-6.28
-7.27
-7.21
-5.91
-4.14
-2.30
-0.52
1.40
3.82
6.00
7.00
5.38
1.12
-4.60
-9.42
-11.38
-10.01
-6.22
-1.98
1.57
3.74
4.97
5.26
4.57
2.73
-0.09
-2.63
-3.93
-3.04
-0.72
1.54
2.10
0.42
-2.19
-4.02
-3.11
0.70
6.68
13.08
18.20
20.92
20.69
18.14
14.04
9.69
5.60
2.00
-1.23
-3.91
-5.34
-5.23
-3.60
-1.69
-0.55
-1.04
-2.73
-4.60
-5.64
-5.12
-3.77
-2.18
-1.23
-0.88
-1.09
-1.96
-3.65
-6.50
-9.59
-11.93
-12.22
-10.41
-7.32
-4.25
-2.20
-1.14
-1.06
-1.67
-3.46
-6.48
-10.53
-14.36
-16.14
-14.58
-9.37
-2.15
4.99
9.73
11.57
11.22
10.09
9.49
9.39
9.59
9.36
8.96
8.97
10.18
12.73
15.39
16.95
16.09
13.11
8.93
5.01
2.07
-0.20
-2.51
-5.87
-10.16
-14.90
-18.81
-21.11
-21.28
-19.45
-16.17
-11.99
-7.92
-4.36
-1.91
-0.35
0.57
1.10
1.37
1.13
0.78
0.26
0.00
-0.41
-1.39
-3.11
-5.25
-6.47
-5.84
-2.46
2.96
9.29
14.97
18.98
21.20
21.65
20.77
18.25
14.06
7.94
0.36
-7.61
-14.39
-18.15
-18.13
-14.40
-8.65
-2.64
1.97
4.59
5.38
4.78
3.78
2.51
1.31
-0.30
-2.17
-4.02
-5.19
-4.84
-3.04
0.13
3.54
6.54
8.45
9.31
9.64
9.66
9.54
8.37
5.70
1.13
-4.26
-8.86
-11.17
-10.46
-7.59
-4.10
-1.95
-1.72
-3.03
-4.16
-3.67
-1.18
2.66
6.06
7.92
7.26
4.39
-0.32
-5.93
-11.18
-14.69
-14.82
-11.53
-5.76
-0.16
3.19
3.56
2.11
1.16
1.91
4.44
6.94
8.04
7.09
4.85
2.60
1.06
0.27
-0.83
-2.66
-5.31
-7.44
-7.59
-5.06
-0.62
3.25
4.49
2.12
-1.94
-4.98
-4.55
-0.72
4.09
7.09
6.35
2.88
-1.31
-3.60
-3.21
-0.93
1.74
3.33
4.02
4.23
5.11
6.81
9.29
11.93
13.90
14.70
13.73
11.40
7.96
4.16
0.10
-4.04
-7.74
-10.10
-9.82
-7.11
-3.13
-0.45
-0.58
-3.48
-7.15
-8.94
-7.57
-3.20
1.86
5.73
7.04
6.13
3.85
0.80
-2.47
-6.26
-9.98
-13.31
-15.30
-15.49
-13.61
-9.77
-4.72
0.96
6.06
10.06
12.23
12.48
10.77
7.09
2.01
-3.78
-8.83
-12.11
-12.62
-10.71
-7.26
-3.64
-0.84
1.26
2.92
4.89
6.60
7.55
7.00
4.81
1.71
-1.71
-4.36
-5.94
-5.95
-4.71
-2.64
-0.26
1.94
4.12
5.99
7.55
8.04
7.21
4.67
0.62
-4.26
-9.04
-12.16
-12.92
-10.86
-7.04
-2.66
0.83
2.58
2.71
1.60
0.59
0.32
1.47
3.45
5.04
5.00
2.63
-1.02
-4.44
-5.63
-4.10
-0.45
3.50
5.77
5.32
2.09
-2.30
-5.91
-6.63
-4.09
0.79
5.86
9.01
9.73
8.24
6.17
4.33
3.34
2.82
2.43
2.59
3.99
7.66
12.84
17.59
18.95
15.26
7.15
-2.65
-10.69
-15.10
-15.59
-13.74
-10.83
-7.78
-4.51
-0.79
3.15
6.80
8.92
8.93
6.38
2.21
-2.14
-5.17
-5.64
-3.95
-0.85
2.06
4.00
4.63
4.39
3.92
3.47
3.18
2.37
0.74
-1.95
-5.20
-8.73
-12.30
-15.85
-19.07
-20.83
-20.22
-16.60
-11.07
-5.30
-1.14
0.60
0.60
-0.15
-0.31
0.15
1.00
1.49
1.34
1.00
0.93
1.91
3.86
6.65
9.57
11.88
12.82
11.77
8.75
4.05
-1.18
-6.01
-9.26
-10.65
-10.39
-9.19
-7.71
-6.09
-4.43
-2.29
-0.13
1.81
2.86
2.76
1.83
0.50
-0.26
-0.24
0.97
2.92
5.13
7.24
9.06
11.09
13.29
15.55
16.88
16.46
13.86
9.56
4.78
0.60
-2.15
-3.74
-4.63
-5.59
-6.81
-8.12
-8.94
-8.84
-8.01
-6.81
-6.17
-6.26
-7.04
-7.99
-8.72
-9.28
-9.62
-10.22
-10.70
-10.90
-10.22
-8.38
-5.47
-1.63
2.52
6.55
9.66
11.43
11.61
10.56
8.98
7.59
6.98
7.03
7.41
7.18
5.81
2.97
-0.64
-3.85
-5.48
-4.95
-2.80
0.03
2.26
3.35
3.02
1.45
-1.15
-4.64
-8.57
-12.64
-16.39
-19.74
-22.53
-24.89
-26.97
-29.11
-31.64
-34.74
-38.69
-43.48
-49.13
-54.94
-60.06
-63.59
-65.30
-65.64
-65.27
-65.11
-65.81
-67.81
-70.81
-74.19
-77.04
-79.36
-81.56
-83.97
-86.30
-87.05
-84.00
-74.79
-58.46
-35.78
-9.92
15.95
38.44
55.10
64.21
63.96
53.37
33.75
14.14
2.10
3.07
18.57
45.16
75.41
97.55
102.29
80.77
31.39
-41.58
-129.30
-221.81
-310.64
-389.84
-455.41
-505.76
-539.28
-554.24
-550.52
-529.49
-493.70
-445.92
-389.46
-327.16
-261.02
-192.48
-122.76
-54.02
11.06
69.43
118.46
156.28
182.38
197.49
203.16
201.38
194.10
182.85
168.67
152.57
135.33
118.02
101.72
87.54
76.25
69.08
66.75
69.29
76.33
86.83
99.69
113.72
127.97
141.89
157.34
176.30
200.17
229.47
263.33
299.97
337.11
372.42
404.15
434.89
467.47
504.16
545.89
591.73
639.76
688.11
735.49
781.17
828.20
877.45
926.60
971.04
1005.92
1028.29
1038.32
1038.06
1001.32
911.52
761.63
558.38
321.30
75.92
-154.96
-356.41
-522.65
-654.54
-752.42
-818.49
-856.25
-870.56
-867.41
-853.24
-833.70
-813.00
-793.17
-771.67
-745.83
-714.23
-678.03
-638.91
-599.09
-560.21
-523.02
-486.97
-449.38
-408.39
-363.86
-317.02
-269.44
-222.49
-176.31
-130.00
-81.58
-29.40
26.45
83.87
139.55
190.02
232.00
263.41
279.55
279.59
266.36
245.48
223.18
203.14
184.61
161.83
127.58
77.19
12.72
-57.82
-123.81
-176.70
-213.28
-234.94
-245.54
-247.09
-238.45
-215.88
-176.74
-123.41
-63.94
-10.35
26.65
41.21
35.70
19.73
6.70
8.51
31.04
73.76
129.94
190.57
245.13
283.96
299.64
288.54
252.50
198.82
141.11
95.37
75.68
87.89
127.70
182.64
237.03
278.07
298.44
299.07
279.04
240.91
187.42
121.08
46.12
-29.93
-90.96
-127.56
-135.50
-116.79
-78.02
-29.62
14.83
44.43
53.11
41.80
16.33
-13.24
-38.12
-53.49
-60.56
-64.77
-71.60
-83.91
-100.89
-120.81
-141.91
-164.26
-188.18
-212.05
-230.78
-235.84
-219.76
-180.52
-125.02
-66.62
-20.37
3.40
3.45
-12.58
-31.88
-43.38
-42.14
-30.86
-15.91
-2.73
6.83
14.50
22.02
29.12
31.98
25.84
8.24
-18.29
-46.37
-66.91
-72.63
-61.65
-37.72
-8.99
15.50
28.91
28.58
16.46
-3.09
-25.14
-46.80
-67.30
-87.08
-106.22
-123.09
-134.56
-136.69
-126.72
-104.04
-71.91
-37.46
-10.12
1.34
-6.71
-30.40
-57.97
-74.89
-69.92
-40.76
5.19
55.14
97.25
126.01
142.40
150.75
153.61
150.11
137.45
115.04
87.42
62.59
48.49
48.01
58.03
71.18
79.75
78.77
66.87
45.63
17.91
-12.13
-39.63
-59.03
-65.83
-58.84
-41.77
-23.40
-13.81
-20.30
-42.92
-74.36
-102.89
-117.63
-113.19
-91.13
-58.56
-23.86
6.46
30.03
47.98
63.28
78.60
94.94
111.78
124.87
130.16
123.99
104.68
74.06
37.70
3.11
-23.55
-39.64
-45.62
-45.21
-42.82
-41.93
-44.11
-49.02
-54.48
-57.89
-57.12
-52.60
-45.72
-38.51
-31.96
-24.57
-12.83
7.31
37.89
77.56
121.23
161.68
190.89
202.11
191.83
160.44
112.79
56.67
0.93
-48.64
-87.31
-113.33
-127.98
-134.18
-135.77
-135.83
-136.50
-137.83
-138.07
-133.48
-119.62
-93.92
-57.12
-14.19
26.31
55.87
70.09
70.26
61.93
51.08
39.98
27.14
9.16
-15.19
-42.74
-66.70
-79.94
-78.75
-64.62
-43.53
-21.76
-2.95
13.30
29.71
47.85
65.40
75.56
70.54
45.50
2.80
-47.77
-91.96
-116.37
-114.33
-88.33
-48.85
-9.32
18.78
30.23
26.49
14.08
1.96
-1.85
8.32
34.42
74.92
124.33
174.19
214.89
238.19
240.12
221.48
187.20
144.36
100.47
61.59
31.60
11.70
0.60
-3.66
-3.14
1.27
10.33
26.17
50.24
80.22
109.74
129.13
130.37
113.62
84.25
50.28
19.20
-5.05
-22.08
-34.62
-47.33
-63.49
-83.42
-103.98
-119.18
-122.70
-110.37
-82.27
-42.65
1.29
41.88
72.84
90.31
93.08
81.94
58.98
26.11
-14.66
-61.28
-110.47
-157.44
-196.48
-221.64
-228.67
-215.70
-184.87
-142.45
-98.37
-64.17
-49.97
-61.14
-94.79
-140.52
-183.01
-207.83
-206.46
-178.66
-131.80
-77.10
-25.60
15.15
41.44
53.47
54.21
48.89
43.97
44.94
54.32
70.16
87.63
101.34
108.42
109.38
106.94
103.60
99.08
90.90
76.93
58.76
42.34
35.89
44.77
67.60
96.77
121.77
134.70
134.10
124.86
114.47
108.25
106.50
104.95
98.10
82.28
56.93
24.98
-8.87
-39.99
-65.59
-85.06
-100.28
-114.76
-132.98
-160.01
-198.49
-247.07
-299.90
-348.35
-383.49
-399.46
-395.27
-368.25
-322.01
-263.91
-202.22
-142.96
-88.90
-40.49
1.78
36.49
62.03
76.67
81.29
79.02
74.13
70.28
70.01
74.40
83.59
96.79
110.06
118.84
118.21
104.68
78.09
42.59
5.66
-24.36
-40.17
-39.72
-25.77
-3.99
20.07
43.03
63.79
82.36
98.46
111.03
118.20
118.85
113.24
103.23
91.79
81.80
75.13
72.05
71.59
71.64
70.18
65.91
58.48
47.97
34.39
18.23
0.28
-17.09
-30.12
-34.95
-29.57
-15.36
2.97
18.86
26.58
23.69
11.81
-5.09
-22.96
-39.35
-53.57
-65.41
-74.19
-78.31
-76.29
-67.94
-54.56
-39.17
-25.18
-15.16
-9.41
-6.24
-2.70
3.55
13.26
25.34
36.98
45.35
48.84
48.14
45.66
44.64
47.37
54.75
66.74
82.17
99.22
115.21
126.96
131.14
125.57
110.34
86.69
59.67
34.42
13.58
-3.92
-21.87
-42.86
-65.88
-85.83
-95.92
-90.71
-69.86
-37.69
-3.22
24.16
38.77
40.16
32.30
20.54
9.24
-0.35
-8.92
-17.64
-26.48
-33.87
-37.97
-37.87
-34.37
-29.26
-24.97
-23.03
-23.72
-25.98
-28.12
-28.83
-27.74
-25.54
-23.32
-22.19
-22.43
-23.65
-24.95
-25.49
-25.09
-24.14
-23.73
-24.55
-27.01
-30.24
-32.50
-31.33
-24.13
-10.07
9.47
30.32
46.92
54.06
49.95
37.54
23.48
14.96
15.90
25.15
37.08
45.18
44.95
35.47
18.51
-3.44
-28.00
-52.55
-72.82
-83.40
-79.95
-62.40
-36.37
-10.98
5.25
9.49
5.47
1.27
3.89
15.32
31.92
46.92
54.92
54.26
47.65
39.35
32.64
28.83
27.98
30.50
37.69
51.07
69.81
89.86
103.96
104.46
86.86
51.85
5.47
-43.86
-88.59
-124.49
-150.62
-167.81
-176.92
-178.26
-172.52
-161.84
-150.14
-141.66
-138.99
-141.51
-145.16
-144.67
-135.76
-116.97
-89.93
-58.17
-25.38
5.89
34.48
60.18
82.80
101.90
116.69
126.57
131.31
131.39
127.88
122.10
115.31
108.29
101.30
94.18
86.68
78.64
70.20
61.78
53.87
46.85
40.81
35.61
30.91
26.41
21.96
17.60
13.53
9.95
6.98
4.55
2.51
0.66
-1.14
-2.94
-4.66
-6.20
-7.47
-8.42
-9.10
-9.57
-9.91
-10.18
-10.40
-10.57
-10.68
-10.72
-10.67
-10.55
-10.36
-10.12
-9.81
-9.47
-9.03
-8.55
-8.05
-7.55
-7.06
-6.58
-6.13
-5.71
-5.31
-4.93
-4.59
-4.27
-3.99
-3.73
-3.48
-3.25
-3.05
-2.86
-2.68
-2.52
-2.38
-2.24
-2.12
-1.99
-1.89
-1.79
-1.71
-1.62
-1.55
-1.48
-1.41
-1.34
-1.28
-1.23
-1.19
-1.15
-1.12
-1.08
-1.04
-0.99
-0.94
-0.90
-0.87
-0.86
-0.87
-0.88
-0.87
-0.84
-0.79
-0.73
-0.66
-0.62
-0.61
-0.65
-0.75
-0.88
-1.03
-1.15
-1.23
-1.27
-1.29
-1.31
-1.36
-1.46
-1.59
-1.73
-1.85
-1.92
-1.95
-1.90
-1.83
-1.76
-1.79
-2.01
-2.41
-2.86
-3.11
-2.95
-2.29
-1.35
-0.55
-0.39
-1.15
-2.76
-4.76
-6.52
-7.52
-7.57
-6.95
-6.30
-6.26
-7.30
-9.38
-12.00
-14.40
-15.81
-15.87
-14.83
-13.48
-12.85
-13.75
-16.36
-20.11
-23.84
-26.48
-27.21
-26.07
-23.76
-21.36
-20.08
-21.03
-25.05
-32.09
-40.50
-46.73
-46.09
-34.70
-11.54
20.29
54.31
83.33
102.41
110.70
111.14
108.11
105.10
103.54
103.26
103.82
105.08
106.73
107.22
103.49
92.07
71.16
42.44
10.77
-17.25
-36.15
-43.49
-40.52
-30.95
-19.29
-9.12
-2.53
-0.13
-1.72
-6.95
-14.91
-23.52
-29.29
-28.29
-18.19
-0.52
18.84
31.73
31.35
15.94
-10.08
-38.28
-60.47
-72.53
-75.72
-74.65
-73.82
-75.04
-77.19
-77.84
-75.85
-72.26
-69.70
-70.66
-76.38
-85.99
-96.97
-105.33
-106.66
-97.41
-76.12
-44.53
-7.51
28.34
56.86
74.61
81.29
79.93
74.57
68.03
61.08
53.20
43.99
34.20
25.54
19.84
17.81
18.55
20.21
20.97
19.88
17.33
14.49
12.58
12.24
13.19
14.36
14.80
14.15
12.90
12.08
12.62
14.65
17.38
19.44
19.63
17.73
14.73
12.48
12.74
16.19
21.91
27.72
31.31
31.20
27.67
22.70
18.94
18.68
22.83
30.90
41.02
50.32
55.40
52.82
39.98
15.81
-17.51
-54.52
-86.84
-105.62
-105.24
-86.30
-56.20
-26.07
-6.00
-0.64
-8.11
-22.50
-38.34
-53.90
-70.83
-90.70
-111.24
-125.45
-124.37
-103.00
-64.23
-18.62
20.56
43.60
48.53
40.89
29.74
22.78
23.35
30.42
40.25
47.90
48.68
38.81
16.96
-14.44
-48.40
-75.27
-86.61
-78.63
-53.63
-18.78
18.39
52.10
79.23
98.28
107.63
105.60
91.67
69.38
45.55
28.07
22.09
27.50
39.36
50.38
54.74
49.80
36.95
19.96
3.16
-10.36
-19.29
-23.86
-25.49
-25.73
-25.63
-25.72
-26.22
-27.03
-27.55
-26.55
-22.61
-15.41
-6.62
0.03
0.49
-7.41
-22.48
-39.88
-53.37
-58.06
-52.71
-40.17
-25.94
-15.24
-11.06
-13.09
-18.11
-21.45
-18.95
-8.77
8.63
28.26
44.18
52.22
51.41
44.11
34.32
25.33
18.31
12.44
6.26
-0.56
-6.75
-10.37
-10.19
-6.60
-1.56
2.41
3.30
0.61
-4.46
-9.83
-13.58
-14.73
-13.63
-11.57
-10.17
-10.59
-13.15
-17.13
-21.39
-24.88
-27.10
-28.27
-29.06
-30.29
-32.48
-35.93
-40.22
-44.81
-49.27
-53.44
-57.41
-61.39
-65.56
-69.93
-74.31
-78.35
-81.71
-84.13
-85.36
-85.21
-83.33
-79.46
-73.02
-63.64
-51.30
-36.50
-20.07
-2.99
13.94
30.45
46.56
62.57
78.68
94.59
109.33
121.49
129.57
132.69
131.16
126.05
118.95
111.40
104.22
97.29
89.71
80.68
69.96
58.70
48.66
41.93
40.25
44.76
55.98
73.56
95.67
116.92
131.64
133.77
119.50
89.62
49.86
9.18
-23.97
-44.94
-53.99
-54.71
-51.76
-48.08
-44.32
-39.83
-34.13
-27.88
-22.71
-20.08
-20.01
-21.30
-22.12
-20.77
-16.69
-10.59
-4.04
1.29
4.38
5.46
5.56
6.05
8.04
11.74
16.47
21.05
23.98
24.17
21.38
15.78
7.87
-1.83
-12.97
-25.37
-38.87
-53.06
-67.16
-79.81
-89.46
-94.66
-94.41
-88.34
-76.82
-60.75
-40.85
-19.31
2.03
21.66
38.34
51.11
59.33
62.69
61.36
55.73
46.41
34.42
20.84
6.78
-6.80
-19.10
-29.70
-38.29
-44.93
-50.07
-54.21
-57.83
-61.36
-65.07
-68.86
-72.44
-74.94
-75.36
-72.77
-66.39
-55.82
-41.19
-23.34
-2.54
18.86
39.15
56.98
71.35
81.65
87.51
89.17
86.72
80.58
71.44
60.54
49.33
39.16
31.02
25.61
23.37
23.81
26.33
30.31
35.69
42.55
50.88
60.50
71.13
82.33
92.30
99.69
104.19
106.88
109.58
113.97
121.15
131.32
143.91
155.24
162.09
163.10
159.34
153.03
146.16
139.36
131.55
121.90
104.96
76.45
35.57
-14.33
-67.60
-118.99
-165.08
-204.69
-238.41
-272.78
-313.47
-362.89
-419.75
-481.10
-544.03
-605.47
-660.82
-675.09
-626.21
-514.94
-366.17
-213.25
-81.57
17.43
84.44
127.27
155.58
172.04
176.81
170.59
156.85
141.02
128.33
122.04
122.88
129.36
135.17
134.67
125.88
111.09
94.81
81.25
72.86
69.89
71.06
72.03
69.11
60.92
48.85
35.74
24.21
15.80
10.65
7.94
5.31
0.78
-6.50
-15.91
-26.07
-35.62
-43.65
-49.93
-54.53
-58.16
-61.21
-63.69
-65.11
-64.80
-62.84
-58.66
-52.39
-44.34
-35.10
-25.13
-14.92
-4.74
5.19
14.68
23.65
31.77
38.71
44.05
47.46
48.66
47.54
44.31
39.41
33.64
27.92
23.18
20.17
19.41
21.04
24.76
29.93
35.35
39.83
42.04
40.89
35.62
25.97
12.13
-5.13
-24.70
-45.46
-66.20
-85.93
-103.91
-119.68
-133.08
-144.23
-153.16
-160.03
-165.10
-168.64
-170.82
-171.71
-171.32
-169.36
-167.14
-165.23
-163.97
-163.60
-164.10
-165.32
-166.93
-168.57
-169.82
-170.38
-169.79
-167.79
-164.36
-159.58
-153.74
-147.21
-140.41
-133.73
-127.53
-121.88
-116.76
-112.10
-107.67
-103.28
-98.70
-93.77
-88.33
-82.39
-75.93
-69.04
-61.94
-54.86
-48.12
-41.97
-36.58
-32.07
-28.43
-25.59
-23.33
-21.52
-20.02
-18.75
-17.71
-16.89
-16.22
-15.54
-14.57
-12.81
-9.69
-4.57
3.08
13.51
26.60
41.84
58.36
74.89
90.18
103.03
112.57
118.40
120.65
119.90
117.00
113.00
108.75
104.92
101.93
99.83
98.44
97.39
96.30
94.81
92.71
89.93
86.54
82.71
78.60
74.42
70.33
66.34
62.39
58.29
53.79
48.74
43.02
36.68
29.96
23.38
17.52
13.10
10.82
11.12
14.29
20.25
28.51
38.26
48.39
57.46
64.16
67.28
66.04
60.31
50.70
38.50
25.41
13.25
3.44
-3.11
-6.19
-6.22
-3.91
0.04
5.23
11.65
19.51
29.00
40.18
52.82
66.52
80.97
96.09
112.03
129.18
147.99
168.95
192.73
220.01
251.03
284.73
318.41
347.99
369.24
379.51
378.53
368.51
352.65
333.82
313.49
291.91
269.14
245.98
223.93
204.19
187.00
171.37
155.92
139.99
124.07
109.41
97.03
87.22
79.30
72.44
66.06
59.98
54.13
48.05
40.84
31.69
20.49
8.05
-4.21
-15.09
-24.03
-31.17
-36.94
-41.58
-45.11
-47.21
-47.76
-47.05
-45.86
-44.96
-44.90
-45.67
-46.69
-47.26
-46.81
-45.41
-43.55
-42.06
-41.51
-41.87
-42.59
-42.76
-41.67
-39.07
-35.34
-31.12
-27.18
-23.91
-21.36
-19.32
-17.46
-15.71
-14.03
-12.49
-11.00
-9.29
-7.06
-4.06
-0.31
3.93
8.10
11.75
14.54
16.39
17.33
17.38
16.48
14.44
11.26
7.02
2.14
-2.86
-7.42
-11.20
-14.13
-16.34
-17.99
-19.12
-19.68
-19.61
-18.97
-18.01
-17.01
-16.19
-15.58
-14.96
-14.01
-12.44
-10.16
-7.39
-4.43
-1.59
0.91
3.02
4.87
6.55
8.12
9.67
11.25
12.89
14.69
16.64
18.84
21.45
24.45
27.83
31.58
35.62
39.91
44.37
48.71
52.68
55.91
58.08
59.04
58.98
58.17
56.95
55.57
54.04
52.61
51.25
49.98
48.85
48.33
49.22
52.45
58.65
67.33
77.81
88.41
97.23
102.65
103.76
100.32
92.72
81.89
69.08
57.72
50.84
50.49
57.14
69.77
86.70
107.03
131.51
162.17
203.82
258.89
325.88
399.39
472.11
537.81
593.43
639.64
679.03
717.90
760.26
806.62
854.41
898.85
934.55
956.87
963.17
928.09
836.32
682.39
473.66
229.35
-25.25
-266.49
-477.93
-651.59
-786.51
-882.36
-941.68
-969.07
-970.56
-952.93
-922.94
-886.49
-847.93
-810.33
-772.66
-733.50
-691.92
-647.92
-602.61
-557.86
-515.59
-477.21
-443.50
-412.80
-383.41
-354.04
-324.21
-294.31
-265.37
-238.53
-214.59
-193.95
-175.70
-158.84
-142.60
-126.61
-110.98
-96.14
-82.62
-70.77
-60.72
-52.09
-44.42
-37.32
-30.61
-24.24
-18.33
-13.03
-8.45
-4.66
-1.62
0.77
2.65
4.17
5.53
6.95
8.71
11.10
14.24
18.20
23.04
28.64
34.69
40.74
46.23
50.66
53.61
54.75
53.86
50.94
46.24
40.14
33.11
25.67
18.24
11.26
5.03
-0.33
-4.84
-8.59
-11.64
-14.11
-16.10
-17.78
-19.12
-20.10
-20.69
-20.88
-20.63
-19.80
-18.30
-15.98
-12.91
-8.98
-4.19
1.32
7.34
13.66
19.98
26.09
31.83
36.98
41.44
45.30
48.41
50.85
52.84
54.67
56.63
59.19
62.67
67.39
73.63
81.07
89.50
98.63
108.18
117.84
127.39
136.64
145.59
154.37
162.59
170.11
176.88
182.80
187.66
191.00
191.96
189.05
184.80
179.67
173.78
167.09
159.51
150.94
141.28
130.54
118.89
106.71
93.89
80.72
67.65
55.20
43.83
33.79
25.15
17.77
11.42
5.28
-1.26
-8.75
-17.67
-28.42
-41.33
-56.60
-74.24
-93.88
-115.12
-137.11
-158.77
-178.92
-196.57
-211.07
-222.16
-230.08
-235.34
-238.75
-241.12
-243.13
-245.12
-247.15
-249.18
-251.18
-253.83
-258.59
-267.60
-282.58
-303.45
-327.24
-348.29
-359.68
-355.50
-333.18
-294.34
-244.31
-190.52
-140.67
-101.51
-78.16
-73.41
-86.93
-114.65
-148.79
-179.61
-198.27
-199.82
-184.84
-158.63
-128.62
-100.92
-78.59
-61.15
-46.40
-32.46
-18.86
-6.37
4.17
12.99
21.54
31.42
43.63
57.92
73.13
88.39
103.81
120.48
139.70
161.84
185.71
208.93
228.89
243.95
254.38
261.97
269.27
277.94
287.60
295.39
296.40
285.41
258.86
216.95
164.10
107.76
55.79
13.68
-17.16
-39.10
-56.14
-71.67
-86.82
-101.02
-113.26
-123.08
-130.08
-132.99
-128.80
-113.67
-85.50
-46.25
-2.30
37.98
68.23
87.37
99.65
111.51
127.03
144.95
159.19
162.82
152.48
130.91
105.81
85.90
76.70
78.26
85.93
93.60
97.07
95.80
92.21
89.47
89.20
90.73
91.76
89.64
82.75
70.40
52.50
29.09
0.65
-31.48
-64.53
-94.61
-118.01
-132.22
-136.81
-133.15
-123.49
-109.86
-93.53
-75.32
-56.06
-37.18
-20.56
-8.27
-2.01
-2.82
-10.84
-25.19
-44.22
-65.47
-86.24
-104.05
-117.69
-127.36
-134.53
-141.10
-148.52
-157.67
-169.51
-185.23
-205.92
-231.35
-258.51
-281.77
-294.59
-292.27
-274.40
-245.16
-211.09
-178.14
-149.22
-123.97
-100.51
-77.46
-54.81
-33.25
-12.83
7.59
29.38
52.51
74.65
92.14
101.80
103.18
98.99
93.63
90.56
90.23
89.91
85.96
76.11
61.05
44.20
29.77
20.83
18.18
20.72
26.51
34.13
42.86
52.71
64.02
76.92
91.03
105.24
117.76
126.75
131.12
130.88
127.08
120.91
112.50
100.42
82.77
58.78
30.18
1.12
-23.68
-41.05
-50.50
-53.83
-53.33
-50.19
-44.00
-33.72
-18.99
-1.15
17.36
34.29
48.46
59.85
68.59
73.84
73.34
64.22
44.37
14.03
-23.64
-63.26
-98.81
-125.81
-142.69
-151.20
-155.24
-158.87
-164.16
-170.24
-173.87
-171.52
-161.75
-146.43
-130.17
-117.91
-112.47
-113.30
-116.91
-118.74
-114.72
-102.67
-82.38
-55.29
-23.79
9.55
42.62
74.43
104.86
134.20
161.97
186.35
204.54
214.03
214.13
206.29
193.24
177.20
158.90
137.93
114.28
89.62
67.37
51.05
42.12
39.03
37.91
34.68
27.26
16.13
3.52
-8.69
-20.07
-31.75
-44.86
-59.10
-72.07
-80.31
-80.99
-73.44
-59.64
-43.12
-27.58
-15.40
-7.04
-1.48
3.12
8.41
15.29
23.59
32.14
39.35
43.85
44.98
42.77
37.74
30.30
20.64
8.95
-4.15
-17.41
-29.13
-37.69
-42.56
-44.24
-44.05
-43.24
-42.00
-39.25
-33.13
-22.07
-5.92
13.23
31.42
43.94
47.45
42.13
32.47
26.05
30.53
49.92
82.21
119.29
149.78
163.38
154.99
126.60
86.23
44.87
12.33
-6.16
-11.56
-10.29
-11.56
-23.26
-48.71
-84.97
-123.83
-155.42
-172.29
-172.18
-158.60
-138.98
-121.56
-112.36
-113.38
-122.07
-132.93
-139.41
-135.41
-116.67
-81.93
-33.68
21.50
74.37
116.16
142.03
153.56
158.54
167.15
186.12
214.73
244.77
265.83
272.12
265.86
255.63
250.30
253.34
261.30
267.24
266.37
259.77
253.38
253.45
261.64
273.12
278.33
267.96
237.39
188.27
127.17
62.38
0.37
-55.94
-107.19
-155.92
-203.66
-248.54
-285.20
-306.96
-308.95
-290.83
-256.86
-214.17
-169.83
-128.39
-91.33
-58.07
-28.03
-1.71
19.24
33.04
38.99
37.90
31.75
22.75
12.35
1.05
-11.29
-24.60
-37.85
-48.90
-55.17
-54.88
-48.05
-36.84
-24.66
-14.81
-9.01
-6.99
-7.20
-7.92
-8.36
-8.81
-10.27
-13.61
-18.82
-24.92
-30.26
-33.34
-33.34
-30.30
-24.85
-17.84
-10.03
-1.89
6.34
14.51
22.41
29.76
36.24
41.76
46.35
50.21
53.64
56.90
60.01
62.47
63.31
61.11
54.94
45.14
33.35
21.81
11.97
3.46
-5.96
-18.98
-37.24
-59.95
-83.85
-104.64
-118.69
-124.43
-122.38
-114.35
-102.16
-87.25
-70.63
-53.76
-39.10
-29.90
-29.03
-37.26
-52.10
-68.06
-78.66
-78.92
-67.55
-47.24
-22.97
0.34
19.79
34.94
46.60
54.99
58.73
55.09
41.56
17.84
-13.33
-46.60
-75.55
-94.76
-101.40
-95.74
-80.55
-59.82
-37.14
-14.77
6.40
26.30
44.56
59.78
69.74
72.43
67.22
55.74
41.39
28.23
19.26
15.17
14.21
13.28
9.76
2.67
-6.87
-16.48
-24.09
-28.95
-32.12
-35.56
-40.84
-47.92
-54.91
-58.66
-55.97
-45.04
-25.92
-0.50
28.33
57.42
84.01
105.77
121.19
129.33
129.92
123.51
111.82
97.58
83.79
72.97
66.02
62.19
59.46
55.64
49.49
41.21
32.04
23.39
15.97
9.53
3.46
-2.46
-7.89
-12.29
-15.60
-18.66
-22.68
-28.29
-34.99
-41.42
-46.09
-48.73
-50.52
-53.73
-60.32
-70.98
-84.69
-99.36
-112.89
-123.73
-131.39
-136.27
-139.59
-143.35
-150.18
-162.53
-181.45
-205.60
-230.76
-251.28
-262.20
-261.44
-250.89
-235.40
-220.55
-210.13
-204.98
-203.15
-201.68
-198.08
-191.20
-180.94
-167.45
-150.66
-130.41
-107.32
-82.85
-59.08
-37.88
-20.18
-5.92
5.55
14.89
22.41
28.04
31.75
33.96
35.27
36.27
36.93
36.68
34.77
30.70
24.65
17.52
10.77
6.01
4.65
7.23
13.30
21.41
29.59
35.90
39.16
39.09
35.98
30.35
22.64
13.36
3.68
-4.26
-7.58
-3.37
9.97
31.97
59.84
89.17
115.34
134.79
145.82
148.62
144.67
135.78
123.52
108.96
92.73
75.56
58.43
42.61
29.17
18.53
10.28
3.59
-2.26
-7.50
-11.97
-15.83
-19.83
-25.27
-33.08
-42.78
-51.87
-56.47
-52.93
-39.51
-17.28
10.26
38.48
63.63
83.99
99.97
112.99
124.24
133.87
141.21
145.42
146.23
144.43
141.60
139.54
139.42
141.50
145.26
150.48
156.92
163.79
169.60
172.24
169.54
160.19
144.44
124.29
104.34
88.76
79.61
76.72
78.80
84.60
93.35
104.29
116.36
131.25
149.62
170.16
190.36
208.28
223.98
239.32
256.95
279.24
312.41
358.96
414.62
469.55
512.78
536.95
540.35
526.18
500.40
475.89
461.85
459.26
462.04
461.75
452.14
430.57
397.55
315.27
171.12
-16.64
-207.11
-362.38
-466.29
-522.51
-543.48
-541.70
-526.30
-496.44
-449.38
-390.43
-330.57
-281.27
-249.70
-237.55
-242.80
-262.30
-292.16
-324.20
-351.83
-370.55
-376.50
-366.37
-339.52
-299.67
-254.50
-209.41
-167.96
-132.57
-104.88
-86.00
-77.35
-80.42
-95.13
-117.93
-139.48
-150.34
-143.59
-118.79
-81.86
-42.22
-9.24
11.72
20.54
21.55
19.80
17.63
13.47
3.73
-14.43
-41.13
-72.57
-102.49
-124.60
-135.03
-133.63
-123.91
-111.09
-96.85
-84.02
-74.89
-71.40
-74.52
-83.63
-95.40
-104.07
-103.03
-87.45
-57.42
-17.84
22.94
56.55
77.47
84.78
81.28
71.34
58.98
46.28
34.37
24.05
16.45
12.39
11.93
13.62
15.10
14.05
9.12
1.17
-7.32
-13.34
-15.19
-13.30
-10.11
-9.07
-12.86
-22.21
-34.91
-46.24
-50.18
-41.21
-16.38
22.97
70.41
115.78
148.30
160.57
151.42
126.03
93.20
61.37
35.48
16.29
2.03
-8.86
-16.18
-18.66
-15.72
-9.08
-2.76
-1.31
-7.61
-21.78
-41.66
-64.25
-87.24
-109.57
-130.99
-151.37
-170.11
-186.11
-198.20
-205.52
-207.56
-204.22
-195.63
-182.04
-163.81
-141.43
-115.45
-86.31
-54.13
-18.83
19.59
61.03
104.60
148.77
191.63
231.46
267.34
299.44
328.84
356.75
383.63
408.66
429.86
444.93
451.81
449.24
436.60
413.55
380.39
338.84
292.90
248.75
213.38
191.78
184.81
188.74
197.07
203.54
204.64
200.09
191.57
180.60
166.75
148.15
122.72
89.62
49.62
4.53
-44.09
-95.42
-148.88
-203.18
-255.46
-301.29
-335.78
-354.96
-357.42
-345.15
-323.27
-299.22
-281.08
-275.69
-286.65
-313.01
-348.81
-384.61
-410.64
-420.11
-411.44
-387.95
-355.47
-319.06
-281.10
-241.07
-197.61
-150.74
-102.61
-56.89
-16.78
16.75
45.38
72.41
101.43
135.05
174.23
218.10
263.66
306.05
339.41
358.61
361.00
347.60
322.70
291.78
259.34
227.07
194.19
159.04
120.73
80.01
38.57
-2.35
-43.15
-85.76
-132.87
-186.59
-247.67
-315.13
-385.74
-453.86
-512.13
-552.86
-570.24
-562.36
-532.10
-486.24
-433.33
-381.05
-334.54
-296.40
-267.28
-246.82
-233.93
-226.33
-220.41
-211.65
-195.54
-168.90
-131.18
-85.00
-36.30
6.70
36.16
47.62
42.36
27.55
13.29
8.20
15.74
33.39
55.19
75.98
94.14
111.32
129.80
149.62
168.21
182.42
191.58
198.74
208.97
225.88
248.56
271.31
286.28
287.65
274.63
251.82
226.91
207.22
196.99
196.46
203.05
213.11
223.70
233.30
241.43
247.91
252.16
253.17
250.08
242.94
232.94
222.00
212.04
204.04
197.83
192.27
186.02
178.43
170.09
162.63
157.82
156.82
159.44
164.31
169.36
172.81
173.90
173.06
171.55
170.70
171.51
174.27
178.82
184.89
192.24
200.44
208.36
213.60
212.56
200.94
175.01
132.88
75.32
5.70
-70.90
-149.06
-224.34
-293.77
-356.02
-410.60
-456.82
-493.23
-517.75
-528.38
-524.30
-506.39
-477.11
-439.78
-397.58
-352.91
-307.60
-263.58
-223.24
-189.34
-163.98
-147.45
-137.65
-130.55
-121.48
-107.05
-86.31
-60.92
-34.34
-10.20
8.86
21.98
29.74
33.54
34.60
33.62
30.83
26.31
20.36
13.67
7.19
1.70
-2.39
-5.27
-7.51
-9.75
-12.51
-16.07
-20.41
-25.44
-31.05
-36.99
-42.72
-47.08
-48.37
-44.95
-35.77
-21.18
-2.97
16.01
32.76
45.03
51.84
53.51
51.12
45.92
38.85
30.48
21.20
11.46
1.94
-6.49
-13.05
-17.19
-18.90
-18.76
-17.69
-16.75
-16.71
-18.05
-20.87
-25.00
-29.91
-34.62
-37.66
-37.15
-31.35
-19.37
-1.74
19.33
40.57
58.66
71.19
77.31
77.66
73.71
66.96
58.49
48.82
38.20
27.01
15.87
5.59
-3.04
-9.56
-13.86
-16.15
-16.86
-16.45
-15.47
-14.66
-14.82
-16.57
-20.07
-24.66
-28.84
-30.55
-27.76
-19.27
-5.25
12.77
32.30
50.56
65.21
74.92
79.38
79.12
75.13
68.54
60.32
51.24
41.90
32.64
23.70
15.31
7.67
1.06
-4.25
-8.16
-10.80
-12.59
-13.97
-15.44
-17.24
-19.48
-21.93
-24.20
-25.66
-25.48
-22.81
-16.81
-7.17
5.75
20.72
35.87
49.02
58.29
62.51
61.51
55.95
47.10
36.51
25.51
15.17
6.19
-1.07
-6.43
-9.85
-11.49
-11.68
-10.96
-10.12
-10.10
-11.79
-15.73
-21.86
-29.38
-36.70
-41.70
-42.27
-36.86
-25.06
-7.82
12.61
33.29
51.34
64.64
72.27
74.52
72.38
67.21
60.08
51.63
42.12
31.88
21.30
11.08
2.12
-4.88
-9.45
-11.62
-11.80
-10.77
-9.51
-9.05
-10.36
-14.10
-20.31
-28.03
-35.36
-39.84
-39.20
-32.32
-19.53
-2.61
15.83
33.18
47.53
57.81
63.78
65.73
64.03
59.27
52.12
43.52
34.37
25.48
17.31
10.03
3.63
-1.99
-6.80
-10.68
-13.50
-15.29
-16.40
-17.58
-19.80
-23.90
-30.19
-37.96
-45.41
-50.14
-49.69
-42.54
-28.67
-9.68
11.77
32.70
50.64
64.09
72.40
75.70
74.40
69.15
60.87
50.69
39.82
29.42
20.24
12.53
6.28
1.21
-2.96
-6.24
-8.62
-10.13
-10.93
-11.56
-12.93
-15.88
-20.96
-28.01
-35.84
-42.39
-45.30
-42.58
-33.40
-18.52
0.04
19.54
37.32
51.43
60.89
65.65
66.35
63.81
58.84
52.26
44.72
36.74
28.75
21.03
13.85
7.54
2.45
-1.23
-3.46
-4.50
-4.99
-5.60
-7.02
-9.79
-14.23
-20.23
-27.35
-34.50
-40.07
-42.26
-39.49
-31.02
-17.24
0.25
19.19
37.07
51.91
62.43
68.20
69.66
67.88
64.25
60.13
56.57
53.92
51.99
50.27
48.23
45.85
43.56
41.97
41.66
42.89
45.22
47.84
49.81
50.17
48.59
45.43
41.75
39.18
39.50
44.01
53.04
65.84
80.38
93.78
102.50
103.07
92.56
69.30
33.20
-14.28
-70.66
-133.48
-200.63
-270.19
-339.25
-402.77
-453.44
-483.20
-486.11
-461.11
-413.25
-351.97
-287.65
-228.00
-176.02
-130.79
-89.82
-51.53
-16.19
14.82
40.81
62.71
82.80
103.32
125.09
147.03
166.76
182.06
191.76
196.17
196.39
193.71
188.93
182.33
173.81
163.21
150.43
135.52
118.85
101.03
82.92
65.59
50.04
36.98
26.83
19.62
15.02
12.42
10.95
9.59
7.47
4.05
-0.73
-6.29
-11.69
-15.73
-17.22
-15.16
-9.07
0.93
13.86
27.94
40.98
50.86
56.12
56.37
52.36
45.53
37.64
30.03
23.46
18.03
13.44
9.32
5.56
2.38
0.36
0.05
1.67
4.89
8.89
12.42
14.43
14.35
12.15
8.64
5.09
2.96
3.53
7.56
15.14
25.60
37.79
50.14
61.09
69.27
73.63
73.37
68.21
58.30
44.41
27.88
10.34
-6.47
-21.14
-32.72
-40.94
-46.04
-48.56
-49.23
-48.56
-46.94
-44.45
-41.17
-37.25
-33.18
-29.78
-27.88
-27.96
-29.83
-32.46
-34.30
-33.78
-29.96
-22.81
-13.32
-3.03
6.36
13.48
17.46
17.92
14.74
7.99
-2.11
-14.95
-29.43
-44.04
-57.15
-67.56
-74.96
-80.05
-84.21
-88.83
-94.61
-101.27
-107.81
-113.04
-116.34
-118.12
-119.56
-122.09
-126.75
-133.61
-141.72
-149.20
-153.56
-152.06
-142.22
-122.35
-92.22
-53.55
-9.82
34.45
74.86
108.28
133.36
150.18
159.70
162.95
160.52
152.79
140.30
124.08
105.74
87.00
69.00
51.83
34.34
14.65
-8.83
-36.21
-65.33
-91.90
-110.58
-116.97
-109.25
-89.13
-61.45
-32.54
-8.29
7.57
14.10
12.64
5.57
-5.05
-18.37
-34.67
-54.73
-79.30
-108.61
-142.19
-178.99
-217.13
-253.31
-282.86
-300.83
-304.17
-293.74
-274.21
-251.72
-230.11
-208.16
-179.55
-136.13
-72.67
9.73
102.86
194.08
270.69
323.71
349.99
352.32
338.02
316.70
298.25
290.28
296.20
314.51
339.58
363.49
378.24
377.76
358.77
321.20
267.37
200.98
126.01
45.87
-36.49
-118.24
-195.78
-264.82
-320.68
-359.60
-379.37
-379.50
-360.97
-325.55
-275.76
-215.46
-150.27
-87.15
-33.38
5.28
26.34
30.64
22.26
7.22
-8.18
-18.59
-20.76
-14.15
-0.68
16.24
32.71
45.70
53.66
56.69
56.45
55.54
56.68
61.62
70.31
80.27
87.51
88.23
80.60
65.78
47.41
30.20
18.82
16.90
26.58
48.67
81.87
122.33
164.29
201.38
228.81
244.79
250.64
249.44
244.46
237.97
231.18
224.97
220.43
218.39
218.64
219.39
217.75
210.80
196.68
174.97
146.63
113.49
77.72
41.27
5.45
-29.51
-64.49
-100.56
-137.80
-174.13
-205.40
-226.57
-233.82
-226.26
-206.34
-178.79
-148.62
-119.49
-93.01
-69.26
-47.56
-27.20
-7.79
10.28
25.78
36.68
40.55
35.37
20.56
-2.60
-31.15
-61.17
-88.85
-111.47
-127.88
-138.67
-145.53
-150.40
-154.39
-157.34
-157.62
-152.85
-141.03
-121.36
-94.63
-63.15
-30.03
1.33
27.55
45.75
53.92
51.25
38.69
18.87
-4.55
-27.63
-47.21
-61.63
-70.73
-75.56
-77.82
-79.03
-80.23
-81.87
-83.93
-86.14
-88.22
-89.72
-89.93
-87.91
-82.62
-73.32
-60.08
-43.88
-26.42
-9.70
4.72
16.01
24.07
29.21
31.87
32.26
30.48
26.60
20.82
13.68
5.90
-1.83
-8.90
-14.97
-19.87
-23.63
-26.39
-28.45
-30.21
-32.12
-34.53
-37.37
-39.98
-41.22
-39.77
-34.47
-24.98
-11.82
3.65
19.61
34.19
46.02
54.40
59.23
60.86
59.81
56.50
51.25
44.33
36.17
27.36
18.68
10.89
4.53
-0.18
-3.54
-6.07
-8.46
-11.22
-14.60
-18.49
-22.39
-25.37
-26.40
-24.55
-19.26
-10.63
0.61
13.32
26.14
37.90
47.90
55.74
61.33
64.62
65.46
63.53
58.64
50.87
40.96
30.39
20.98
14.41
11.53
12.02
14.49
17.04
17.89
15.91
10.84
3.18
-6.07
-15.75
-24.75
-32.13
-37.33
-40.32
-41.67
-42.39
-43.72
-46.55
-51.05
-56.50
-61.33
-63.70
-62.04
-55.65
-44.86
-31.11
-16.39
-2.63
8.60
16.49
20.88
22.07
20.62
17.19
12.40
6.80
0.93
-4.73
-9.85
-14.15
-17.49
-19.84
-21.33
-22.15
-22.55
-22.85
-23.35
-24.30
-25.70
-27.21
-28.06
-27.13
-23.25
-15.68
-4.45
9.44
24.39
38.63
50.68
59.78
65.83
69.06
69.68
67.71
62.99
55.50
45.59
33.90
21.45
9.25
-1.93
-11.73
-20.21
-27.67
-34.55
-41.16
-47.56
-53.35
-57.71
-59.59
-58.09
-52.74
-43.77
-32.07
-18.82
-5.28
7.60
19.19
29.16
37.36
43.65
47.93
50.18
50.59
49.45
47.18
44.09
40.27
35.71
30.22
23.73
16.40
8.69
1.22
-5.42
-10.82
-14.91
-17.70
-19.10
-18.88
-16.63
-11.95
-4.90
3.97
13.63
22.77
30.23
35.33
37.92
38.24
36.60
33.24
28.32
21.99
14.65
6.96
-0.22
-6.13
-10.21
-12.47
-13.32
-13.37
-13.27
-13.54
-14.41
-15.68
-16.85
-17.08
-15.64
-12.20
-6.83
-0.04
7.34
14.51
20.86
26.00
29.75
32.07
32.84
31.94
29.39
25.32
20.11
14.16
7.95
1.81
-3.98
-9.30
-14.06
-18.30
-22.05
-25.36
-28.38
-31.26
-33.95
-36.22
-37.55
-37.20
-34.59
-29.50
-22.09
-13.02
-3.23
6.31
14.83
21.77
26.76
29.51
29.81
27.70
23.45
17.67
11.13
4.60
-1.32
-6.33
-10.41
-13.64
-16.09
-17.82
-18.83
-19.14
-18.87
-18.11
-16.83
-14.94
-12.21
-8.43
-3.59
2.11
8.25
14.29
19.61
23.71
26.22
26.81
25.31
21.68
16.14
9.15
1.40
-6.32
-13.19
-18.56
-22.02
-23.59
-23.64
-22.77
-21.66
-20.87
-20.71
-21.18
-21.99
-22.49
-21.96
-19.88
-16.01
-10.60
-4.25
2.26
8.30
13.42
17.40
20.10
21.33
20.85
18.51
14.44
9.04
3.02
-2.93
-8.29
-12.81
-16.42
-19.15
-21.04
-22.13
-22.59
-22.66
-22.71
-22.89
-23.00
-22.47
-20.57
-16.76
-10.96
-3.62
4.30
11.75
17.81
21.94
23.84
23.47
21.01
16.82
11.33
5.06
-1.31
-7.20
-12.00
-15.40
-17.26
-17.76
-17.32
-16.52
-15.98
-15.99
-16.73
-17.98
-19.35
-20.18
-19.93
-18.18
-14.77
-9.96
-4.26
1.66
7.18
11.88
15.60
18.19
19.46
19.21
17.31
13.85
9.26
4.25
-0.47
-4.41
-7.44
-9.63
-11.10
-11.93
-12.11
-11.82
-11.38
-11.15
-11.34
-11.83
-12.01
-11.02
-8.27
-3.48
2.96
10.34
17.87
24.79
30.53
34.56
36.50
36.02
33.10
27.95
21.15
13.43
5.59
-1.58
-7.53
-11.91
-14.68
-16.02
-16.47
-16.63
-17.05
-17.96
-19.21
-20.36
-20.79
-20.06
-17.82
-14.17
-9.39
-3.99
1.40
6.15
9.73
11.73
12.04
10.83
8.27
4.75
0.71
-3.46
-7.28
-10.38
-12.43
-13.27
-12.88
-11.56
-9.69
-7.74
-6.25
-5.57
-5.84
-6.88
-8.16
-8.94
-8.55
-6.57
-3.02
1.56
6.46
10.87
14.21
16.26
17.06
16.72
15.39
13.08
9.73
5.54
0.81
-3.88
-7.82
-10.44
-11.52
-11.15
-9.87
-8.40
-7.21
-6.79
-7.34
-8.80
-10.95
-13.29
-15.07
-15.51
-14.00
-10.26
-4.57
2.30
9.30
15.34
19.66
21.91
22.11
20.58
17.79
14.16
10.04
5.77
1.59
-2.17
-5.18
-7.26
-8.39
-8.76
-8.77
-8.91
-9.56
-10.98
-13.20
-15.87
-18.52
-20.41
-20.84
-19.31
-15.63
-10.01
-3.08
4.28
11.22
17.01
21.20
23.58
24.15
23.02
20.43
16.71
12.35
7.94
3.99
0.90
-1.21
-2.48
-3.17
-3.52
-3.85
-4.40
-5.40
-7.14
-9.73
-12.97
-16.31
-18.86
-19.60
-17.83
-13.38
-6.75
0.95
8.51
14.89
19.41
21.85
22.39
21.22
18.60
14.75
9.89
4.46
-0.98
-5.81
-9.54
-11.94
-13.09
-13.24
-12.67
-11.73
-10.65
-9.74
-9.42
-10.06
-11.89
-14.75
-17.97
-20.32
-20.64
-18.02
-12.32
-4.29
4.75
13.33
20.22
24.75
26.85
26.69
24.71
21.30
16.93
12.20
7.67
3.73
0.60
-1.79
-3.62
-4.95
-5.85
-6.32
-6.39
-6.28
-6.42
-7.22
-8.95
-11.66
-15.02
-18.36
-20.85
-21.53
-19.67
-15.04
-7.98
0.59
9.37
17.13
22.87
26.10
26.80
25.33
22.30
18.38
14.18
10.22
6.85
4.19
2.33
1.25
0.85
1.00
1.44
1.80
1.84
1.43
0.61
-0.65
-2.34
-4.57
-7.44
-10.67
-13.66
-15.53
-15.38
-12.63
-7.36
-0.26
7.55
14.78
20.45
23.95
25.14
24.22
21.68
17.99
13.56
8.79
3.98
-0.50
-4.26
-7.02
-8.65
-9.22
-9.01
-8.38
-7.59
-6.89
-6.41
-6.37
-7.08
-8.77
-11.42
-14.55
-17.21
-18.23
-16.69
-12.18
-5.11
3.42
11.94
18.99
23.59
25.45
24.79
22.25
18.52
14.14
9.48
4.87
0.54
-3.16
-5.93
-7.67
-8.49
-8.74
-8.79
-8.98
-9.33
-9.82
-10.53
-11.65
-13.55
-16.53
-20.42
-24.43
-27.31
-27.61
-24.35
-17.51
-8.02
2.50
12.22
19.81
24.58
26.58
26.27
24.26
21.03
16.88
12.01
6.81
1.76
-2.67
-6.08
-8.39
-9.69
-10.27
-10.47
-10.60
-10.86
-11.36
-12.35
-13.98
-16.40
-19.57
-23.11
-26.21
-27.85
-27.03
-23.13
-16.25
-7.26
2.55
11.66
18.96
23.83
26.16
26.15
24.13
20.50
15.63
9.94
3.97
-1.71
-6.53
-10.11
-12.36
-13.42
-13.61
-13.36
-13.14
-13.26
-14.00
-15.51
-17.86
-20.92
-24.36
-27.54
-29.67
-29.97
-27.83
-23.01
-15.75
-6.74
3.06
12.58
20.84
27.05
30.67
31.53
29.78
25.90
20.60
14.71
9.01
4.18
0.61
-1.58
-2.57
-2.69
-2.36
-1.94
-1.75
-2.01
-2.81
-4.31
-6.61
-9.77
-13.63
-17.55
-20.55
-21.46
-19.30
-13.62
-4.71
6.46
18.52
30.11
40.10
47.72
52.51
54.30
53.19
49.48
43.75
36.68
28.90
20.98
13.52
6.93
1.66
-2.07
-4.30
-5.49
-6.24
-7.29
-9.13
-11.96
-15.61
-19.68
-23.51
-26.25
-26.96
-24.85
-19.47
-10.95
-0.09
11.75
22.94
32.08
38.32
41.38
41.38
38.70
33.79
27.07
19.05
10.29
1.55
-6.35
-12.66
-16.93
-19.12
-19.63
-19.10
-18.28
-17.88
-18.39
-20.10
-22.85
-26.06
-28.77
-29.87
-28.17
-22.97
-14.34
-3.11
9.20
20.91
30.61
37.52
41.32
42.18
40.41
36.31
30.29
22.84
14.68
6.66
-0.42
-6.00
-9.94
-12.40
-13.81
-14.61
-15.27
-16.18
-17.66
-19.88
-22.77
-25.85
-28.20
-28.70
-26.19
-20.08
-10.58
1.29
13.91
25.54
34.84
41.15
44.32
44.71
42.72
38.72
33.04
25.99
18.01
9.73
1.97
-4.54
-9.26
-12.06
-13.19
-13.30
-13.15
-13.51
-14.90
-17.41
-20.58
-23.54
-25.10
-24.14
-19.85
-12.09
-1.43
10.95
23.55
34.86
43.77
49.65
52.33
52.01
48.94
43.37
35.62
26.11
15.52
4.90
-4.54
-11.72
-16.01
-17.33
-16.18
-13.54
-10.54
-8.33
-7.76
-9.18
-12.27
-16.17
-19.46
-20.62
-18.53
-12.73
-3.74
7.21
18.54
28.69
36.50
41.35
43.10
41.96
38.31
32.56
25.20
16.87
8.25
0.12
-6.91
-12.46
-16.44
-18.99
-20.50
-21.41
-22.13
-23.03
-24.30
-25.93
-27.57
-28.44
-27.58
-24.11
-17.64
-8.41
2.61
14.00
24.33
32.38
37.50
39.45
38.37
34.57
28.43
20.49
11.46
2.22
-6.35
-13.46
-18.70
-22.07
-23.94
-24.95
-25.65
-26.54
-27.78
-29.35
-30.91
-31.93
-31.63
-29.16
-23.95
-15.84
-5.40
6.27
17.68
27.48
34.70
38.87
40.00
38.28
34.06
27.75
19.93
11.37
3.01
-4.24
-9.78
-13.44
-15.45
-16.34
-16.74
-17.22
-18.29
-20.14
-22.65
-25.37
-27.47
-27.94
-25.81
-20.57
-12.38
-2.13
8.90
19.31
27.87
33.85
36.81
36.76
33.89
28.54
21.24
12.71
3.80
-4.48
-11.21
-15.85
-18.31
-18.96
-18.62
-18.18
-18.36
-19.60
-21.74
-24.22
-26.25
-26.84
-25.14
-20.60
-13.22
-3.60
7.21
17.86
27.20
34.31
38.79
40.55
39.68
36.39
30.92
23.70
15.50
7.21
-0.16
-5.80
-9.42
-11.26
-11.82
-12.01
-12.55
-13.94
-16.24
-19.06
-21.57
-22.84
-21.99
-18.36
-11.95
-3.29
6.56
16.40
25.10
31.84
36.16
37.92
37.21
34.21
29.17
22.55
14.92
7.04
-0.31
-6.49
-11.06
-13.93
-15.34
-15.77
-15.80
-16.07
-16.99
-18.71
-20.96
-23.04
-23.95
-22.63
-18.38
-11.19
-1.93
8.02
17.11
24.18
28.71
30.80
30.97
29.65
27.06
23.22
18.24
12.63
7.20
2.89
0.39
-0.15
0.79
2.41
3.80
4.23
3.28
0.82
-2.86
-7.20
-11.19
-13.71
-13.71
-10.65
-4.70
3.27
11.93
20.06
26.61
30.95
32.81
32.17
29.16
24.07
17.49
10.19
3.16
-2.74
-6.91
-9.09
-9.53
-8.78
-7.61
-6.75
-6.87
-8.29
-10.99
-14.56
-18.16
-20.86
-21.67
-19.91
-15.38
-8.45
0.07
9.13
17.68
24.95
30.25
33.18
33.51
31.26
26.68
20.44
13.43
6.59
0.82
-3.39
-5.82
-6.67
-6.29
-5.25
-4.15
-3.64
-4.27
-6.17
-9.09
-12.18
-14.25
-14.20
-11.30
-5.51
2.44
11.38
19.96
26.99
31.69
33.69
33.01
29.87
24.74
18.20
10.94
3.73
-2.71
-7.78
-11.15
-12.86
-13.19
-12.64
-11.76
-11.08
-10.93
-11.56
-12.98
-14.97
-17.09
-18.59
-18.61
-16.40
-11.64
-4.52
4.12
13.17
21.39
27.75
31.62
32.70
31.07
27.05
21.15
14.03
6.48
-0.72
-6.75
-11.04
-13.26
-13.50
-12.26
-10.34
-8.62
-7.80
-8.25
-9.95
-12.61
-15.64
-18.39
-20.03
-19.75
-16.96
-11.50
-3.83
5.04
13.78
21.17
26.42
29.26
29.79
28.25
24.80
19.66
13.18
5.97
-1.03
-6.87
-10.84
-12.70
-12.78
-11.79
-10.47
-9.46
-9.22
-10.07
-12.11
-15.18
-18.72
-21.80
-23.23
-22.01
-17.71
-10.67
-2.00
6.77
14.25
19.53
22.36
22.96
21.78
19.21
15.52
10.94
5.77
0.48
-4.32
-8.03
-10.34
-11.32
-11.41
-11.25
-11.41
-12.24
-13.97
-16.56
-19.79
-23.28
-26.30
-27.89
-27.05
-23.11
-16.02
-6.54
3.94
13.85
21.84
27.19
29.80
29.93
28.01
24.41
19.48
13.61
7.38
1.49
-3.37
-6.75
-8.53
-8.99
-8.60
-7.89
-7.33
-7.25
-7.99
-9.69
-12.38
-15.75
-19.13
-21.41
-21.46
-18.52
-12.51
-4.16
5.21
14.12
21.35
26.25
28.68
29.01
27.66
25.06
21.51
17.30
12.73
8.08
3.74
-0.06
-3.07
-5.27
-6.69
-7.53
-8.00
-8.33
-8.84
-9.80
-11.55
-14.17
-17.44
-20.51
-22.29
-21.72
-18.11
-11.59
-3.00
6.30
14.84
21.44
25.47
26.83
25.79
22.87
18.60
13.50
8.05
2.69
-2.12
-5.97
-8.55
-9.78
-9.79
-9.10
-8.22
-7.67
-7.78
-8.71
-10.56
-13.28
-16.63
-19.96
-22.38
-22.76
-20.28
-14.70
-6.59
2.78
11.85
19.27
24.31
26.80
27.02
25.38
22.16
17.54
11.68
4.96
-1.97
-8.28
-13.20
-16.31
-17.64
-17.64
-16.94
-16.22
-15.98
-16.50
-17.90
-20.14
-22.91
-25.68
-27.71
-28.06
-25.93
-20.95
-13.38
-4.12
5.49
14.07
20.57
24.47
25.84
25.14
22.86
19.46
15.24
10.47
5.50
0.69
-3.60
-7.14
-9.84
-11.86
-13.44
-14.73
-15.83
-16.80
-17.81
-19.06
-20.70
-22.58
-24.14
-24.56
-22.96
-18.72
-11.89
-3.12
6.47
15.54
23.09
28.47
31.55
32.40
31.19
28.11
23.28
17.00
9.80
2.41
-4.40
-9.96
-13.97
-16.44
-17.56
-17.72
-17.20
-16.42
-15.76
-15.70
-16.53
-18.27
-20.49
-22.24
-22.42
-19.98
-14.55
-6.43
3.35
13.32
22.09
28.59
32.36
33.39
32.11
28.96
24.44
19.03
13.24
7.57
2.49
-1.59
-4.56
-6.45
-7.66
-8.62
-9.73
-11.26
-13.26
-15.67
-18.23
-20.74
-22.85
-24.15
-24.18
-22.36
-18.30
-11.86
-3.34
6.45
16.37
25.25
32.06
36.17
37.41
35.86
31.90
26.11
19.15
11.79
4.81
-1.13
-5.65
-8.67
-10.38
-11.14
-11.30
-11.15
-10.89
-10.71
-10.87
-11.75
-13.65
-16.47
-19.58
-21.85
-22.02
-19.16
-13.10
-4.65
4.81
13.69
20.78
25.49
27.80
27.98
26.33
23.01
18.11
11.89
4.91
-2.06
-8.21
-12.92
-15.85
-17.13
-17.19
-16.58
-15.81
-15.27
-15.28
-16.12
-17.92
-20.59
-23.56
-25.92
-26.46
-24.17
-18.60
-10.15
-0.01
10.26
19.08
25.38
28.74
29.29
27.42
23.61
18.19
11.54
4.16
-3.33
-10.13
-15.55
-19.21
-21.18
-21.91
-21.97
-21.91
-22.15
-23.00
-24.64
-27.08
-30.04
-32.82
-34.40
-33.70
-29.95
-23.06
-13.65
-2.93
7.71
16.99
24.13
28.77
30.96
30.91
28.85
24.97
19.60
13.15
6.12
-0.85
-7.20
-12.47
-16.45
-19.16
-20.83
-21.80
-22.56
-23.55
-25.08
-27.20
-29.60
-31.61
-32.36
-30.92
-26.70
-19.62
-10.14
0.65
11.42
20.89
28.03
32.34
33.67
32.19
28.29
22.43
15.14
7.00
-1.23
-8.71
-14.70
-18.66
-20.47
-20.44
-19.22
-17.65
-16.58
-16.57
-17.88
-20.37
-23.41
-26.04
-27.11
-25.53
-20.72
-12.79
-2.55
8.57
19.04
27.57
33.31
36.05
35.86
33.08
28.16
21.54
13.78
5.62
-2.06
-8.39
-12.67
-14.63
-14.51
-12.98
-11.00
-9.52
-9.23
-10.44
-13.05
-16.53
-19.98
-22.29
-22.33
-19.31
-13.04
-4.04
6.51
17.12
26.44
33.52
37.92
39.56
38.51
35.01
29.32
21.92
13.53
5.16
-2.15
-7.51
-10.57
-11.42
-10.58
-8.88
-7.12
-6.09
-6.30
-8.00
-10.95
-14.51
-17.55
-18.75
-17.03
-11.96
-3.96
5.78
15.73
24.53
31.24
35.41
36.99
35.94
32.29
26.25
18.35
9.54
1.04
-5.90
-10.55
-12.76
-12.99
-12.03
-10.75
-9.94
-10.20
-12.01
-15.49
-20.35
-25.72
-30.24
-32.27
-30.48
-24.40
-14.56
-2.46
9.99
21.03
29.51
34.95
37.45
37.24
34.46
29.35
22.21
13.73
4.90
-3.08
-9.29
-13.23
-15.01
-15.25
-14.80
-14.58
-15.35
-17.61
-21.49
-26.66
-32.23
-36.89
-39.12
-37.65
-31.95
-22.43
-10.30
2.78
15.13
25.56
33.40
38.39
40.53
39.94
36.79
31.43
24.41
16.55
8.81
2.10
-2.99
-6.24
-7.94
-8.72
-9.40
-10.80
-13.55
-17.82
-23.24
-28.88
-33.34
-35.11
-33.03
-26.65
-16.54
-4.08
8.94
20.73
29.97
36.09
39.03
39.16
36.94
32.81
27.16
20.48
13.45
6.92
1.71
-1.68
-3.19
-3.24
-2.59
-2.11
-2.57
-4.49
-8.07
-13.16
-19.21
-25.14
-29.48
-30.67
-27.55
-19.86
-8.43
5.00
18.23
29.36
37.27
41.68
43.00
41.91
38.99
34.65
29.22
23.05
16.64
10.53
5.26
1.05
-2.11
-4.55
-6.65
-8.82
-11.37
-14.48
-18.32
-22.80
-27.59
-31.98
-34.87
-34.91
-31.04
-22.81
-10.75
3.69
18.53
31.81
42.07
48.57
51.32
50.79
47.55
42.27
35.51
27.88
19.99
12.44
5.80
0.39
-3.70
-6.61
-8.65
-10.15
-11.42
-12.76
-14.43
-16.73
-19.94
-23.93
-28.07
-31.12
-31.51
-27.84
-19.64
-7.54
6.73
20.88
32.81
41.26
45.86
47.03
45.44
41.69
36.24
29.47
21.93
14.40
7.80
2.79
-0.37
-1.92
-2.55
-2.90
-3.47
-4.48
-5.95
-7.91
-10.53
-14.03
-18.29
-22.74
-26.18
-27.22
-24.64
-18.00
-7.89
4.09
15.83
25.49
31.93
35.07
35.53
34.15
31.64
28.25
23.99
18.86
13.28
7.92
3.61
0.90
-0.30
-0.47
-0.44
-0.96
-2.40
-4.92
-8.61
-13.55
-19.76
-27.00
-34.43
-40.63
-43.91
-42.82
-36.82
-26.64
-13.97
-1.02
10.22
18.40
23.06
24.43
23.08
19.72
15.01
9.57
4.05
-0.87
-4.61
-6.81
-7.37
-6.55
-4.96
-3.30
-2.17
-2.06
-3.18
-5.58
-9.26
-14.00
-19.32
-24.36
-27.89
-28.61
-25.56
-18.61
-8.44
3.58
15.84
26.81
35.44
41.17
43.83
43.68
41.12
36.69
31.02
24.76
18.35
12.28
6.95
2.67
-0.40
-2.42
-3.74
-4.92
-6.40
-8.48
-11.22
-14.59
-18.54
-23.02
-27.70
-31.75
-33.96
-32.97
-27.82
-18.45
-5.89
8.10
21.57
32.97
41.39
46.58
48.64
47.88
44.71
39.62
33.32
26.67
20.42
15.11
10.96
7.92
5.90
4.66
3.89
3.14
1.76
-0.99
-5.64
-12.52
-21.43
-31.78
-42.60
-52.53
-59.79
-62.49
-59.02
-48.54
-31.55
-9.89
13.59
35.84
54.42
67.99
76.22
79.46
78.37
73.57
65.74
55.73
44.63
33.73
24.32
17.44
13.62
12.77
14.24
16.96
19.74
21.45
21.26
18.76
13.81
6.52
-2.79
-13.49
-24.35
-33.65
-39.44
-40.10
-34.92
-24.45
-10.41
4.89
19.14
30.66
38.62
42.88
43.75
41.75
37.47
31.53
24.63
17.44
10.54
4.28
-1.20
-5.95
-10.01
-13.30
-15.68
-16.93
-17.14
-16.70
-16.29
-16.67
-18.33
-21.31
-24.93
-28.12
-29.45
-27.84
-22.81
-14.66
-4.55
6.06
15.55
22.77
27.08
28.48
27.31
24.05
19.26
13.43
7.14
0.92
-4.62
-9.03
-11.97
-13.43
-13.65
-13.01
-11.94
-10.81
-9.92
-9.56
-10.14
-11.96
-15.08
-19.05
-22.76
-24.80
-23.85
-19.20
-11.14
-0.93
9.59
18.51
24.50
27.09
26.53
23.54
18.97
13.41
7.34
1.11
-4.88
-10.14
-14.07
-16.38
-17.07
-16.52
-15.49
-14.71
-14.72
-15.79
-17.92
-20.96
-24.70
-28.73
-32.33
-34.45
-33.92
-29.77
-21.80
-10.63
2.25
14.93
25.66
33.30
37.41
38.17
36.09
31.78
25.89
18.94
11.43
3.87
-3.21
-9.32
-14.10
-17.40
-19.29
-20.08
-20.17
-20.07
-20.21
-20.95
-22.49
-24.76
-27.45
-29.80
-30.81
-29.42
-24.92
-17.30
-7.34
3.50
13.61
21.62
26.84
29.22
29.18
27.27
23.97
19.63
14.56
9.18
3.97
-0.49
-3.89
-6.14
-7.53
-8.48
-9.32
-10.30
-11.50
-13.08
-15.20
-18.00
-21.44
-24.95
-27.58
-28.05
-25.39
-19.33
-10.58
-0.67
8.62
15.76
20.02
21.40
20.51
18.14
15.00
11.59
8.33
5.67
4.00
3.65
4.57
6.32
8.24
9.71
10.39
10.19
9.18
7.29
4.32
0.01
-5.63
-11.94
-17.60
-21.05
-21.01
-16.99
-9.63
-0.37
8.99
16.85
22.27
25.11
25.67
24.42
21.73
17.71
12.43
6.07
-0.94
-7.85
-13.84
-18.26
-20.77
-21.45
-20.72
-19.16
-17.40
-16.05
-15.57
-16.27
-18.16
-20.77
-23.15
-24.12
-22.62
-18.14
-11.09
-2.57
5.88
12.78
17.21
18.99
18.35
15.84
11.95
6.99
1.22
-4.97
-11.08
-16.44
-20.49
-22.96
-23.90
-23.78
-23.22
-22.85
-23.18
-24.49
-26.73
-29.57
-32.35
-34.09
-33.81
-30.76
-24.68
-16.09
-6.07
3.99
12.73
19.24
23.05
24.15
22.76
19.32
14.22
8.05
1.51
-4.71
-9.89
-13.62
-15.76
-16.51
-16.19
-15.36
-14.54
-14.25
-14.98
-16.92
-19.92
-23.31
-26.03
-26.80
-24.66
-19.24
-10.99
-1.12
8.88
17.61
24.21
28.36
30.19
29.86
27.50
23.12
16.77
8.89
0.30
-7.79
-14.21
-18.21
-19.76
-19.44
-18.21
-17.11
-16.78
-17.53
-19.26
-21.61
-23.94
-25.51
-25.54
-23.33
-18.68
-11.88
-3.73
4.63
12.11
17.92
21.68
23.25
22.76
20.27
15.95
10.01
2.91
-4.59
-11.60
-17.26
-21.05
-22.89
-23.25
-22.95
-22.89
-23.86
-26.12
-29.49
-33.18
-35.99
-36.63
-34.13
-28.16
-19.14
-8.16
3.49
14.55
24.17
31.84
37.31
40.32
40.74
38.49
33.78
27.19
19.53
11.80
4.88
-0.62
-4.53
-7.00
-8.56
-9.90
-11.67
-14.40
-18.27
-22.95
-27.65
-31.13
-32.05
-29.43
-22.92
-13.09
-1.33
10.67
21.25
29.23
34.13
36.00
35.17
32.09
27.26
21.12
14.36
7.66
1.66
-3.02
-6.15
-7.83
-8.37
-8.21
-7.96
-8.11
-9.11
-11.32
-14.72
-18.86
-22.86
-25.40
-25.22
-21.55
-14.33
-4.43
6.63
17.19
25.81
31.64
34.53
34.75
32.73
28.91
23.62
17.27
10.41
3.76
-1.91
-5.98
-8.29
-9.05
-8.85
-8.47
-8.64
-9.87
-12.44
-16.19
-20.54
-24.52
-26.86
-26.23
-21.91
-13.85
-2.88
9.49
21.54
31.78
39.11
43.04
43.53
40.84
35.44
27.99
19.38
10.58
2.55
-4.00
-8.60
-11.24
-12.20
-11.99
-11.24
-10.60
-10.77
-12.30
-15.53
-20.20
-25.48
-29.96
-31.93
-30.05
-23.74
-13.53
-0.83
12.32
23.98
32.76
37.97
39.64
38.23
34.36
28.64
21.69
14.13
6.67
0.07
-5.01
-8.24
-9.71
-9.96
-9.76
-9.78
-10.68
-12.80
-16.31
-20.99
-26.17
-30.81
-33.56
-33.15
-28.79
-20.56
-9.39
3.11
15.18
25.46
33.14
37.98
40.11
39.82
37.43
33.30
27.84
21.61
15.34
9.69
5.13
1.84
-0.39
-2.03
-3.57
-5.51
-8.34
-12.24
-17.39
-23.51
-29.85
-35.22
-38.05
-36.95
-31.10
-20.88
-7.66
6.42
19.24
29.26
35.80
39.00
39.37
37.57
34.07
29.23
23.43
17.19
11.15
5.89
1.86
-0.86
-2.47
-3.40
-4.15
-5.13
-6.68
-8.99
-12.30
-16.71
-22.19
-28.20
-33.65
-37.03
-36.73
-31.84
-22.36
-9.46
4.92
18.63
30.00
38.09
42.67
44.13
42.96
39.78
35.19
29.75
24.07
18.69
14.06
10.37
7.65
5.66
4.13
2.75
1.27
-0.42
-2.37
-4.65
-7.48
-11.15
-15.92
-21.78
-28.10
-33.67
-36.81
-35.94
-30.07
-19.34
-4.90
11.24
26.80
39.88
49.31
54.69
56.26
54.66
50.61
44.84
38.09
30.99
24.24
18.26
13.36
9.62
6.94
5.09
3.79
2.77
1.92
1.21
0.56
-0.25
-1.70
-4.44
-9.03
-15.41
-22.75
-29.40
-33.27
-32.74
-27.14
-17.12
-4.48
8.49
19.84
28.25
33.30
35.19
34.39
31.38
26.73
20.98
14.88
9.21
4.71
1.86
0.69
0.86
1.84
2.98
3.84
4.22
4.04
3.35
2.04
-0.04
-3.14
-7.10
-11.31
-14.68
-15.85
-13.69
-7.67
1.82
13.59
25.97
37.33
46.41
52.51
55.32
54.90
51.36
44.99
36.24
25.84
14.67
3.56
-6.85
-16.22
-24.49
-31.61
-37.50
-41.92
-44.55
-45.40
-44.81
-43.65
-42.95
-43.64
-46.01
-49.50
-52.93
-54.81
-54.13
-50.58
-44.77
-37.95
-31.55
-26.80
-24.40
-24.60
-27.28
-32.14
-38.71
-46.31
-54.14
-61.19
-66.55
-69.36
-69.21
-66.03
-60.28
-52.71
-44.31
-36.04
-28.72
-23.05
-19.39
-17.80
-17.86
-18.72
-19.06
-17.40
-12.43
-3.31
9.84
26.12
43.82
60.95
75.52
85.93
91.17
91.05
86.14
77.69
67.27
56.39
46.23
37.43
30.14
24.23
19.42
15.38
11.85
8.62
5.52
2.42
-0.74
-4.05
-7.65
-11.66
-16.03
-20.32
-23.66
-24.88
-23.05
-17.74
-9.27
1.36
12.75
23.45
32.21
38.22
41.11
40.87
37.88
32.80
26.43
19.58
12.98
6.98
1.80
-2.52
-5.97
-8.57
-10.39
-11.50
-12.04
-12.19
-12.21
-12.42
-13.16
-14.74
-17.37
-20.94
-24.95
-28.35
-29.85
-28.20
-22.70
-13.45
-1.44
11.79
24.56
35.37
43.31
47.86
48.90
46.60
41.47
34.18
25.82
17.50
10.17
4.46
0.54
-1.81
-3.08
-3.69
-3.97
-4.00
-3.74
-3.21
-2.59
-2.36
-3.23
-5.86
-10.63
-17.27
-24.80
-31.62
-35.87
-35.94
-31.02
-21.42
-8.38
6.11
20.01
31.50
39.44
43.16
42.61
38.10
30.37
20.53
9.94
-0.01
-8.23
-14.07
-17.47
-18.79
-18.63
-17.55
-15.97
-14.15
-12.29
-10.64
-9.51
-9.33
-10.59
-13.57
-18.33
-24.46
-31.04
-36.78
-40.14
-39.84
-35.19
-26.29
-13.96
0.39
15.08
28.52
39.29
46.37
49.25
47.91
42.88
35.14
25.84
16.13
6.96
-1.06
-7.62
-12.68
-16.32
-18.68
-19.94
-20.33
-20.10
-19.56
-19.02
-18.76
-19.01
-19.83
-21.00
-22.00
-22.08
-20.25
-15.77
-8.29
1.90
13.80
25.93
36.75
45.03
50.11
51.95
50.94
47.78
43.23
37.95
32.44
27.09
22.09
17.57
13.54
9.93
6.78
4.22
2.37
1.33
1.01
1.09
1.03
0.25
-1.80
-5.43
-10.53
-16.62
-22.79
-27.96
-31.06
-31.29
-28.25
-22.02
-13.11
-2.39
9.07
20.10
29.45
36.02
38.99
38.04
33.47
26.24
17.69
9.26
2.23
-2.75
-5.43
-6.25
-5.85
-4.97
-4.22
-3.97
-4.44
-5.76
-8.02
-11.20
-14.99
-18.63
-21.04
-20.98
-17.67
-11.02
-1.84
8.45
18.33
26.58
32.62
36.37
38.21
38.50
37.47
35.20
31.66
26.93
21.30
15.17
8.92
2.81
-3.01
-8.47
-13.52
-17.88
-21.32
-23.61
-24.87
-25.53
-26.15
-27.10
-28.34
-29.27
-28.92
-26.35
-21.01
-13.18
-3.91
5.19
12.47
16.71
17.56
15.53
11.75
7.46
3.50
0.08
-3.27
-7.22
-12.35
-18.75
-26.13
-34.03
-42.08
-50.30
-59.07
-68.84
-79.98
-92.47
-105.88
-119.21
-130.79
-138.05
-137.88
-127.45
-105.30
-72.50
-32.90
7.60
42.74
67.90
81.62
85.62
83.79
80.32
77.87
76.59
74.48
68.70
57.37
41.10
22.93
7.19
-2.38
-3.92
2.45
15.39
33.07
53.14
72.41
86.67
91.60
84.55
66.10
40.53
14.27
-6.76
-19.54
-24.59
-24.99
-24.25
-24.62
-26.58
-29.14
-30.70
-29.84
-25.76
-18.71
-9.91
-1.22
5.79
10.48
13.60
16.66
20.98
26.75
32.84
37.52
39.44
38.53
35.88
32.94
30.53
28.45
25.77
21.73
16.68
12.05
9.85
11.71
17.85
26.90
36.43
43.76
47.11
46.07
41.42
34.47
26.51
18.12
9.38
0.26
-9.08
-18.08
-25.88
-31.66
-34.97
-35.80
-34.67
-32.40
-29.94
-28.19
-27.79
-29.01
-31.57
-34.61
-36.92
-37.34
-35.06
-29.95
-22.57
-13.99
-5.52
1.67
6.77
9.43
9.65
7.81
4.29
-0.46
-6.06
-12.14
-18.31
-24.11
-29.11
-32.90
-35.21
-36.05
-35.65
-34.35
-32.62
-31.01
-29.96
-29.79
-30.39
-31.09
-30.85
-28.45
-23.02
-14.45
-3.52
8.38
19.61
28.80
35.09
38.16
38.10
35.29
30.18
23.45
15.72
7.64
-0.21
-7.37
-13.51
-18.34
-21.69
-23.58
-24.27
-24.23
-24.16
-24.67
-26.06
-28.32
-30.99
-33.34
-34.49
-33.53
-29.83
-23.17
-13.91
-2.99
8.19
18.14
25.62
29.86
30.74
28.62
24.12
18.00
10.95
3.56
-3.69
-10.36
-16.13
-20.76
-24.12
-26.34
-27.63
-28.37
-29.05
-30.09
-31.71
-33.91
-36.25
-37.83
-37.61
-34.45
-27.77
-17.74
-5.39
7.70
19.83
29.59
36.26
39.63
39.96
37.59
32.83
26.06
17.67
8.31
-1.28
-10.21
-17.92
-23.99
-28.49
-31.73
-34.09
-36.03
-37.83
-39.65
-41.49
-43.26
-44.53
-44.62
-42.67
-37.86
-29.88
-18.98
-6.17
7.05
19.12
28.78
35.35
38.67
39.02
36.79
32.47
26.45
19.17
11.16
2.97
-4.75
-11.46
-16.70
-20.25
-22.27
-23.19
-23.71
-24.52
-26.27
-29.24
-33.19
-37.31
-40.20
-40.44
-36.90
-29.20
-17.89
-4.35
9.63
22.40
32.73
40.03
44.16
45.17
43.17
38.40
31.17
22.15
12.20
2.31
-6.53
-13.62
-18.66
-21.77
-23.35
-23.92
-23.91
-23.74
-23.87
-24.65
-26.14
-28.03
-29.38
-28.85
-25.12
-17.41
-6.03
7.64
21.53
33.61
42.45
47.46
48.86
47.18
43.02
36.84
28.98
19.94
10.30
0.87
-7.53
-14.26
-19.01
-21.84
-23.12
-23.41
-23.29
-23.46
-24.42
-26.48
-29.43
-32.56
-34.67
-34.27
-30.16
-21.66
-9.20
6.00
21.94
36.54
48.11
55.68
59.09
58.66
55.02
48.83
40.73
31.34
21.37
11.49
2.34
-5.59
-12.09
-17.04
-20.59
-22.86
-24.24
-25.32
-26.77
-29.11
-32.33
-35.78
-38.09
-37.67
-33.03
-23.57
-9.73
7.04
24.64
40.85
53.82
62.48
66.51
66.25
62.34
55.42
46.07
34.79
22.34
9.66
-2.02
-11.61
-18.38
-22.19
-23.54
-23.22
-22.23
-21.35
-21.23
-22.21
-24.40
-27.38
-30.09
-31.01
-28.54
-21.68
-10.44
4.05
19.81
34.72
47.04
55.74
60.49
61.39
58.78
53.14
45.12
35.48
25.08
14.75
5.17
-3.16
-9.89
-14.82
-17.97
-19.59
-20.14
-20.24
-20.60
-21.90
-24.59
-28.59
-33.07
-36.58
-37.29
-33.52
-24.52
-10.76
6.07
23.51
39.09
51.01
58.38
61.16
59.92
55.34
48.10
38.87
28.27
17.11
6.22
-3.54
-11.46
-17.12
-20.56
-22.11
-22.33
-21.95
-21.59
-21.87
-23.18
-25.63
-28.88
-32.03
-33.67
-32.14
-26.25
-15.59
-1.02
15.53
31.71
45.35
55.08
60.45
61.76
59.59
54.60
47.28
38.02
27.48
16.45
5.92
-3.23
-10.41
-15.37
-18.18
-19.25
-19.10
-18.29
-17.50
-17.38
-18.47
-20.94
-24.34
-27.59
-29.08
-27.20
-20.75
-9.68
4.93
21.03
36.17
48.31
56.15
59.33
58.21
53.59
46.35
37.38
27.54
17.60
8.28
0.14
-6.41
-11.19
-14.23
-15.65
-15.73
-14.89
-13.72
-12.89
-13.13
-15.08
-18.95
-24.39
-30.13
-34.31
-34.87
-30.35
-20.40
-6.05
10.53
26.79
40.42
50.09
55.37
56.59
54.39
49.35
42.03
32.93
22.75
12.32
2.56
-5.81
-12.29
-16.78
-19.49
-20.75
-20.97
-20.55
-20.07
-20.12
-21.39
-24.14
-28.08
-32.17
-34.70
-33.83
-28.18
-17.48
-2.72
14.04
30.28
43.80
53.16
57.88
58.25
54.90
48.70
40.37
30.64
20.31
10.25
1.27
-5.92
-11.06
-14.23
-15.76
-16.15
-15.92
-15.46
-15.18
-15.69
-17.52
-21.06
-26.07
-31.50
-35.60
-36.39
-32.41
-23.28
-10.06
5.36
20.60
33.63
43.13
48.61
50.19
48.38
43.73
36.78
28.23
18.72
9.03
-0.03
-7.82
-13.84
-17.88
-20.12
-20.93
-20.77
-20.26
-19.99
-20.45
-22.14
-25.27
-29.53
-33.88
-36.72
-36.22
-31.10
-21.06
-6.98
9.09
24.77
37.93
47.16
51.96
52.61
49.67
43.97
36.36
27.59
18.47
9.70
1.84
-4.76
-9.88
-13.53
-15.78
-16.74
-16.68
-15.91
-15.07
-14.90
-16.15
-19.25
-24.03
-29.54
-34.09
-35.76
-32.89
-24.82
-12.10
3.61
19.94
34.44
45.30
51.60
53.34
51.19
46.03
38.71
29.97
20.52
11.00
2.11
-5.51
-11.38
-15.35
-17.53
-18.30
-18.11
-17.41
-16.65
-16.39
-17.26
-19.79
-24.08
-29.45
-34.37
-36.86
-35.13
-28.32
-16.88
-2.52
12.39
25.63
35.61
41.65
43.76
42.31
37.76
30.70
21.76
11.71
1.42
-8.24
-16.51
-22.91
-27.13
-29.23
-29.42
-28.16
-26.13
-24.16
-23.17
-23.85
-26.52
-30.83
-35.68
-39.31
-39.88
-35.81
-26.56
-12.86
3.47
19.90
34.01
44.12
49.53
50.36
47.27
41.10
32.57
22.37
11.17
-0.09
-10.41
-18.82
-24.70
-27.90
-28.77
-28.17
-26.98
-26.12
-26.28
-27.94
-31.26
-35.96
-41.08
-45.01
-45.92
-42.16
-33.13
-19.44
-2.98
13.72
28.25
38.99
45.34
47.58
46.43
42.59
36.65
29.04
20.24
11.02
2.23
-5.33
-11.21
-15.34
-18.06
-19.83
-21.11
-22.37
-23.98
-26.44
-30.04
-34.77
-39.95
-44.29
-46.13
-43.99
-37.18
-25.98
-11.68
3.91
18.81
31.45
40.82
46.54
48.59
47.20
42.73
35.67
26.72
16.82
7.04
-1.49
-7.91
-11.83
-13.45
-13.43
-12.75
-12.36
-13.13
-15.66
-20.14
-26.25
-33.03
-38.92
-42.04
-40.65
-33.82
-21.81
-6.11
10.98
27.02
40.10
49.17
53.99
54.90
52.44
47.11
39.46
30.12
19.92
9.94
1.24
-5.33
-9.35
-10.96
-10.81
-9.84
-9.02
-9.26
-11.17
-15.08
-20.84
-27.76
-34.47
-39.09
-39.65
-34.76
-24.25
-9.37
7.47
23.45
36.24
44.43
47.77
46.79
42.41
35.51
26.88
17.22
7.26
-2.16
-10.35
-16.75
-21.18
-23.74
-24.86
-25.03
-24.81
-24.92
-26.11
-29.18
-34.41
-41.60
-49.48
-56.07
-59.05
-56.64
-48.27
-34.97
-19.18
-3.95
7.78
14.24
15.20
12.08
7.41
4.13
4.73
10.43
20.94
34.49
48.50
60.54
68.81
72.59
71.96
67.57
60.14
50.51
39.54
28.24
17.72
8.87
2.31
-1.96
-4.27
-5.33
-5.72
-6.05
-6.73
-8.08
-10.61
-14.67
-20.43
-27.40
-34.34
-39.19
-39.85
-34.78
-23.69
-7.91
10.08
27.33
41.28
50.40
54.39
53.87
49.82
43.33
35.26
26.36
17.38
9.07
2.13
-2.93
-5.93
-7.20
-7.37
-7.30
-7.69
-9.03
-11.64
-15.73
-21.51
-28.90
-37.40
-45.60
-51.44
-52.61
-47.29
-35.08
-17.24
3.48
23.81
40.81
52.77
59.21
60.71
58.34
53.22
46.28
38.14
29.38
20.53
12.35
5.48
0.45
-2.62
-3.94
-4.05
-3.74
-3.71
-4.53
-6.55
-10.05
-15.27
-22.17
-30.21
-37.99
-43.46
-44.34
-39.05
-27.39
-10.81
7.98
25.88
40.33
49.96
54.64
55.10
52.28
47.16
40.61
33.27
25.72
18.45
11.90
6.34
2.03
-1.03
-2.93
-3.83
-4.10
-4.11
-4.22
-4.78
-6.21
-8.96
-13.46
-19.77
-27.17
-34.21
-38.73
-38.53
-32.27
-20.01
-3.27
15.28
32.81
47.01
56.52
61.01
60.96
57.15
50.59
42.30
33.18
24.20
16.18
9.73
5.20
2.59
1.52
1.45
1.74
1.81
1.36
0.26
-1.54
-4.24
-8.19
-13.90
-21.54
-30.56
-39.52
-46.19
-48.20
-43.90
-33.03
-17.00
1.53
19.59
34.69
45.42
51.48
53.23
51.40
46.67
39.61
30.84
21.23
11.86
3.85
-2.03
-5.62
-7.31
-7.84
-7.96
-8.18
-8.77
-9.76
-11.18
-13.26
-16.44
-21.08
-27.16
-33.82
-39.39
-41.87
-39.44
-31.19
-17.76
-1.02
16.28
31.43
42.51
48.72
50.14
47.48
41.71
33.81
24.77
15.52
6.94
-0.30
-5.73
-9.33
-11.37
-12.32
-12.61
-12.58
-12.47
-12.48
-12.88
-14.09
-16.64
-21.00
-27.32
-34.99
-42.59
-47.97
-49.01
-44.21
-33.45
-18.02
-0.34
16.78
30.92
40.57
45.35
45.68
42.52
36.94
29.99
22.60
15.44
9.09
3.89
0.06
-2.38
-3.56
-3.81
-3.61
-3.49
-3.96
-5.32
-7.82
-11.62
-16.97
-23.96
-32.23
-40.83
-47.95
-51.42
-49.25
-40.61
-26.14
-8.00
10.85
27.59
40.25
48.05
51.24
50.74
47.51
42.46
36.22
29.32
22.25
15.45
9.31
4.08
-0.20
-3.61
-6.36
-8.71
-10.90
-13.14
-15.60
-18.48
-22.10
-26.78
-32.55
-38.84
-44.30
-47.07
-45.27
-37.88
-25.14
-8.74
8.75
24.74
37.32
45.60
49.65
50.09
47.54
42.64
35.88
27.80
19.16
10.77
3.40
-2.36
-6.23
-8.34
-8.95
-8.58
-7.79
-7.09
-7.00
-7.97
-10.42
-14.56
-20.38
-27.16
-33.64
-38.04
-38.49
-33.74
-23.68
-9.54
6.48
21.74
34.13
42.35
46.10
45.88
42.41
36.50
28.96
20.55
12.10
4.42
-1.87
-6.49
-9.39
-10.88
-11.39
-11.31
-11.02
-10.86
-11.06
-11.83
-13.53
-16.35
-20.55
-25.83
-31.31
-35.50
-36.63
-33.23
-24.70
-11.84
3.52
18.73
31.39
39.90
43.66
43.08
39.05
32.54
24.45
15.48
6.33
-2.31
-9.61
-15.04
-18.33
-19.69
-19.65
-18.76
-17.57
-16.43
-15.67
-15.63
-16.76
-19.46
-23.86
-29.44
-34.92
-38.51
-38.23
-32.80
-22.03
-7.11
9.71
25.71
38.51
46.65
49.68
48.08
42.78
34.76
25.02
14.39
3.71
-6.28
-14.91
-21.66
-26.28
-28.80
-29.57
-29.13
-28.20
-27.34
-27.08
-27.81
-29.82
-33.20
-37.62
-42.15
-45.23
-45.06
-40.05
-29.68
-14.81
2.46
19.44
33.68
43.61
48.75
49.39
46.29
40.25
31.98
22.27
11.88
1.69
-7.51
-15.10
-20.76
-24.40
-26.19
-26.44
-25.52
-23.98
-22.43
-21.62
-22.23
-24.69
-28.82
-33.75
-37.89
-39.22
-36.19
-28.05
-15.44
-0.15
15.37
28.86
38.76
44.49
46.37
44.94
40.99
35.09
27.69
19.25
10.27
1.35
-6.86
-13.75
-19.05
-22.59
-24.54
-25.34
-25.51
-25.70
-26.51
-28.45
-31.70
-35.92
-39.98
