1680163633.00
64.000000
-0.00
-0.00
-0.00
-0.00
-0.00
-0.00
-0.00
-0.00
-0.00
-0.00
0.00
0.01
0.01
-0.00
-0.03
-0.05
-0.05
0.00
0.13
0.36
0.66
1.01
1.37
1.72
2.06
2.40
2.79
3.24
3.80
4.42
5.06
5.66
6.20
6.68
7.15
7.68
8.31
9.14
10.09
11.04
11.88
12.56
13.14
13.76
14.65
15.96
17.91
20.32
22.90
25.38
27.58
29.57
31.68
34.32
37.81
42.54
48.15
54.10
59.83
64.97
69.58
74.14
79.34
85.71
93.76
103.00
112.62
121.73
129.77
136.75
143.30
150.75
157.77
166.64
177.95
191.79
206.97
220.57
228.25
225.36
208.53
176.87
132.76
80.05
23.07
-34.94
-92.44
-149.16
-205.23
-260.37
-313.74
-363.86
-409.82
-450.88
-486.45
-515.66
-537.12
-549.08
-549.78
-538.14
-513.93
-478.34
-433.49
-382.00
-326.51
-269.26
-211.98
-155.94
-102.15
-51.50
-4.94
36.64
72.58
102.62
126.89
145.90
160.35
170.97
178.37
182.95
184.99
184.72
182.43
178.45
173.20
167.09
160.45
153.56
146.53
139.46
132.37
125.32
118.37
111.58
105.04
98.79
92.86
87.28
82.05
77.18
72.68
68.55
64.80
61.45
58.49
55.93
53.76
51.96
50.51
49.36
48.43
47.62
46.81
45.82
44.50
42.68
40.24
37.09
33.18
28.58
23.34
17.63
11.64
5.62
-0.20
-5.60
-10.41
-14.48
-17.75
-20.21
-21.89
-22.87
-23.26
-23.16
-22.69
-21.92
-20.93
-19.71
-18.26
-16.55
-14.55
-12.23
-9.56
-6.53
-3.11
0.65
4.71
8.98
13.40
17.80
22.04
25.98
29.52
32.61
35.21
37.37
39.16
40.76
42.18
43.56
45.03
46.78
48.97
51.80
55.45
60.05
65.79
72.54
80.19
88.58
97.57
106.96
116.55
126.14
135.55
144.64
153.00
160.30
166.25
170.56
172.97
173.09
170.51
164.57
156.57
147.08
136.54
125.33
113.84
102.42
91.44
81.23
72.15
64.52
58.30
53.49
50.03
47.82
46.71
46.52
47.05
48.06
49.33
50.36
50.73
50.09
48.18
44.88
40.15
34.11
26.89
18.72
9.68
-0.09
-10.49
-21.27
-32.00
-42.09
-50.87
-57.74
-62.33
-64.66
-64.94
-63.67
-61.31
-58.16
-54.35
-49.97
-45.26
-40.76
-37.31
-35.88
-37.60
-43.04
-51.97
-63.44
-76.09
-88.78
-101.05
-113.22
-126.12
-141.45
-160.00
-181.17
-202.98
-222.85
-238.82
-250.43
-259.06
-267.25
-279.42
-298.48
-324.64
-355.54
-387.38
-416.90
-443.00
-467.06
-492.28
-525.50
-572.40
-635.56
-713.09
-798.18
-880.36
-947.90
-990.90
-1003.79
-990.46
-958.85
-917.17
-870.25
-817.80
-755.45
-677.42
-579.46
-437.20
-242.32
-2.67
257.78
506.36
714.11
865.66
961.30
1011.87
1030.53
1026.29
1003.53
964.65
913.16
854.62
795.17
739.28
688.34
641.96
595.72
546.06
492.02
435.48
380.03
329.08
284.44
245.98
212.48
180.58
147.56
112.18
74.49
34.82
-7.37
-53.71
-105.84
-163.23
-222.41
-275.78
-313.20
-325.25
-306.96
-260.23
-193.89
-121.34
-56.72
-11.68
7.25
-0.61
-31.10
-77.16
-130.92
-185.16
-233.77
-271.67
-294.69
-299.84
-286.17
-255.87
-214.29
-168.58
-125.53
-89.22
-59.97
-35.00
-10.12
18.44
52.95
93.83
139.66
186.78
229.40
260.18
272.37
262.30
231.30
185.53
133.70
83.64
39.76
2.77
-28.46
-54.34
-73.17
-81.65
-77.14
-59.59
-31.91
1.44
36.76
72.59
109.55
148.77
189.71
228.92
260.44
277.59
275.35
252.09
210.02
154.37
91.94
29.41
-27.85
-76.38
-114.49
-141.72
-158.12
-163.71
-158.26
-141.66
-114.27
-77.21
-32.16
18.72
72.79
126.56
175.39
213.43
234.83
235.54
215.21
177.74
130.18
80.15
33.37
-7.63
-42.76
-72.36
-95.40
-108.81
-108.48
-91.22
-56.38
-6.45
53.44
116.80
176.98
227.98
264.95
284.66
286.12
270.76
242.19
205.30
164.95
124.88
87.12
51.94
18.31
-15.69
-51.99
-91.63
-133.79
-175.21
-210.50
-233.51
-239.28
-225.65
-194.07
-148.89
-95.78
-40.19
13.56
62.17
102.85
133.00
150.38
153.80
143.78
122.47
92.99
58.39
20.61
-20.02
-64.38
-113.23
-165.71
-218.23
-264.61
-297.74
-311.88
-304.78
-278.22
-237.02
-186.66
-131.24
-72.60
-11.34
51.23
111.61
164.09
202.32
221.84
221.78
204.96
176.38
140.81
100.96
56.79
6.65
-50.51
-112.92
-175.04
-228.63
-265.44
-280.22
-272.74
-247.49
-211.48
-171.16
-130.11
-88.45
-43.93
5.86
61.41
120.16
176.76
224.47
257.11
270.91
265.37
243.06
208.42
165.73
117.69
65.06
7.74
-53.26
-114.29
-169.03
-210.18
-232.00
-232.56
-214.16
-182.07
-141.90
-97.38
-49.12
4.21
63.42
126.28
186.57
235.47
264.72
269.92
252.28
217.84
174.58
129.09
84.05
38.30
-11.04
-65.42
-122.54
-176.23
-218.60
-243.08
-247.06
-232.46
-204.26
-167.80
-126.34
-80.37
-28.81
28.45
88.43
144.61
188.62
213.20
214.91
195.08
158.76
112.31
61.04
8.23
-44.39
-95.32
-142.13
-181.19
-208.66
-221.72
-219.51
-203.22
-175.45
-139.25
-97.26
-51.34
-2.92
46.58
95.04
139.35
175.52
199.43
207.83
199.21
174.26
135.73
87.79
35.26
-17.05
-64.80
-104.47
-133.67
-151.44
-158.23
-155.56
-145.33
-128.93
-106.81
-78.52
-43.39
-1.44
45.90
95.58
143.44
185.01
216.42
235.03
239.61
230.30
208.33
175.65
134.51
87.11
35.36
-18.79
-72.92
-123.80
-167.36
-199.38
-216.41
-216.70
-200.49
-169.68
-127.13
-76.05
-19.94
37.24
90.83
135.77
167.43
182.75
181.03
164.01
135.02
97.88
55.86
11.35
-33.83
-77.89
-118.66
-153.72
-180.79
-198.20
-205.21
-201.91
-188.99
-167.40
-138.20
-102.58
-61.90
-17.85
27.45
71.39
110.96
142.96
164.44
173.28
168.55
150.77
121.70
84.07
41.10
-3.66
-46.66
-84.76
-115.65
-138.13
-152.12
-158.14
-156.74
-147.88
-131.05
-105.74
-72.23
-32.09
11.93
56.55
98.72
136.13
167.12
190.24
203.76
205.65
194.14
168.45
129.63
80.81
26.87
-26.33
-73.17
-109.18
-131.80
-140.53
-136.61
-122.42
-100.71
-73.96
-44.18
-12.83
19.02
50.57
81.12
110.09
136.99
161.21
181.74
197.00
204.89
203.09
189.79
164.22
127.07
80.69
28.82
-23.89
-72.63
-113.27
-143.12
-161.13
-167.86
-164.70
-153.17
-134.29
-108.48
-75.84
-36.65
8.10
56.54
105.92
152.79
193.36
223.93
241.62
244.96
234.41
212.26
181.93
146.98
110.09
72.47
33.94
-6.36
-48.84
-92.61
-135.07
-172.32
-200.06
-214.67
-213.95
-197.42
-166.04
-121.79
-67.33
-5.98
58.07
119.53
172.36
210.76
230.67
231.04
214.29
185.47
150.59
114.69
80.56
48.58
17.51
-14.56
-49.48
-88.69
-132.73
-180.39
-228.08
-269.72
-297.98
-306.56
-292.28
-256.00
-201.94
-136.06
-64.46
7.19
73.58
129.49
170.19
192.46
195.74
182.39
156.80
123.86
87.35
49.09
8.77
-35.12
-83.82
-136.49
-189.31
-235.56
-267.37
-278.38
-266.02
-232.28
-182.43
-122.57
-57.70
8.72
73.79
133.66
183.15
216.78
230.81
224.91
202.34
168.55
128.89
86.89
43.39
-2.95
-54.00
-110.27
-169.35
-225.62
-271.40
-299.33
-304.90
-288.21
-253.61
-207.64
-156.10
-102.07
-45.96
12.54
71.82
126.94
170.53
195.49
198.02
179.06
143.27
96.36
42.46
-16.67
-80.15
-145.47
-206.72
-255.28
-282.77
-284.74
-262.82
-224.18
-178.51
-134.25
-95.97
-63.81
-34.80
-4.83
29.72
70.81
118.26
169.31
218.56
258.62
281.57
280.83
252.83
198.09
121.31
30.77
-62.84
-148.26
-215.98
-260.34
-281.00
-282.66
-272.93
-259.27
-246.00
-233.12
-217.07
-192.69
-155.25
-101.66
-31.14
54.45
150.21
248.33
339.17
413.57
465.54
493.83
501.77
495.35
480.45
461.02
438.82
414.36
388.08
360.92
333.78
306.49
277.34
243.36
201.13
148.09
83.69
10.72
-64.09
-130.76
-178.54
-199.60
-192.60
-164.10
-126.76
-94.87
-79.31
-84.50
-108.64
-146.43
-192.30
-242.13
-293.02
-341.72
-383.72
-413.67
-427.03
-421.93
-399.87
-365.23
-323.74
-280.81
-240.24
-203.81
-171.35
-141.19
-110.63
-76.58
-36.02
12.85
69.42
129.84
186.81
230.76
252.07
244.30
206.81
146.07
74.51
7.31
-41.77
-63.94
-56.73
-23.20
30.11
95.17
163.54
226.59
275.89
304.16
307.04
284.57
241.37
184.93
122.82
60.45
0.56
-55.41
-105.53
-146.75
-175.39
-188.78
-186.56
-170.74
-144.65
-111.35
-72.65
-28.74
21.03
76.96
137.80
200.05
258.05
305.18
335.54
345.69
335.75
309.39
272.47
231.23
190.61
153.31
119.74
88.82
58.96
28.91
-1.75
-32.72
-63.58
-94.40
-126.03
-159.61
-195.68
-233.56
-271.39
-306.74
-337.51
-362.25
-379.66
-388.04
-385.13
-369.26
-341.18
-305.50
-270.48
-245.46
-237.11
-246.27
-267.32
-290.39
-305.50
-306.31
-291.90
-265.78
-233.36
-199.14
-165.34
-132.36
-100.16
-69.43
-41.71
-18.49
0.03
15.40
30.51
48.19
69.87
94.97
121.21
145.82
167.17
185.88
204.82
227.99
258.26
295.34
334.74
368.61
388.14
386.43
360.60
312.29
246.62
170.63
91.98
18.31
-43.36
-87.45
-111.43
-117.06
-110.64
-101.21
-97.44
-104.35
-121.52
-143.74
-163.45
-173.97
-172.00
-158.14
-136.00
-110.20
-84.49
-60.56
-37.96
-14.40
13.30
48.01
90.66
138.81
185.83
221.68
235.71
220.66
176.23
110.32
37.05
-27.76
-71.74
-89.35
-82.55
-58.57
-26.56
5.58
33.03
54.48
71.69
88.27
108.32
134.84
168.38
206.76
245.30
278.35
300.83
309.56
303.71
284.47
254.33
216.22
172.79
125.86
76.19
23.72
-31.53
-88.23
-142.67
-188.86
-219.99
-230.92
-220.56
-192.82
-155.48
-117.44
-85.63
-62.82
-47.58
-36.01
-24.42
-11.49
1.08
9.52
10.21
1.74
-13.95
-32.08
-46.80
-53.62
-51.19
-41.62
-29.47
-19.58
-15.17
-16.83
-22.80
-30.16
-36.16
-39.00
-37.81
-32.15
-21.72
-6.48
12.69
33.47
52.27
65.24
69.81
65.89
55.88
43.60
32.57
24.80
20.91
20.91
25.34
35.62
53.23
78.23
108.24
138.35
162.42
174.84
172.12
153.54
121.23
79.68
35.19
-4.90
-33.44
-45.06
-37.75
-13.63
21.43
59.27
91.46
111.04
113.72
98.40
67.18
25.04
-21.01
-63.01
-93.75
-108.21
-104.68
-85.00
-53.99
-18.24
15.14
39.73
50.86
46.48
27.74
-1.00
-32.86
-60.12
-76.00
-76.36
-60.65
-31.95
3.75
38.76
65.26
76.78
69.76
44.64
6.08
-37.69
-76.79
-102.03
-107.42
-91.46
-57.46
-12.35
35.04
75.81
102.64
110.92
99.41
70.46
29.84
-14.09
-51.84
-74.78
-77.11
-57.38
-18.96
30.71
81.76
124.14
149.49
152.66
132.53
92.17
38.61
-18.27
-67.50
-99.50
-108.32
-93.22
-58.92
-14.20
30.28
64.54
81.01
75.65
48.22
2.42
-54.50
-112.49
-160.39
-188.37
-190.54
-166.74
-122.64
-68.33
-15.79
23.87
42.71
37.50
10.24
-32.03
-78.55
-117.02
-136.65
-130.91
-99.39
-47.81
13.57
72.56
117.86
141.24
138.86
111.80
65.72
10.04
-43.68
-84.00
-102.19
-94.44
-63.22
-16.98
31.86
70.20
87.85
80.24
49.50
3.47
-46.73
-89.77
-116.86
-123.53
-110.23
-81.61
-45.06
-8.65
20.83
39.24
45.62
41.80
31.64
19.97
11.56
10.29
18.17
34.66
56.47
78.18
93.83
98.93
92.10
75.62
54.51
34.70
21.11
16.30
20.08
29.97
42.17
52.51
57.42
54.53
43.22
24.81
2.29
-20.36
-39.15
-51.14
-55.16
-52.08
-44.48
-35.80
-29.35
-27.36
-30.37
-37.03
-44.56
-49.59
-49.28
-42.28
-29.09
-11.88
5.91
20.11
26.35
20.86
1.63
-30.48
-71.16
-113.17
-148.10
-168.77
-171.31
-156.32
-128.59
-95.84
-66.87
-49.53
-48.99
-66.25
-97.60
-135.19
-169.05
-189.80
-190.98
-170.28
-129.61
-74.43
-12.89
44.90
88.41
108.87
102.04
70.39
23.21
-25.76
-62.52
-76.93
-65.37
-30.90
18.42
72.19
119.93
152.79
164.95
154.48
124.06
80.80
34.83
-3.18
-24.84
-26.33
-9.17
20.59
54.42
83.58
100.97
102.31
86.75
57.01
19.33
-17.41
-43.48
-50.87
-35.93
-0.77
47.07
96.76
137.34
160.64
162.98
145.47
113.13
73.44
34.81
5.01
-10.18
-8.32
9.00
36.20
64.71
84.90
88.38
70.22
30.49
-25.33
-87.15
-142.64
-180.17
-191.93
-175.92
-136.50
-83.07
-27.69
17.89
44.81
48.91
31.26
-2.30
-42.68
-79.73
-104.51
-111.33
-98.88
-70.38
-32.48
6.24
37.38
54.63
55.22
40.62
16.37
-9.16
-26.85
-29.34
-13.17
20.02
63.72
108.32
143.82
162.47
160.67
139.46
103.88
61.48
20.75
-10.44
-26.11
-23.41
-3.48
28.35
63.42
91.80
104.96
98.31
72.49
33.20
-10.51
-48.72
-73.25
-79.50
-67.35
-40.91
-7.32
24.84
47.46
54.45
42.99
14.49
-25.48
-68.18
-103.57
-123.03
-121.46
-98.59
-58.82
-9.86
39.02
78.88
102.63
106.06
88.81
54.61
10.91
-32.63
-66.34
-83.05
-79.79
-58.46
-25.00
12.17
44.10
63.21
64.75
47.88
16.04
-23.63
-61.74
-88.96
-98.45
-87.60
-58.62
-17.79
26.25
64.46
89.17
95.59
82.61
53.28
14.32
-25.14
-55.66
-69.92
-64.75
-41.99
-8.15
27.42
54.84
66.22
57.73
30.61
-9.12
-52.13
-88.17
-108.71
-108.99
-88.83
-52.37
-6.96
38.39
74.54
93.95
92.30
69.95
32.44
-10.46
-47.13
-67.41
-65.63
-42.30
-3.75
40.05
78.43
102.94
109.13
96.96
70.26
35.33
-0.31
-29.44
-46.52
-48.79
-37.04
-15.53
8.97
29.01
38.59
34.89
19.03
-4.42
-29.07
-48.57
-58.34
-56.28
-42.96
-21.11
4.90
29.66
47.45
53.30
44.38
21.19
-12.04
-48.05
-78.52
-96.50
-98.44
-85.10
-60.90
-32.40
-6.42
11.46
17.82
11.65
-5.57
-30.29
-57.49
-81.76
-98.64
-105.74
-103.27
-93.72
-80.90
-68.58
-59.45
-54.66
-54.00
-56.34
-60.04
-63.15
-63.54
-59.42
-49.99
-36.19
-20.78
-7.58
0.08
0.78
-4.33
-11.97
-18.27
-20.36
-17.36
-10.43
-1.93
5.82
11.63
15.83
19.89
25.52
33.56
43.34
52.74
59.22
61.09
58.48
53.45
48.94
47.40
49.63
54.53
59.77
62.98
62.76
58.95
52.35
44.12
35.17
25.95
16.64
7.42
-1.26
-8.76
-14.54
-18.53
-21.11
-22.81
-24.01
-24.65
-24.34
-22.77
-20.04
-16.70
-13.36
-10.21
-6.77
-2.23
3.93
11.39
18.95
25.01
28.33
28.71
27.00
24.57
22.72
22.12
22.66
23.63
24.12
23.32
20.83
16.90
12.38
8.44
6.04
5.35
5.59
5.35
3.43
-0.52
-5.78
-11.01
-15.06
-17.61
-19.44
-21.89
-26.17
-32.75
-41.21
-50.42
-59.02
-65.65
-69.18
-68.93
-64.87
-57.81
-49.34
-41.31
-35.17
-31.34
-29.04
-26.60
-22.21
-14.72
-4.15
8.31
20.69
30.88
37.24
39.02
36.49
30.87
24.09
18.26
15.22
16.19
21.52
30.57
41.83
53.12
61.84
65.42
61.70
49.54
29.29
3.01
-25.61
-52.06
-72.12
-83.05
-84.39
-77.80
-66.30
-53.12
-40.70
-30.24
-22.00
-15.75
-11.35
-8.81
-8.10
-8.95
-10.76
-12.92
-15.02
-17.06
-19.20
-21.28
-22.42
-21.04
-15.45
-4.69
10.67
28.38
45.15
57.82
64.57
65.60
63.07
60.18
60.01
64.50
73.95
87.27
102.68
118.49
133.68
147.98
161.74
175.62
190.23
205.79
221.80
236.96
249.21
256.18
255.99
248.01
233.18
213.87
193.05
173.47
157.01
144.60
136.29
131.55
129.39
128.41
127.06
123.95
118.45
110.90
102.46
94.47
87.74
82.04
76.13
68.33
57.27
42.48
24.40
4.01
-17.82
-40.99
-66.24
-95.15
-129.91
-173.07
-226.99
-292.64
-368.18
-448.01
-523.18
-583.61
-621.32
-633.27
-622.26
-595.48
-561.29
-526.15
-493.07
-461.95
-431.32
-399.99
-367.79
-335.17
-302.35
-268.94
-233.95
-196.61
-156.84
-115.41
-73.73
-33.13
5.99
44.47
84.22
127.06
173.34
220.92
265.35
301.28
324.67
334.54
333.29
325.27
314.64
303.42
291.03
275.34
254.42
228.10
198.09
166.99
137.10
109.63
85.02
63.70
46.60
34.99
29.56
29.42
31.84
33.14
30.39
22.75
11.92
1.12
-6.53
-9.51
-8.52
-5.75
-3.78
-4.35
-7.83
-13.39
-19.71
-25.86
-31.84
-38.34
-46.21
-55.48
-65.01
-72.62
-76.27
-75.22
-70.83
-66.28
-65.24
-70.38
-82.45
-100.38
-122.07
-145.32
-168.34
-189.56
-207.30
-219.54
-224.21
-219.76
-205.84
-183.50
-155.14
-123.92
-92.97
-64.76
-40.52
-20.03
-1.84
16.27
36.80
62.09
93.99
133.24
178.65
226.50
270.77
304.53
322.28
322.19
307.05
283.20
258.03
237.22
223.04
214.58
209.16
204.28
198.65
192.32
185.91
179.75
173.52
166.47
157.92
147.77
136.72
126.07
117.26
111.40
108.88
109.45
112.56
117.79
125.16
134.80
146.42
158.66
169.06
174.60
172.64
161.91
142.92
117.77
89.50
61.17
35.18
12.85
-5.62
-21.10
-35.28
-50.41
-68.96
-93.09
-123.87
-160.43
-199.44
-235.47
-262.33
-274.98
-271.51
-253.93
-227.67
-199.70
-176.21
-160.76
-153.66
-152.59
-154.04
-154.70
-152.59
-147.33
-140.02
-132.44
-126.24
-122.26
-120.15
-118.88
-117.60
-116.56
-117.45
-122.84
-134.79
-153.59
-177.17
-201.83
-223.73
-240.45
-251.72
-259.00
-264.29
-268.67
-271.81
-271.98
-266.81
-254.13
-232.12
-199.19
-153.45
-93.18
-18.17
68.39
158.71
241.19
303.25
335.88
337.10
312.98
275.25
236.69
206.56
188.09
178.93
173.83
167.78
158.00
144.39
128.72
113.41
100.46
90.95
84.89
81.46
79.75
79.04
79.15
80.23
82.38
85.25
88.05
89.93
90.40
89.51
87.47
84.20
78.95
70.52
57.88
40.85
20.38
-1.71
-23.23
-42.25
-57.47
-68.32
-74.82
-77.29
-76.11
-71.64
-64.34
-54.97
-44.87
-35.85
-29.64
-27.00
-26.93
-26.56
-22.29
-11.46
5.79
25.99
43.23
51.36
46.41
28.21
0.47
-30.50
-57.71
-75.25
-79.43
-68.97
-44.92
-10.54
28.83
66.11
93.48
104.26
95.07
67.52
28.37
-12.30
-44.17
-59.90
-57.28
-39.40
-13.30
12.45
30.02
34.19
23.28
-0.50
-31.69
-62.84
-86.33
-96.26
-89.98
-68.63
-36.80
-1.27
30.45
51.83
58.72
50.30
29.30
1.47
-26.01
-46.35
-54.94
-50.43
-34.73
-12.26
11.46
31.04
42.43
43.67
35.16
19.62
1.52
-13.89
-21.89
-19.52
-6.51
14.67
39.28
61.48
75.71
77.95
66.60
42.92
10.75
-24.26
-55.88
-78.84
-90.01
-89.07
-78.49
-62.71
-46.84
-35.40
-31.11
-34.13
-42.03
-50.52
-54.83
-51.31
-38.90
-19.48
2.73
22.54
35.52
38.92
31.99
15.64
-7.94
-35.46
-62.50
-83.86
-94.45
-90.94
-73.07
-44.28
-11.07
18.73
38.22
43.21
33.05
10.50
-19.26
-49.92
-75.33
-90.62
-93.07
-82.56
-61.64
-34.88
-7.81
14.40
28.13
32.08
27.46
17.47
6.40
-1.65
-3.73
1.30
12.71
28.34
45.01
59.04
66.73
65.05
52.44
29.77
0.82
-28.27
-50.56
-60.52
-55.92
-38.66
-13.97
11.45
31.57
42.58
43.40
35.39
21.61
6.03
-7.11
-14.05
-12.30
-1.50
16.07
35.78
51.74
58.58
53.45
37.14
14.11
-8.82
-24.64
-28.26
-17.88
4.87
35.55
68.24
96.70
115.49
120.88
111.54
89.01
57.52
23.18
-7.48
-29.12
-38.90
-37.05
-26.50
-11.94
1.65
10.23
11.56
5.67
-5.46
-18.56
-30.02
-36.82
-37.20
-31.01
-19.78
-6.38
5.69
13.33
14.83
10.57
2.95
-4.42
-7.89
-5.14
4.04
17.64
32.03
43.05
47.11
42.30
28.88
9.30
-12.31
-31.21
-43.18
-45.66
-38.19
-22.44
-1.67
20.08
38.96
52.09
58.03
56.81
49.66
38.43
25.06
11.25
-1.70
-12.81
-21.25
-26.20
-27.09
-23.84
-17.22
-8.94
-1.37
3.11
2.89
-2.34
-11.58
-22.80
-33.57
-41.59
-45.08
-43.12
-35.77
-24.34
-11.03
1.46
10.84
15.78
16.22
12.88
6.67
-1.92
-12.84
-25.95
-40.50
-54.93
-67.24
-75.86
-80.47
-82.05
-82.31
-82.75
-83.73
-84.30
-82.75
-77.53
-68.04
-54.96
-39.86
-24.45
-10.00
2.98
14.68
25.61
36.34
47.12
57.65
66.95
73.50
75.59
72.00
62.66
49.00
33.80
20.34
11.36
8.11
10.05
15.15
20.79
24.64
25.46
23.38
19.69
16.25
14.57
15.34
18.11
21.83
25.24
27.42
27.94
26.68
23.61
18.71
12.06
4.01
-4.74
-13.20
-20.22
-24.72
-25.85
-23.19
-16.99
-8.24
1.39
9.96
15.91
18.70
19.02
18.38
18.39
19.93
22.67
25.30
26.25
24.49
20.01
13.62
6.39
-0.93
-8.14
-15.26
-21.95
-27.30
-30.07
-29.50
-25.88
-20.63
-15.66
-12.38
-11.14
-11.35
-12.11
-12.81
-13.29
-13.52
-13.23
-11.77
-8.63
-4.04
0.76
3.82
3.31
-1.59
-10.22
-20.68
-30.61
-38.03
-42.03
-42.83
-41.51
-39.35
-37.43
-36.22
-35.58
-34.90
-33.35
-30.30
-25.45
-18.97
-11.40
-3.55
3.71
9.50
13.05
13.85
11.70
6.95
0.50
-6.35
-12.20
-16.00
-17.34
-16.56
-14.50
-12.16
-10.48
-10.25
-12.13
-16.51
-23.31
-31.69
-39.97
-45.99
-47.83
-44.54
-36.33
-24.42
-10.38
4.49
19.23
33.07
45.08
54.09
59.00
59.33
55.63
49.38
42.54
36.65
32.36
29.49
27.62
26.58
26.79
28.84
32.88
38.27
43.65
47.45
48.55
46.72
42.64
37.75
33.92
33.07
36.58
44.55
55.24
65.15
70.03
66.54
53.73
33.66
10.66
-10.14
-24.51
-29.88
-25.24
-10.63
13.01
43.17
74.99
101.59
115.93
113.67
95.57
67.55
38.50
16.46
5.49
4.75
9.98
16.40
20.99
23.17
23.78
23.64
22.76
20.87
18.22
16.17
16.53
20.33
26.85
33.42
36.40
32.81
22.01
6.28
-9.76
-21.10
-24.35
-19.05
-7.67
5.73
17.20
24.14
25.64
21.99
14.17
3.56
-8.00
-18.25
-24.99
-27.08
-25.17
-21.76
-20.13
-22.83
-30.38
-41.09
-52.01
-60.38
-64.86
-65.91
-65.28
-65.02
-66.50
-69.94
-74.46
-78.54
-80.56
-79.33
-74.30
-65.60
-53.91
-40.21
-25.39
-10.15
5.14
20.34
35.44
50.43
65.39
80.44
95.67
110.75
124.65
135.61
141.66
141.52
135.38
124.91
112.63
100.59
89.57
79.00
67.78
55.28
41.78
28.23
15.52
4.01
-6.46
-16.09
-24.84
-32.54
-39.32
-45.77
-52.65
-60.21
-67.64
-73.12
-74.67
-71.16
-63.03
-52.21
-41.42
-33.25
-29.37
-30.17
-34.67
-40.78
-45.93
-48.04
-46.30
-41.50
-35.58
-30.72
-28.58
-30.21
-36.52
-48.83
-68.69
-96.79
-131.66
-169.10
-203.12
-228.10
-241.12
-243.09
-238.11
-231.22
-225.95
-222.88
-219.55
-211.89
-195.71
-167.80
-126.22
-70.10
-0.22
80.09
164.04
242.06
304.05
342.77
356.66
350.57
333.73
315.87
303.51
298.17
297.08
295.81
290.83
280.93
267.09
251.23
235.07
219.71
205.85
194.20
185.52
180.50
179.04
179.93
180.83
178.82
171.47
157.53
137.02
111.01
80.83
47.45
11.38
-27.37
-69.18
-114.98
-166.18
-224.00
-287.93
-354.44
-416.47
-464.79
-490.93
-490.21
-463.29
-415.52
-354.47
-287.40
-220.07
-157.25
-103.79
-64.87
-44.46
-42.92
-55.37
-72.65
-84.71
-84.93
-73.05
-55.00
-39.93
-35.46
-43.89
-61.14
-78.92
-88.69
-85.47
-69.60
-45.82
-20.48
1.56
18.58
31.61
42.76
53.36
63.12
70.84
75.75
78.46
80.88
84.91
91.03
97.68
101.80
100.36
91.86
77.20
59.23
41.63
27.36
17.69
12.10
8.98
6.62
3.96
0.89
-2.23
-4.92
-7.08
-8.85
-10.48
-11.95
-13.02
-13.48
-13.24
-12.44
-11.08
-8.88
-5.33
-0.25
5.62
10.45
11.94
8.54
0.63
-9.33
-17.61
-20.82
-17.49
-8.74
2.31
11.86
17.21
17.63
14.54
10.53
8.06
8.40
11.24
15.27
19.24
22.90
27.28
33.99
44.11
57.29
71.74
85.17
96.00
104.20
111.05
118.11
126.00
133.73
139.13
140.01
135.50
126.77
116.49
107.52
101.54
98.37
96.17
92.56
85.81
75.55
62.60
47.99
32.08
14.30
-6.23
-29.66
-54.68
-78.69
-98.75
-112.88
-120.84
-123.96
-124.23
-123.37
-122.29
-121.26
-120.31
-119.56
-119.07
-118.52
-116.91
-112.95
-105.56
-94.55
-80.84
-66.35
-53.52
-44.63
-41.16
-43.46
-50.61
-60.45
-69.91
-75.46
-73.77
-62.28
-40.00
-7.84
31.39
73.64
114.57
150.53
179.08
198.96
209.67
210.96
203.05
186.90
164.70
139.69
115.29
93.99
76.59
62.11
48.59
33.90
16.57
-3.94
-27.14
-51.70
-75.43
-95.59
-109.40
-114.86
-111.26
-99.46
-81.81
-61.42
-41.67
-25.60
-15.47
-12.35
-15.78
-23.85
-33.79
-42.77
-48.72
-50.73
-48.78
-43.20
-34.30
-22.45
-8.51
5.87
18.21
26.05
27.97
24.24
16.77
8.24
0.82
-4.86
-9.82
-16.13
-25.56
-38.58
-53.96
-69.24
-81.64
-89.01
-90.27
-85.20
-74.05
-57.24
-35.49
-10.21
16.26
40.91
60.78
73.78
79.23
77.90
71.58
62.40
52.28
42.61
34.26
27.63
22.78
19.32
16.44
12.95
7.66
-0.15
-10.25
-21.48
-32.09
-40.49
-45.87
-48.40
-48.91
-48.19
-46.63
-44.18
-40.73
-36.48
-32.03
-28.07
-24.93
-22.46
-20.14
-17.79
-15.78
-14.99
-16.16
-19.27
-23.35
-26.90
-28.67
-28.19
-25.84
-22.45
-18.74
-15.00
-11.17
-7.32
-3.98
-2.25
-3.24
-7.55
-14.67
-23.06
-30.57
-35.28
-36.11
-33.15
-27.50
-20.81
-14.66
-10.11
-7.53
-6.61
-6.57
-6.36
-5.04
-2.14
2.19
7.16
11.67
14.78
16.00
15.39
13.39
10.68
8.09
6.60
7.17
10.43
16.15
22.88
28.29
29.95
26.55
18.57
8.26
-1.41
-8.04
-10.76
-10.40
-8.75
-7.59
-7.96
-10.03
-13.44
-17.69
-22.29
-26.75
-30.37
-32.34
-32.04
-29.45
-25.39
-21.31
-18.81
-19.03
-22.31
-28.02
-34.71
-40.34
-42.74
-40.14
-31.74
-18.11
-1.13
16.57
32.34
44.28
51.59
54.45
53.80
50.76
46.49
42.02
38.13
35.38
33.99
33.95
35.10
37.30
40.36
43.85
46.97
48.55
47.42
42.82
34.83
24.46
13.33
3.07
-5.15
-10.99
-14.88
-17.75
-20.61
-24.11
-28.33
-32.67
-36.10
-37.58
-36.50
-33.01
-27.92
-22.36
-17.35
-13.46
-10.89
-9.61
-9.55
-10.59
-12.40
-14.25
-15.06
-13.72
-9.44
-2.14
7.42
17.87
27.56
35.14
39.86
41.84
41.83
40.81
39.54
38.25
36.70
34.55
31.69
28.43
25.30
22.73
20.73
18.91
16.77
13.91
10.28
6.05
1.36
-3.70
-9.00
-14.20
-18.62
-21.56
-22.63
-22.10
-20.86
-19.96
-20.07
-21.18
-22.65
-23.64
-23.66
-22.78
-21.37
-19.77
-17.96
-15.60
-12.44
-8.65
-4.88
-1.99
-0.56
-0.55
-1.24
-1.56
-0.53
2.34
6.91
12.49
17.97
22.12
23.67
21.50
15.12
5.03
-7.09
-18.60
-26.71
-29.53
-26.55
-18.69
-7.66
4.91
17.79
30.16
41.06
49.11
52.69
50.50
42.26
29.02
12.98
-3.22
-17.31
-27.88
-34.59
-37.96
-39.01
-38.79
-37.99
-36.85
-35.30
-33.21
-30.60
-27.82
-25.40
-23.89
-23.61
-24.60
-26.65
-29.37
-32.39
-35.44
-38.17
-40.01
-40.03
-37.11
-30.46
-20.18
-7.53
5.41
16.60
25.00
31.00
36.04
41.76
48.96
57.34
65.71
72.78
77.77
80.65
81.89
81.92
80.94
78.89
75.64
71.23
65.79
59.45
52.22
43.94
34.50
23.94
12.60
0.99
-10.32
-20.87
-30.46
-38.98
-46.42
-52.71
-57.66
-61.03
-62.52
-61.86
-58.84
-53.55
-46.45
-38.34
-30.20
-22.92
-17.04
-12.69
-9.64
-7.55
-6.17
-5.37
-5.12
-5.44
-6.45
-8.13
-10.39
-12.94
-15.35
-17.47
-19.91
-24.55
-34.41
-52.56
-80.45
-116.52
-155.99
-192.29
-219.51
-234.75
-239.02
-236.30
-231.01
-225.78
-220.26
-211.60
-196.19
-171.27
-135.42
-88.06
-28.75
42.61
124.49
212.28
298.04
371.94
425.22
453.15
456.55
440.85
413.66
381.80
349.51
318.36
288.11
257.87
226.68
193.30
155.72
111.01
56.16
-10.15
-85.62
-163.47
-232.92
-282.14
-302.26
-290.95
-253.89
-203.04
-152.68
-114.66
-95.42
-95.70
-112.50
-141.64
-179.19
-221.40
-263.63
-299.89
-323.74
-330.46
-319.11
-293.29
-260.02
-226.90
-199.31
-178.83
-163.60
-149.97
-134.72
-116.33
-95.24
-73.03
-51.15
-30.08
-9.09
13.29
38.66
68.10
102.00
140.00
181.04
223.29
264.18
300.65
329.70
349.14
358.23
357.72
349.33
334.87
315.58
292.05
264.62
233.92
201.05
167.18
132.88
97.81
61.02
21.76
-19.63
-61.39
-100.65
-134.16
-159.12
-173.73
-177.24
-169.85
-152.44
-126.28
-92.60
-52.28
-5.91
45.64
100.32
154.24
201.89
237.38
256.28
257.01
241.40
213.63
178.55
140.03
99.90
57.87
12.13
-39.05
-95.72
-154.91
-210.42
-254.19
-278.85
-280.25
-258.88
-219.25
-167.87
-111.09
-54.02
-0.60
45.50
80.67
101.98
108.63
102.92
89.94
75.94
66.23
63.60
67.92
76.84
86.69
93.72
94.68
87.40
71.18
47.01
17.43
-14.03
-43.66
-68.39
-86.21
-96.43
-99.38
-96.28
-88.82
-78.89
-68.09
-57.38
-46.83
-35.80
-23.47
-9.32
6.45
23.11
39.74
55.61
70.32
83.64
95.25
104.71
111.51
115.05
114.29
107.48
92.21
66.34
29.71
-14.60
-59.93
-97.63
-119.79
-121.97
-104.60
-72.50
-32.99
6.15
38.25
58.50
64.40
56.17
37.03
12.95
-8.71
-21.39
-21.48
-9.58
10.01
30.77
46.26
51.84
45.69
28.86
4.93
-20.68
-41.75
-52.67
-49.92
-33.35
-6.49
24.11
50.59
65.91
65.85
50.10
22.23
-11.55
-44.14
-69.46
-83.62
-85.66
-77.28
-62.33
-45.80
-32.76
-27.22
-31.14
-43.84
-62.21
-81.49
-96.63
-103.71
-100.83
-88.36
-68.53
-44.67
-20.43
0.99
17.30
27.50
32.05
32.67
31.90
32.42
36.10
43.39
53.04
62.32
67.86
66.87
58.14
42.65
23.42
4.60
-9.79
-16.93
-16.01
-8.23
3.76
16.60
27.07
32.71
32.25
25.68
14.09
-0.54
-15.78
-29.09
-38.20
-41.52
-38.61
-30.63
-20.26
-11.13
-6.58
-8.32
-15.54
-25.10
-32.65
-34.43
-28.61
-15.87
1.18
19.04
34.36
44.61
48.12
44.21
33.11
16.23
-3.83
-23.49
-38.99
-47.27
-46.94
-38.54
-24.32
-7.51
8.59
21.28
28.88
30.87
27.68
20.44
10.61
-0.45
-11.75
-22.75
-33.20
-42.85
-51.06
-56.78
-58.70
-55.63
-47.02
-33.33
-16.06
2.55
19.99
34.00
42.81
45.14
40.14
27.45
7.51
-17.92
-45.55
-70.82
-88.86
-95.71
-89.52
-71.10
-43.50
-10.93
22.34
52.90
78.40
97.33
108.74
112.01
107.07
94.64
76.63
55.98
36.28
20.82
11.81
9.78
13.64
21.29
30.32
38.72
45.18
49.08
50.23
48.75
44.97
39.43
32.79
25.61
18.08
9.90
0.46
-10.71
-23.26
-35.86
-46.45
-53.11
-54.99
-52.94
-49.28
-46.80
-47.42
-51.35
-56.96
-61.64
-62.89
-59.15
-49.93
-35.53
-16.73
5.29
28.68
50.86
68.82
80.14
84.17
82.61
79.18
78.24
82.81
93.11
106.31
117.55
121.96
116.59
101.84
81.46
61.29
47.19
43.05
49.57
64.20
82.21
98.45
108.72
110.62
103.38
87.30
63.15
32.14
-3.79
-41.52
-76.79
-104.81
-121.48
-124.71
-115.25
-96.76
-74.93
-56.24
-46.24
-48.05
-61.16
-81.02
-99.95
-109.30
-102.53
-78.02
-40.22
1.37
35.05
50.65
42.67
11.79
-35.49
-88.77
-136.63
-169.60
-182.45
-175.29
-153.16
-124.12
-96.56
-76.56
-66.24
-63.59
-63.60
-60.07
-47.61
-23.00
13.93
60.30
110.56
157.66
194.35
214.52
214.58
194.53
158.61
115.21
75.48
50.47
47.71
68.17
105.44
147.63
181.37
196.21
187.51
156.84
110.28
55.94
1.80
-45.46
-80.80
-101.17
-105.84
-96.74
-78.51
-57.82
-42.03
-37.45
-47.71
-72.64
-108.66
-149.98
-190.67
-226.69
-256.55
-280.73
-299.87
-313.28
-318.61
-313.16
-295.72
-267.78
-233.12
-196.06
-159.47
-124.00
-88.70
-52.80
-16.96
16.61
45.39
68.20
86.14
102.36
120.69
143.92
172.88
206.19
241.15
274.76
304.71
329.84
349.81
364.43
372.91
373.54
364.08
342.80
309.76
267.65
221.37
176.69
138.17
107.47
82.93
60.43
35.04
2.77
-38.33
-87.61
-141.79
-195.31
-241.30
-273.31
-287.31
-283.37
-265.93
-242.31
-219.86
-203.14
-192.56
-185.13
-176.78
-165.36
-152.18
-141.61
-138.48
-145.05
-159.04
-174.01
-181.55
-174.37
-149.09
-107.67
-57.20
-8.22
28.20
43.99
36.70
10.60
-24.66
-57.47
-78.07
-80.82
-64.29
-29.81
20.19
82.14
149.99
214.06
261.89
281.44
265.48
214.77
138.54
51.95
-28.05
-87.33
-117.81
-118.97
-97.11
-63.00
-28.18
-1.05
15.67
25.17
34.45
51.18
80.66
124.36
179.49
239.94
297.73
344.84
375.19
386.24
379.55
359.77
332.88
303.97
276.14
250.54
227.34
206.63
188.72
173.63
160.38
146.90
130.63
109.63
83.46
53.47
22.15
-7.80
-34.74
-58.61
-80.98
-104.57
-132.48
-167.43
-211.13
-263.40
-321.67
-380.84
-433.96
-473.95
-495.67
-497.43
-481.33
-452.13
-415.27
-374.89
-332.93
-289.09
-241.64
-188.82
-130.30
-68.43
-8.77
40.57
71.33
77.81
59.98
24.27
-18.26
-55.37
-77.68
-81.11
-67.32
-42.02
-12.44
15.19
37.29
53.44
66.08
79.52
98.79
128.27
170.20
223.58
283.71
342.64
390.98
420.40
426.11
408.26
371.73
324.26
273.81
226.24
184.29
147.75
114.94
83.48
51.11
15.62
-25.11
-72.71
-127.45
-187.56
-248.84
-305.21
-350.23
-378.91
-389.14
-382.23
-362.19
-334.33
-303.63
-273.53
-245.66
-220.14
-196.04
-171.85
-145.56
-114.43
-74.92
-23.46
42.07
120.39
205.71
288.31
357.41
404.86
427.99
430.30
419.32
403.09
386.97
372.51
358.55
343.35
326.35
308.47
290.99
274.21
256.91
236.88
212.34
183.10
150.91
118.97
90.40
66.87
47.88
30.96
12.81
-9.17
-35.71
-65.40
-95.39
-122.83
-146.22
-166.20
-185.32
-207.11
-234.85
-270.44
-313.73
-362.26
-411.32
-454.46
-484.54
-495.48
-484.45
-453.61
-410.37
-365.51
-329.55
-308.87
-303.34
-306.75
-309.72
-303.77
-284.33
-251.66
-209.49
-162.62
-114.81
-68.11
-23.23
19.48
59.65
97.38
134.14
173.19
218.77
273.84
337.57
404.03
463.30
504.70
521.01
511.34
481.39
440.68
398.68
361.39
330.26
303.37
277.75
251.47
224.20
196.67
169.61
143.13
116.58
89.11
59.98
28.68
-4.99
-41.06
-78.88
-117.04
-153.45
-186.10
-213.62
-235.44
-251.28
-260.28
-260.59
-250.02
-227.18
-192.46
-147.76
-95.53
-37.87
23.47
85.81
144.32
192.06
221.95
229.92
217.16
190.00
157.22
126.38
101.22
81.19
63.22
44.09
22.20
-2.15
-27.40
-51.80
-74.28
-94.67
-113.64
-132.42
-152.17
-173.83
-198.13
-225.84
-257.75
-294.08
-333.65
-373.08
-407.24
-430.81
-440.61
-437.15
-424.31
-407.45
-390.66
-375.05
-358.85
-339.23
-314.36
-284.45
-251.41
-217.47
-184.05
-151.47
-119.53
-88.29
-58.27
-29.85
-2.62
25.31
56.95
95.32
141.80
194.76
249.22
297.64
331.89
345.86
337.43
309.08
267.21
219.87
174.26
134.85
102.79
76.97
55.50
37.06
21.38
8.86
0.00
-4.96
-5.97
-2.81
5.08
18.49
37.80
62.20
89.16
114.41
132.55
138.22
127.69
100.55
60.53
15.25
-25.73
-53.65
-63.46
-55.13
-33.38
-6.04
18.61
33.75
35.46
23.34
0.35
-27.75
-53.60
-70.04
-72.04
-58.30
-31.94
0.38
30.19
49.73
53.82
40.95
13.24
-24.29
-64.92
-101.46
-127.40
-138.06
-131.54
-109.47
-76.91
-41.37
-10.74
8.98
15.56
11.08
0.92
-8.43
-11.91
-7.63
2.79
15.41
25.95
31.80
32.99
31.79
31.30
33.67
38.83
44.33
46.39
41.57
28.48
8.73
-13.57
-33.20
-45.83
-49.42
-44.65
-34.21
-21.46
-9.13
1.39
9.85
16.42
21.11
23.59
23.53
21.20
17.61
14.12
11.66
10.07
8.13
4.28
-2.19
-10.31
-17.47
-20.42
-16.77
-6.11
9.83
27.98
45.22
59.40
69.64
75.95
78.50
77.05
71.08
60.11
44.48
25.65
6.04
-11.69
-25.52
-34.62
-39.34
-40.59
-39.13
-35.35
-29.46
-22.10
-14.67
-9.14
-7.22
-9.55
-15.05
-21.34
-25.54
-25.44
-20.34
-11.19
0.05
11.35
21.27
29.27
35.53
40.34
43.80
45.58
45.23
42.65
38.38
33.54
29.52
27.40
27.44
29.05
31.12
32.37
31.94
29.49
25.24
19.87
14.24
9.26
5.78
4.34
4.87
6.51
7.67
6.65
2.43
-4.61
-12.68
-19.33
-22.63
-21.97
-18.30
-13.59
-10.07
-9.40
-12.25
-18.30
-26.29
-34.53
-41.24
-45.01
-45.16
-41.83
-35.80
-28.13
-19.74
-11.24
-3.06
4.44
10.79
15.48
18.16
18.72
17.34
14.45
10.78
7.34
5.29
5.45
7.83
11.35
14.19
14.63
12.01
7.03
1.29
-3.81
-7.89
-12.06
-18.24
-27.90
-41.24
-56.76
-71.88
-83.77
-90.03
-88.95
-79.64
-62.10
-37.61
-9.02
19.55
43.58
59.53
65.86
63.41
54.96
44.22
34.70
29.03
28.64
33.62
42.70
53.42
62.60
67.18
65.40
57.54
45.98
34.20
25.35
20.81
19.74
19.37
16.16
6.89
-10.57
-36.83
-70.68
-109.03
-146.86
-178.14
-197.16
-200.17
-186.35
-157.73
-118.16
-71.88
-22.91
25.05
68.12
101.97
122.40
126.21
111.82
79.24
29.74
-34.25
-108.37
-185.78
-257.21
-312.91
-345.57
-352.98
-338.81
-310.87
-277.83
-246.12
-218.55
-194.84
-173.60
-153.94
-135.98
-120.29
-106.99
-95.27
-83.77
-71.50
-58.45
-45.75
-35.23
-28.56
-26.48
-28.54
-33.36
-39.26
-44.96
-49.98
-54.74
-60.06
-66.70
-74.88
-84.13
-93.51
-102.05
-109.15
-114.74
-119.29
-123.45
-127.68
-132.04
-136.10
-139.10
-140.20
-138.68
-134.03
-125.92
-114.02
-97.88
-76.88
-50.34
-17.76
20.92
65.23
113.93
165.23
216.93
266.87
313.37
355.92
395.42
433.86
473.17
513.79
553.67
588.40
612.60
621.99
614.88
592.60
558.71
517.60
473.35
429.29
387.86
350.66
318.10
289.18
261.59
232.69
200.82
166.41
131.99
101.06
76.22
57.84
43.62
29.58
11.84
-11.78
-40.89
-72.75
-103.31
-128.60
-145.62
-152.65
-148.92
-134.13
-108.24
-71.89
-27.00
22.72
71.88
114.53
145.65
162.70
166.34
159.97
148.18
134.97
122.37
110.24
97.10
81.35
62.44
41.23
19.56
-0.68
-18.46
-34.04
-48.79
-64.46
-82.29
-102.43
-123.92
-145.19
-164.74
-181.72
-195.90
-207.51
-217.00
-225.07
-232.84
-241.74
-253.14
-267.34
-282.92
-296.66
-304.28
-301.86
-287.18
-260.33
-223.37
-179.56
-132.38
-85.13
-40.90
-2.95
25.23
40.30
40.21
25.70
0.86
-27.21
-50.25
-61.33
-56.74
-36.19
-1.53
45.00
101.48
165.49
232.73
296.31
348.04
381.34
393.99
389.12
373.64
354.90
337.76
323.55
311.10
298.78
286.09
273.57
261.75
249.84
235.57
216.19
190.13
158.14
122.95
88.49
57.88
32.00
9.32
-13.54
-40.61
-75.39
-119.74
-173.01
-231.22
-287.08
-330.98
-353.69
-349.66
-319.70
-271.29
-216.05
-165.48
-126.94
-102.22
-88.89
-83.39
-83.84
-90.64
-105.15
-127.34
-154.33
-180.64
-200.06
-207.73
-201.56
-182.53
-153.74
-119.03
-81.91
-44.81
-8.93
25.41
58.17
88.83
115.94
137.03
149.20
149.98
138.26
114.54
80.74
39.44
-6.89
-56.24
-106.84
-156.42
-201.63
-238.04
-261.04
-267.25
-255.83
-228.90
-190.62
-145.52
-97.01
-47.02
3.11
51.16
93.26
124.27
139.64
137.52
119.93
92.41
62.22
36.00
18.10
10.02
10.96
18.79
30.91
44.62
57.20
65.89
68.24
62.69
49.23
29.70
7.65
-12.37
-26.08
-30.60
-25.23
-11.63
6.67
25.24
40.00
48.22
49.09
43.67
34.15
22.95
11.93
2.20
-5.66
-11.17
-13.70
-12.56
-7.40
1.54
13.36
26.74
40.08
51.38
57.91
56.31
43.52
18.52
-16.19
-54.35
-87.49
-107.80
-110.89
-96.99
-70.30
-36.73
-1.78
30.72
58.57
80.47
95.39
102.67
102.48
96.22
86.11
74.64
63.57
53.62
44.49
35.20
24.55
11.53
-4.13
-21.54
-38.40
-51.50
-57.74
-55.41
-45.20
-30.15
-14.62
-2.54
4.08
5.72
4.69
3.55
3.68
4.71
4.94
2.58
-3.28
-12.21
-22.83
-33.60
-43.45
-52.04
-59.42
-65.63
-70.35
-73.04
-73.32
-71.40
-68.19
-64.95
-62.85
-62.53
-63.93
-66.27
-68.35
-68.89
-66.79
-61.41
-52.67
-41.01
-27.23
-12.28
2.86
17.31
30.31
41.26
49.76
55.65
59.07
60.42
60.28
59.24
57.76
56.14
54.49
52.75
50.66
47.77
43.60
37.90
30.93
23.36
16.14
10.00
5.14
1.16
-2.72
-7.21
-12.58
-18.47
-24.09
-28.50
-30.99
-31.24
-29.55
-26.75
-23.96
-22.27
-22.21
-23.31
-24.09
-22.56
-17.06
-7.06
6.50
21.55
35.71
47.14
54.92
59.07
60.10
58.73
55.84
52.56
50.18
49.78
51.78
55.62
59.99
63.49
65.38
65.81
65.50
64.89
63.59
60.42
54.08
44.13
31.61
18.79
8.32
2.05
0.38
2.30
6.12
10.34
14.19
17.57
20.62
23.11
24.34
23.29
19.24
12.23
3.22
-6.20
-14.37
-20.13
-23.11
-23.71
-22.78
-21.29
-19.87
-18.73
-17.65
-16.21
-14.10
-11.33
-8.35
-5.92
-4.76
-5.37
-7.71
-11.33
-15.50
-19.65
-23.49
-27.10
-30.64
-34.15
-37.31
-39.50
-40.08
-38.74
-35.78
-32.03
-28.58
-26.34
-25.64
-26.20
-27.34
-28.37
-28.90
-28.96
-28.88
-28.97
-29.22
-29.25
-28.47
-26.33
-22.63
-17.48
-11.10
-3.45
5.78
16.84
29.42
42.35
53.94
62.82
68.77
72.94
77.26
83.25
91.12
99.53
106.34
109.73
109.02
104.75
98.19
90.68
83.20
76.49
71.42
68.81
69.19
71.96
75.11
75.34
68.99
53.14
26.36
-11.01
-57.00
-108.34
-160.71
-209.10
-248.38
-274.17
-283.90
-277.34
-256.52
-225.05
-187.26
-147.55
-110.19
-79.38
-58.94
-51.43
-56.99
-72.58
-92.07
-107.74
-112.69
-103.24
-80.21
-48.55
-15.11
14.42
37.94
57.52
77.65
102.36
132.37
163.97
190.24
203.64
198.87
174.66
134.19
84.13
32.99
-11.04
-42.12
-58.36
-62.17
-58.97
-54.79
-53.44
-55.03
-56.27
-52.77
-41.86
-24.48
-5.10
10.02
15.37
8.21
-10.69
-37.76
-67.93
-96.14
-118.28
-131.72
-135.08
-127.97
-110.62
-83.65
-48.06
-5.15
43.52
96.16
150.58
203.90
252.35
291.73
318.19
329.21
324.38
305.15
273.87
232.48
182.33
124.98
63.90
5.59
-41.17
-67.90
-69.84
-48.29
-10.59
32.34
69.66
93.76
101.55
93.97
74.28
46.32
13.37
-22.29
-59.65
-98.73
-140.08
-183.72
-227.83
-268.22
-299.00
-314.34
-310.60
-287.61
-248.41
-197.66
-139.89
-78.66
-17.02
41.24
90.88
125.76
140.72
133.65
106.62
65.40
17.71
-29.00
-69.03
-98.88
-116.81
-122.06
-114.39
-94.17
-62.84
-23.23
20.35
62.71
98.69
124.11
136.57
135.76
123.21
101.82
75.06
46.34
18.48
-6.54
-27.64
-44.58
-57.76
-68.07
-76.64
-84.62
-93.01
-102.51
-113.41
-125.32
-136.89
-145.79
-148.94
-143.14
-126.08
-97.17
-57.93
-11.75
36.94
83.62
124.40
156.40
177.83
187.93
186.94
176.03
157.03
131.92
102.46
69.93
35.29
-0.29
-35.06
-66.50
-91.71
-108.16
-114.48
-110.84
-98.80
-80.47
-57.68
-31.36
-1.65
31.51
67.40
103.95
137.71
164.51
180.31
181.96
167.75
137.72
93.98
41.26
-13.14
-60.34
-91.94
-102.69
-92.55
-66.97
-35.13
-6.67
11.37
16.32
9.59
-4.96
-23.10
-41.50
-57.99
-71.13
-79.62
-82.17
-77.80
-66.16
-47.88
-24.53
1.65
28.22
52.94
74.18
90.91
102.50
108.33
107.62
99.54
83.84
61.68
36.05
11.44
-7.52
-17.85
-19.74
-16.81
-14.75
-19.00
-32.35
-53.77
-78.87
-101.76
-117.37
-122.90
-118.11
-104.47
-83.97
-58.20
-28.34
4.39
38.19
70.78
99.89
124.02
142.77
156.65
166.24
171.42
171.13
163.86
148.55
125.54
96.83
65.60
35.16
7.72
-16.27
-37.77
-58.35
-78.74
-98.06
-113.79
-122.72
-122.41
-112.50
-95.29
-75.19
-57.28
-45.55
-41.47
-43.47
-47.57
-48.92
-43.70
-30.59
-11.12
11.00
31.46
46.98
55.98
58.46
55.05
46.14
31.52
10.84
-15.91
-48.02
-84.06
-122.19
-160.13
-195.20
-224.48
-245.40
-256.70
-259.29
-256.08
-250.93
-246.94
-245.26
-244.95
-243.89
-240.30
-233.57
-224.14
-212.58
-198.60
-180.67
-156.55
-123.96
-81.26
-27.54
36.97
110.45
188.71
265.07
331.31
379.90
406.59
412.04
401.51
382.65
362.60
345.89
333.96
326.48
322.91
323.56
329.25
340.23
355.23
371.44
385.30
393.90
395.86
391.57
382.70
371.01
357.40
341.35
321.04
294.20
259.12
215.64
165.42
111.59
57.56
6.03
-41.87
-86.68
-129.96
-173.65
-219.57
-269.32
-324.13
-384.21
-447.74
-510.10
-564.31
-602.79
-620.01
-614.72
-590.39
-553.84
-512.47
-471.94
-435.16
-402.74
-374.23
-349.05
-326.53
-305.53
-284.16
-260.30
-232.52
-200.85
-166.79
-132.46
-99.59
-68.49
-37.94
-5.71
30.81
73.65
123.59
179.35
237.22
291.26
334.49
360.90
367.51
355.52
329.81
296.85
262.10
228.06
194.39
159.44
122.62
85.94
53.72
30.48
18.44
15.87
17.57
17.17
10.14
-4.12
-22.35
-39.59
-51.89
-58.23
-60.48
-61.57
-63.11
-64.17
-61.89
-53.52
-38.56
-19.50
-0.69
13.93
22.87
27.58
31.13
35.89
41.62
45.24
42.40
30.10
8.67
-17.73
-42.48
-58.96
-62.82
-53.26
-32.79
-6.09
21.32
44.07
57.55
58.61
46.52
23.85
-3.59
-28.15
-43.03
-44.89
-35.19
-19.32
-3.93
6.06
9.31
7.97
5.95
6.82
12.43
22.68
36.17
50.93
64.90
76.11
82.86
84.02
79.27
69.22
55.49
40.51
27.33
19.14
18.58
26.78
42.59
62.49
81.43
94.31
97.65
90.65
75.07
54.20
31.25
8.20
-14.47
-37.00
-59.12
-79.23
-94.51
-102.01
-100.13
-89.52
-73.10
-54.81
-38.27
-25.57
-17.22
-12.65
-11.13
-12.21
-15.58
-20.68
-26.37
-31.06
-33.32
-32.52
-29.19
-24.70
-20.66
-18.11
-17.24
-17.36
-17.33
-16.02
-12.68
-6.91
1.26
11.50
23.17
35.33
46.75
56.15
62.37
64.72
63.01
57.65
49.46
39.52
28.95
18.70
9.41
1.35
-5.58
-11.62
-17.03
-21.89
-25.98
-28.85
-29.90
-28.59
-24.71
-18.60
-11.19
-3.80
2.28
6.26
8.10
8.39
7.95
7.33
6.58
5.38
3.43
0.90
-1.52
-2.85
-2.31
0.23
4.23
8.71
12.72
15.61
17.13
17.33
16.42
14.72
12.69
10.83
9.59
9.22
9.61
10.24
10.36
9.24
6.38
1.79
-4.04
-10.19
-15.71
-19.78
-22.03
-22.52
-21.73
-20.20
-18.37
-16.42
-14.30
-11.94
-9.41
-7.05
-5.45
-5.19
-6.62
-9.64
-13.60
-17.61
-20.82
-22.78
-23.56
-23.53
-23.07
-22.20
-20.53
-17.50
-12.74
-6.44
0.58
7.05
11.69
13.66
12.83
9.76
5.49
1.18
-2.26
-4.35
-5.09
-4.77
-3.80
-2.43
-0.70
1.43
3.92
6.56
8.97
10.76
11.72
11.90
11.43
10.47
8.96
6.85
4.22
1.46
-0.75
-1.75
-1.19
0.70
3.15
5.18
6.08
5.63
4.24
2.65
1.52
1.09
1.14
1.16
0.77
0.07
-0.39
0.18
2.34
6.01
10.40
14.35
16.83
17.33
16.03
13.52
10.41
7.02
3.32
-0.78
-5.18
-9.36
-12.51
-13.85
-12.99
-10.15
-6.05
-1.73
1.95
4.49
5.80
6.07
5.56
4.44
2.92
1.30
0.20
0.30
2.15
5.79
10.49
15.03
18.06
18.71
16.90
13.32
9.11
5.39
2.96
2.06
2.46
3.63
4.90
5.69
5.61
4.54
2.56
-0.03
-2.78
-5.15
-6.63
-6.87
-5.84
-3.89
-1.57
0.51
1.97
2.71
2.92
3.02
3.42
4.50
6.38
8.82
11.19
12.41
11.43
7.57
0.98
-7.39
-16.09
-23.78
-29.65
-33.45
-35.20
-34.86
-32.20
-27.02
-19.54
-10.71
-2.05
4.83
8.94
10.28
9.78
8.67
7.95
7.83
7.91
7.47
5.96
3.30
-0.18
-3.98
-7.61
-10.83
-13.57
-15.91
-17.99
-19.98
-22.07
-24.34
-26.67
-28.71
-29.89
-29.60
-27.39
-23.13
-17.06
-9.78
-2.06
5.35
11.84
17.09
21.01
23.67
25.09
25.30
24.28
22.04
18.69
14.41
9.40
3.90
-1.80
-7.18
-11.60
-14.34
-14.95
-13.56
-10.90
-8.11
-6.32
-6.16
-7.55
-9.72
-11.58
-12.15
-10.96
-8.18
-4.64
-1.39
0.60
0.91
-0.26
-2.10
-3.70
-4.29
-3.62
-1.84
0.64
3.47
6.56
10.02
14.02
18.59
23.56
28.59
33.32
37.43
40.62
42.69
43.37
42.48
39.95
35.95
30.92
25.48
20.29
15.87
12.48
10.04
8.15
6.15
3.37
-0.63
-5.98
-12.37
-19.29
-26.24
-32.90
-39.05
-44.33
-48.09
-49.51
-47.92
-43.40
-37.05
-30.57
-25.64
-23.09
-22.53
-22.65
-22.08
-20.13
-17.12
-14.05
-11.83
-10.70
-9.98
-8.51
-5.30
-0.14
6.34
12.94
18.58
22.71
25.44
27.23
28.56
29.55
30.08
29.99
29.31
28.45
28.05
28.64
30.39
32.94
35.43
36.85
36.38
33.67
29.02
23.26
17.36
12.07
7.66
3.96
0.64
-2.53
-5.61
-8.48
-11.18
-13.93
-17.01
-20.47
-23.91
-26.54
-27.53
-26.41
-23.46
-19.55
-15.83
-13.18
-11.93
-11.80
-12.24
-12.71
-12.95
-12.95
-12.82
-12.58
-12.09
-11.14
-9.66
-7.91
-6.53
-6.41
-8.31
-12.45
-18.21
-24.27
-29.06
-31.49
-31.48
-30.08
-29.04
-29.93
-33.30
-38.41
-43.44
-46.48
-46.40
-43.43
-38.97
-34.89
-32.64
-32.63
-34.20
-36.05
-36.72
-35.12
-30.84
-24.26
-16.54
-9.51
-5.50
-6.87
-15.45
-31.62
-53.64
-77.74
-98.66
-111.43
-112.71
-101.69
-80.01
-50.47
-15.27
25.31
72.76
128.53
191.72
257.49
317.66
363.47
389.09
394.17
383.93
366.66
350.02
338.24
331.37
326.77
321.51
313.80
303.51
291.15
276.57
258.45
234.83
204.24
166.77
124.27
79.41
35.07
-6.51
-44.20
-77.99
-108.64
-137.03
-163.67
-188.44
-211.75
-233.83
-254.84
-274.80
-293.58
-310.92
-326.52
-339.98
-350.78
-359.53
-366.73
-372.22
-375.06
-373.62
-366.14
-351.39
-329.02
-292.55
-239.23
-170.34
-91.57
-11.30
62.69
125.55
175.66
213.31
240.00
256.22
261.71
256.71
242.84
222.94
200.17
176.78
153.29
128.56
99.76
63.84
18.30
-38.20
-105.23
-180.11
-257.36
-329.12
-386.58
-423.20
-436.54
-429.03
-406.86
-377.44
-346.71
-317.74
-290.95
-265.62
-241.71
-220.11
-201.88
-187.09
-174.21
-160.69
-144.34
-124.52
-102.56
-81.39
-64.08
-52.32
-45.52
-41.08
-35.46
-25.75
-10.84
8.16
28.64
48.01
65.06
80.66
97.48
118.67
146.53
181.73
223.44
269.67
317.67
363.92
404.37
435.33
455.06
465.09
470.02
475.42
484.62
496.31
504.69
502.31
484.14
450.37
406.19
358.82
313.73
272.29
232.26
190.33
144.90
97.09
49.88
6.40
-31.79
-65.14
-95.43
-125.12
-156.91
-193.41
-236.65
-286.79
-341.02
-393.18
-435.26
-460.14
-464.47
-449.97
-422.52
-389.43
-356.49
-326.52
-299.73
-275.39
-253.29
-234.15
-218.89
-207.46
-198.39
-189.26
-177.97
-163.78
-147.64
-131.62
-117.87
-107.56
-100.45
-95.18
-90.06
-83.89
-76.49
-68.59
-61.30
-55.39
-50.94
-47.25
-43.41
-38.79
-33.39
-27.79
-22.62
-18.05
-13.41
-7.38
1.47
14.01
30.03
48.45
67.75
86.78
105.30
124.06
144.56
168.73
198.64
236.04
281.49
333.15
386.07
432.49
463.83
473.51
459.51
425.03
377.05
323.35
269.47
217.39
166.35
114.91
63.08
13.08
-31.49
-67.28
-92.62
-107.82
-114.43
-114.17
-108.32
-97.75
-83.90
-69.48
-58.48
-55.10
-62.11
-79.47
-104.02
-130.34
-152.45
-165.62
-167.34
-157.37
-137.17
-108.91
-75.00
-37.70
0.71
37.76
70.68
96.32
111.53
113.54
100.64
72.92
32.80
-14.86
-63.19
-104.72
-132.93
-143.80
-136.47
-113.01
-77.41
-34.39
11.44
55.86
95.02
125.55
144.83
151.57
146.28
131.30
110.38
87.80
67.68
53.42
47.29
50.17
61.37
78.62
98.57
117.45
131.92
139.52
138.82
129.32
111.34
86.30
56.82
26.73
0.31
-18.90
-29.16
-31.10
-27.32
-21.23
-15.79
-12.68
-12.26
-14.11
-17.77
-23.27
-31.02
-41.24
-53.18
-64.73
-72.75
-74.03
-66.59
-50.82
-29.65
-7.87
9.47
18.55
17.91
8.38
-7.52
-26.62
-45.88
-62.61
-74.59
-79.96
-77.54
-67.17
-50.01
-28.53
-5.93
14.69
31.16
42.41
48.36
49.32
45.70
38.02
27.32
15.56
5.37
-0.52
-0.35
5.97
16.78
29.25
40.43
47.97
50.48
47.35
38.45
24.06
5.04
-16.77
-38.47
-56.50
-67.52
-69.42
-61.98
-46.94
-27.47
-7.16
10.88
24.53
32.54
34.22
29.27
17.94
1.67
-16.66
-32.86
-42.51
-42.50
-32.17
-13.66
8.78
30.34
46.88
55.81
56.15
48.18
33.08
13.02
-8.78
-28.17
-40.79
-43.31
-34.63
-16.48
6.93
30.30
48.75
59.07
60.14
52.56
37.89
18.19
-4.19
-26.43
-45.12
-56.61
-57.97
-47.97
-27.80
-1.10
26.93
50.91
66.62
72.02
67.25
54.23
35.68
14.49
-6.66
-25.15
-38.48
-44.33
-41.21
-29.00
-9.43
14.26
38.02
57.96
71.03
75.30
69.89
54.95
31.84
3.34
-26.29
-51.81
-68.20
-72.00
-62.48
-41.93
-15.04
12.44
35.21
49.56
53.71
47.59
32.39
10.04
-16.76
-44.55
-69.19
-86.48
-93.20
-88.16
-72.79
-50.62
-26.19
-3.58
14.49
26.75
32.80
32.54
25.89
13.25
-3.78
-22.06
-37.29
-45.14
-42.68
-29.55
-8.13
17.12
40.99
58.84
67.54
65.70
53.62
32.90
6.44
-21.76
-46.83
-63.80
-68.66
-59.74
-38.40
-8.85
22.93
50.91
70.50
79.40
77.44
66.01
47.31
24.04
-0.67
-23.20
-39.77
-47.12
-43.45
-29.14
-6.87
18.99
43.49
62.34
72.73
73.57
65.16
48.71
26.01
-0.71
-28.52
-53.66
-71.99
-79.82
-75.10
-58.39
-33.01
-4.41
21.32
39.02
45.62
40.52
25.25
2.68
-23.53
-49.32
-70.46
-82.93
-83.69
-71.67
-48.44
-18.12
13.66
41.25
60.55
69.57
68.34
58.12
40.78
18.64
-5.27
-27.06
-42.35
-47.40
-40.32
-21.94
4.27
33.14
59.36
78.71
88.83
89.12
80.28
63.73
41.45
15.98
-9.52
-31.45
-46.53
-52.69
-49.75
-39.62
-25.72
-12.02
-2.00
1.96
-1.18
-11.27
-26.98
-46.00
-65.07
-80.27
-87.90
-85.38
-72.13
-49.94
-22.52
5.48
29.65
46.73
55.04
54.32
45.43
29.97
10.16
-11.15
-30.50
-44.11
-48.59
-41.89
-24.01
2.57
33.40
63.06
86.55
100.45
103.52
96.51
81.58
61.59
39.64
19.00
3.06
-5.01
-2.92
9.82
31.41
57.91
84.16
105.20
117.46
119.25
110.53
92.29
65.96
33.45
-2.64
-38.75
-70.62
-94.09
-106.14
-105.78
-94.33
-74.95
-51.91
-29.48
-11.26
0.30
4.05
0.02
-10.54
-25.45
-41.75
-56.28
-66.17
-69.44
-65.32
-54.40
-38.52
-20.40
-3.23
9.91
16.60
15.68
7.56
-5.62
-20.54
-33.42
-40.88
-40.75
-32.40
-16.70
4.25
27.59
50.07
68.49
80.06
82.78
75.81
59.78
36.94
10.96
-13.77
-33.07
-43.89
-45.13
-37.63
-23.96
-7.89
5.98
12.76
8.16
-10.01
-40.42
-77.57
-112.70
-136.20
-140.52
-122.20
-82.12
-24.45
44.81
118.74
189.59
249.38
291.07
310.51
308.04
288.54
259.63
228.66
200.57
176.44
155.43
136.50
119.54
105.42
94.83
87.27
80.87
73.80
64.27
52.72
41.22
32.38
27.84
27.05
27.18
23.88
13.31
-8.84
-44.37
-92.73
-150.72
-212.53
-270.49
-316.64
-344.72
-351.09
-337.98
-309.75
-271.87
-228.76
-182.49
-132.89
-78.82
-26.09
29.98
83.36
127.52
156.67
168.23
163.85
148.62
128.39
106.78
84.43
57.26
22.22
-20.35
-65.60
-105.78
-133.85
-146.87
-147.06
-139.37
-130.48
-123.90
-119.85
-116.23
-110.89
-103.23
-94.35
-85.84
-77.54
-67.96
-53.35
-29.91
4.04
46.62
92.31
133.41
162.43
174.49
167.85
144.51
108.86
66.18
21.45
-21.29
-59.14
-90.32
-114.05
-130.66
-141.06
-146.58
-148.54
-148.07
-145.96
-142.77
-139.06
-135.46
-132.57
-130.70
-129.48
-127.73
-123.47
-114.57
-99.42
-77.76
-50.98
-21.93
5.60
27.85
41.83
45.99
40.43
27.02
9.29
-8.15
-20.52
-24.13
-17.35
-1.25
20.81
44.19
64.43
78.34
84.55
83.29
75.71
63.23
47.20
29.16
11.14
-4.00
-12.93
-12.71
-1.90
18.51
44.99
72.49
96.01
112.28
120.58
122.36
120.06
115.67
110.04
103.14
95.02
86.63
79.89
76.81
78.23
83.00
88.08
89.63
84.41
70.73
48.69
19.67
-14.28
-50.62
-86.46
-118.43
-143.06
-157.76
-161.78
-156.71
-145.98
-133.53
-122.37
-113.63
-106.75
-100.53
-94.26
-88.59
-85.30
-86.42
-93.05
-104.51
-118.38
-131.17
-139.53
-141.32
-136.26
-125.87
-112.72
-99.48
-87.92
-78.55
-70.79
-63.46
-55.24
-45.15
-32.59
-17.26
0.88
21.71
44.88
70.01
96.74
125.07
154.92
185.72
216.09
243.76
265.89
279.82
283.89
277.87
263.55
243.76
221.62
200.09
181.46
167.28
158.15
153.64
152.26
152.70
153.34
152.84
150.63
146.90
142.60
138.83
136.26
134.69
134.07
133.61
132.28
129.46
125.34
121.16
118.93
120.87
120.90
114.47
98.13
71.23
36.48
-1.21
-36.97
-67.42
-91.41
-109.34
-121.26
-127.69
-129.43
-127.44
-122.79
-116.40
-108.89
-100.82
-92.77
-84.49
-76.31
-69.15
-64.11
-62.12
-63.56
-68.14
-75.12
-84.69
-96.77
-111.67
-129.84
-151.66
-177.42
-207.31
-239.10
-270.85
-298.92
-317.46
-320.41
-304.07
-269.33
-222.30
-172.24
-128.19
-95.92
-76.13
-65.62
-60.10
-56.98
-55.37
-55.71
-58.30
-62.33
-66.35
-68.75
-68.92
-67.57
-66.18
-66.18
-68.13
-71.46
-74.80
-76.97
-77.04
-75.17
-72.46
-70.46
-70.42
-72.78
-77.01
-81.97
-86.54
-89.60
-90.87
-90.83
-90.21
-89.51
-88.53
-86.20
-80.74
-72.89
-62.67
-50.53
-37.26
-23.84
-10.96
1.18
12.94
24.99
37.81
51.92
67.13
82.80
98.26
113.05
127.23
141.25
155.66
170.99
188.09
207.87
231.10
257.84
286.64
314.16
335.70
346.60
344.06
328.32
302.45
270.91
237.88
206.10
176.65
149.72
125.34
103.53
84.01
65.55
46.16
24.12
-0.81
-26.49
-48.80
-63.05
-65.84
-56.58
-38.00
-15.30
5.40
18.96
22.55
16.25
2.73
-13.78
-28.73
-38.44
-40.90
-36.01
-25.21
-11.01
3.68
15.94
23.18
23.66
16.91
4.16
-11.68
-26.51
-36.19
-37.67
-30.10
-15.01
4.10
22.93
37.51
45.25
45.25
38.28
26.35
12.17
-1.47
-12.25
-18.76
-20.69
-18.82
-14.64
-9.88
-5.90
-3.43
-2.64
-3.60
-6.56
-11.96
-19.95
-29.84
-39.75
-46.97
-48.97
-44.35
-33.59
-18.94
-3.59
9.36
17.72
20.57
18.07
11.01
0.59
-11.66
-23.88
-34.02
-40.27
-41.73
-38.73
-32.86
-26.36
-21.22
-18.48
-18.04
-19.02
-20.48
-22.08
-24.17
-27.35
-31.81
-36.81
-40.74
-41.76
-38.59
-31.26
-21.17
-10.63
-1.88
3.70
6.05
6.08
4.95
3.30
1.05
-2.16
-6.29
-10.37
-12.68
-11.59
-6.59
1.24
9.47
15.34
16.86
13.49
6.09
-3.65
-13.87
-23.04
-30.04
-34.10
-34.76
-31.92
-25.96
-17.77
-8.66
-0.17
6.25
9.41
8.64
4.07
-3.24
-11.39
-17.94
-20.71
-18.39
-11.10
-0.32
11.58
22.15
29.46
32.54
31.26
26.08
17.78
7.37
-3.88
-14.31
-22.00
-25.14
-22.58
-14.33
-1.78
12.61
25.90
35.59
40.30
39.91
35.16
27.09
16.43
3.64
-10.79
-25.64
-38.70
-47.11
-48.37
-41.38
-27.23
-8.97
9.26
23.59
31.38
31.73
25.14
12.91
-3.32
-21.57
-39.40
-53.75
-61.40
-59.84
-48.39
-28.81
-5.11
17.69
34.99
43.93
43.90
36.21
23.17
7.31
-9.02
-23.58
-34.14
-38.55
-35.31
-24.27
-7.12
12.85
31.56
45.36
51.99
50.90
42.90
29.56
12.79
-5.17
-21.76
-34.19
-40.11
-38.41
-29.94
-17.36
-4.10
6.84
13.83
16.69
16.02
12.28
5.45
-4.52
-16.98
-29.94
-40.40
-45.32
-43.03
-34.08
-21.15
-7.91
2.38
8.05
9.24
7.32
3.78
-0.32
-4.46
-8.12
-10.39
-9.85
-5.19
3.97
16.50
29.87
41.05
47.52
48.16
43.38
34.54
23.23
10.90
-1.19
-11.61
-18.63
-20.52
-16.33
-6.61
6.42
19.38
28.78
32.16
28.70
19.14
5.25
-10.72
-26.41
-39.47
-47.75
-49.58
-44.42
-33.18
-18.26
-2.92
9.77
17.70
20.22
17.80
11.56
2.65
-7.86
-18.91
-29.07
-36.62
-39.91
-37.99
-31.16
-20.95
-9.67
0.41
7.69
11.43
11.53
8.27
2.18
-5.65
-13.40
-18.61
-18.93
-13.20
-2.22
11.32
23.78
32.00
34.37
31.09
23.56
13.50
2.38
-8.69
-18.52
-25.67
-28.69
-26.71
-20.01
-10.18
0.44
9.58
15.78
18.56
18.16
15.04
9.58
2.22
-6.25
-14.42
-20.42
-22.51
-19.74
-12.51
-2.44
8.14
16.94
22.37
23.82
21.55
16.47
9.97
3.58
-1.16
-3.09
-1.82
2.11
7.30
11.96
14.41
13.70
9.79
3.48
-3.81
-10.47
-14.97
-16.28
-14.16
-9.25
-2.88
3.28
7.88
10.15
9.93
7.42
2.85
-3.45
-10.77
-17.79
-22.72
-23.86
-20.56
-13.61
-5.17
2.23
6.78
8.01
6.75
4.16
0.95
-2.99
-8.05
-14.12
-20.04
-23.84
-23.58
-18.48
-9.43
1.35
11.18
17.96
20.71
19.39
14.47
6.47
-3.97
-15.58
-26.25
-33.27
-34.25
-28.24
-16.50
-2.15
10.97
19.82
23.24
21.84
17.23
10.93
3.88
-3.43
-10.35
-15.74
-18.09
-16.18
-9.80
-0.02
11.05
20.98
27.65
29.74
26.80
19.15
7.70
-6.11
-20.31
-32.56
-40.56
-42.62
-38.26
-28.43
-15.45
-2.30
8.24
14.29
15.20
11.41
4.15
-4.98
-14.05
-21.01
-23.91
-21.43
-13.47
-1.32
12.63
25.59
35.24
40.23
40.21
35.57
27.16
16.25
4.57
-5.63
-11.95
-12.60
-7.07
3.35
15.94
27.28
34.39
35.59
30.83
21.30
8.86
-4.56
-17.18
-27.48
-34.02
-35.67
-31.88
-23.18
-11.20
1.59
12.52
19.42
21.09
17.32
8.79
-3.16
-16.57
-28.88
-37.19
-38.79
-32.06
-17.25
3.16
24.77
42.27
50.96
48.14
34.05
11.86
-13.30
-35.92
-51.63
-58.12
-55.26
-44.45
-27.89
-8.02
12.73
31.90
47.04
56.06
57.70
51.92
39.92
23.90
6.52
-9.49
-21.80
-28.73
-29.65
-25.09
-16.64
-6.58
2.81
9.69
12.89
11.73
5.94
-4.38
-18.34
-33.88
-47.78
-56.45
-57.05
-48.85
-33.58
-14.99
2.56
15.65
22.68
23.84
20.42
13.83
5.23
-4.46
-14.03
-21.77
-25.65
-23.99
-16.18
-3.15
12.82
28.81
42.08
50.77
54.06
52.06
45.34
34.81
21.72
7.92
-4.15
-11.91
-13.44
-8.39
1.62
13.30
22.86
27.31
25.32
17.32
4.89
-10.06
-25.79
-40.74
-53.22
-61.29
-63.09
-57.54
-44.94
-27.19
-7.37
11.07
25.20
33.20
34.49
29.61
19.93
7.47
-5.29
-15.75
-21.66
-21.62
-15.49
-4.59
8.76
21.72
31.75
37.14
37.28
32.56
24.13
13.54
2.48
-7.30
-14.18
-16.79
-14.37
-7.16
3.48
15.16
25.07
30.73
30.73
24.93
14.31
0.49
-14.78
-29.80
-42.89
-52.18
-55.82
-52.40
-41.70
-25.13
-5.71
12.55
25.73
31.14
27.96
17.30
1.78
-15.30
-30.62
-41.39
-45.64
-42.37
-31.74
-15.08
5.31
26.59
46.02
61.43
71.52
75.71
73.87
66.08
52.68
34.59
13.61
-7.54
-25.76
-38.29
-43.57
-41.72
-34.54
-24.98
-16.39
-11.61
-12.33
-18.72
-29.41
-41.87
-52.89
-59.23
-58.27
-48.69
-30.98
-7.44
18.04
41.09
57.96
66.58
66.97
60.90
50.98
39.67
28.68
18.96
10.99
5.15
1.85
1.25
3.02
6.37
10.18
13.38
15.15
14.93
12.28
6.78
-1.81
-13.24
-26.46
-39.66
-50.64
-57.49
-59.17
-55.84
-48.64
-39.37
-29.95
-21.97
-16.54
-14.17
-14.90
-18.21
-23.11
-28.14
-31.51
-31.48
-26.75
-16.99
-3.03
13.23
29.36
42.99
52.43
57.02
57.07
53.59
47.91
41.45
35.48
31.12
29.19
30.02
33.36
38.29
43.33
46.77
47.16
43.54
35.55
23.29
7.27
-11.58
-31.64
-50.47
-65.06
-72.71
-72.10
-64.27
-52.52
-41.46
-35.25
-36.26
-44.47
-57.77
-72.93
-86.51
-95.49
-97.55
-91.28
-76.37
-53.57
-24.54
8.86
45.46
85.47
130.32
181.33
237.87
295.98
348.64
387.73
406.98
404.40
382.93
348.99
309.71
270.48
233.82
200.09
168.83
140.05
114.25
91.69
71.48
51.34
28.35
0.28
-33.21
-69.96
-105.45
-134.11
-151.07
-153.97
-144.02
-125.76
-105.62
-89.59
-81.12
-80.46
-85.40
-93.01
-101.34
-110.15
-120.28
-132.54
-146.73
-161.64
-175.79
-188.50
-200.09
-211.27
-221.90
-229.96
-231.78
-223.39
-202.49
-169.90
-129.84
-88.50
-51.96
-24.26
-6.59
2.30
5.03
4.35
2.65
1.88
3.65
8.92
17.43
27.16
34.29
34.23
23.17
-0.50
-35.61
-78.62
-124.75
-169.14
-207.44
-236.08
-252.34
-254.66
-243.06
-219.36
-186.75
-148.87
-108.47
-66.67
-23.51
20.82
64.51
103.60
132.81
147.58
145.98
129.76
103.85
74.55
47.79
27.65
16.19
13.87
20.20
34.12
54.02
77.56
101.68
122.91
137.99
144.56
141.79
130.76
114.40
96.90
82.69
75.17
76.00
84.70
99.19
116.37
132.89
145.42
150.78
146.09
129.20
99.38
57.92
8.19
-44.88
-95.80
-139.71
-173.12
-194.16
-202.40
-198.60
-184.36
-161.79
-133.43
-102.02
-70.31
-40.94
-16.18
2.24
13.34
16.93
13.62
4.68
-8.02
-22.16
-35.22
-44.73
-48.82
-46.70
-39.10
-28.22
-17.06
-8.57
-4.54
-5.15
-9.00
-13.74
-17.03
-17.11
-13.16
-5.22
6.11
19.90
35.15
50.73
65.44
77.99
87.11
91.71
91.22
85.69
75.85
62.95
48.34
33.12
17.82
2.33
-13.78
-30.70
-47.96
-64.08
-76.87
-83.95
-83.53
-74.95
-58.89
-37.33
-13.23
10.05
29.27
42.13
47.82
47.34
43.12
38.13
34.80
34.27
36.30
39.79
43.69
47.49
51.33
55.63
60.64
66.32
72.42
78.75
85.22
91.65
97.41
101.42
102.44
99.75
93.57
85.21
76.50
69.03
63.46
59.23
54.95
49.03
40.41
28.93
15.21
0.38
-14.23
-27.22
-37.16
-42.59
-42.24
-35.53
-23.14
-7.18
9.00
21.69
27.89
26.20
17.25
3.23
-12.88
-28.27
-41.00
-50.14
-55.57
-57.66
-56.96
-54.15
-50.07
-45.64
-41.58
-38.05
-34.46
-29.67
-22.46
-12.26
0.49
14.26
26.99
36.72
42.17
42.97
39.63
33.20
24.92
15.96
7.13
-1.12
-8.68
-15.60
-21.83
-27.16
-31.23
-33.79
-34.78
-34.42
-32.96
-30.43
-26.56
-20.95
-13.47
-4.67
4.16
11.23
14.85
14.10
9.06
0.91
-8.51
-17.25
-23.80
-27.46
-28.34
-27.17
-24.78
-21.79
-18.24
-13.73
-7.75
0.04
9.45
19.80
30.11
39.31
46.47
50.83
51.77
48.84
41.83
30.87
16.61
0.25
-16.50
-31.67
-43.20
-49.45
-49.57
-43.75
-33.34
-20.55
-7.90
2.44
9.22
12.37
12.93
12.61
13.18
15.83
20.82
27.37
34.04
39.17
41.37
39.90
34.71
26.47
16.30
5.62
-4.19
-12.00
-17.19
-19.72
-19.91
-18.12
-14.50
-8.95
-1.43
7.72
17.61
27.00
34.59
39.39
40.80
38.58
32.86
24.20
13.66
2.84
-6.49
-12.80
-15.25
-13.82
-9.24
-2.58
4.98
12.44
19.04
24.47
29.00
33.41
38.69
45.51
53.61
61.62
67.29
68.05
61.75
47.44
25.97
0.17
-25.60
-46.56
-59.05
-61.94
-57.36
-50.22
-46.63
-51.67
-67.52
-92.43
-121.41
-148.03
-166.60
-174.03
-170.75
-160.45
-148.89
-142.18
-144.70
-158.00
-180.30
-207.01
-232.10
-249.78
-256.11
-249.71
-231.65
-204.10
-169.82
-131.50
-91.78
-53.31
-18.62
10.37
33.15
50.98
67.49
87.11
113.98
150.97
198.61
254.56
313.35
367.16
407.50
428.76
429.38
412.54
384.91
353.94
325.28
301.51
282.66
261.15
232.08
193.68
147.94
99.48
53.01
11.31
-25.08
-56.68
-83.91
-105.49
-119.96
-126.60
-126.15
-120.91
-113.92
-107.93
-104.55
-103.92
-104.32
-103.74
-100.70
-94.83
-86.98
-78.66
-71.32
-65.84
-62.26
-59.56
-56.59
-52.47
-47.00
-40.56
-33.96
-27.95
-23.00
-19.15
-15.89
-12.68
-9.05
-4.88
-0.28
4.39
8.76
12.52
15.49
17.62
18.86
19.14
18.33
16.30
12.88
8.08
1.88
-5.43
-13.44
-21.56
-29.13
-35.46
-39.93
-42.09
-41.64
-38.53
-32.86
-24.97
-15.34
-4.54
6.83
18.11
28.58
37.65
44.87
50.05
53.18
54.47
54.28
53.05
51.29
49.09
46.50
43.66
40.68
37.77
35.27
33.60
33.10
34.08
36.10
38.67
41.30
43.68
45.70
47.54
49.61
52.36
56.06
59.99
63.32
65.08
64.50
61.05
54.45
44.34
29.79
13.68
-3.38
-21.49
-41.14
-62.96
-87.69
-115.65
-146.18
-177.30
-205.39
-226.97
-238.87
-239.48
-229.43
-210.99
-187.24
-161.04
-134.50
-109.23
-87.11
-69.78
-58.38
-52.87
-51.96
-53.40
-54.77
-54.18
-50.58
-43.96
-34.72
-23.72
-12.29
-2.49
3.62
4.64
0.62
-6.69
-14.92
-21.84
-26.25
-28.43
-29.19
-29.11
-28.05
-25.51
-21.16
-15.45
-9.60
-4.96
-2.49
-2.49
-4.49
-7.59
-10.56
-11.92
-10.21
-4.60
4.39
14.93
24.39
30.73
33.31
33.26
32.76
33.68
36.59
40.63
44.27
46.50
47.19
47.14
47.49
48.90
51.23
53.82
56.03
57.33
57.73
57.45
56.69
55.60
54.17
52.16
49.45
45.98
41.97
37.80
33.98
31.01
29.24
28.76
29.32
30.52
31.83
32.77
33.10
32.80
31.99
30.90
29.63
28.22
26.62
24.79
22.73
20.38
17.54
13.94
9.42
3.99
-1.96
-7.82
-13.00
-17.17
-20.32
-22.70
-24.55
-25.98
-26.91
-27.19
-26.76
-25.78
-24.55
-23.37
-22.41
-21.56
-20.56
-19.14
-17.15
-14.75
-12.31
-10.24
-8.72
-7.63
-6.57
-5.11
-3.05
-0.49
2.32
5.11
7.82
10.48
13.15
15.82
18.36
20.55
22.19
23.12
23.24
22.49
20.92
18.74
16.37
14.17
12.52
11.53
11.04
10.89
10.95
11.21
11.82
12.85
14.19
15.46
16.18
16.00
14.72
12.56
9.90
7.25
5.09
3.60
2.91
2.86
3.08
2.97
2.02
-0.11
-3.12
-6.38
-8.95
-10.11
-9.76
-8.29
-6.65
-5.61
-5.52
-6.29
-7.38
-8.26
-8.74
-8.86
-8.88
-8.99
-9.06
-8.73
-7.47
-4.65
-0.10
5.76
11.64
15.73
16.26
12.18
3.87
-6.93
-17.47
-25.09
-28.23
-27.07
-23.22
-18.95
-16.17
-15.63
-16.92
-18.82
-20.22
-20.53
-19.59
-17.85
-15.75
-13.52
-11.19
-8.67
-5.86
-2.90
-0.22
1.63
1.87
0.37
-2.28
-4.90
-6.07
-5.21
-2.79
-0.08
1.58
1.62
0.80
0.58
2.32
6.30
11.54
16.30
19.13
19.59
18.34
16.51
14.70
12.72
9.89
6.04
2.05
-0.36
0.69
5.65
13.09
20.14
23.86
22.99
18.09
11.51
5.76
2.14
0.60
0.01
-0.87
-2.32
-3.89
-4.60
-3.88
-2.09
-0.32
0.21
-1.22
-4.40
-8.33
-11.86
-14.28
-15.35
-15.39
-14.73
-13.54
-11.99
-10.46
-9.81
-10.70
-13.26
-16.69
-19.59
-20.82
-20.09
-18.39
-17.23
-17.65
-19.57
-21.89
-23.13
-22.40
-19.63
-15.68
-11.47
-7.58
-4.10
-1.11
1.36
2.95
3.54
3.42
3.45
4.50
6.99
10.38
13.32
14.61
13.55
10.69
7.05
3.73
1.17
-0.73
-2.30
-3.51
-3.96
-3.01
-0.53
2.85
5.92
7.47
7.00
4.89
2.31
0.47
-0.21
0.01
0.47
0.68
0.69
0.78
1.20
1.67
1.61
0.32
-2.22
-5.47
-8.65
-11.05
-12.65
-13.66
-14.40
-14.80
-14.44
-12.70
-9.71
-6.19
-3.38
-2.33
-3.24
-5.43
-7.56
-8.49
-7.77
-6.03
-4.49
-4.25
-5.66
-8.00
-9.90
-10.25
-8.82
-6.58
-4.90
-4.61
-5.52
-6.62
-6.93
-6.18
-5.04
-4.47
-4.93
-5.91
-5.98
-4.03
0.01
5.29
10.28
13.86
16.03
17.69
19.90
23.10
26.83
29.75
30.61
28.67
24.36
18.82
13.54
9.54
6.98
5.21
3.33
0.83
-1.89
-3.47
-2.43
1.84
8.36
14.65
17.90
16.39
10.47
2.29
-5.11
-9.36
-9.70
-7.08
-3.40
-0.74
-0.53
-3.10
-8.15
-14.63
-21.19
-26.48
-29.56
-30.16
-28.41
-24.95
-20.42
-15.37
-10.15
-5.02
-0.01
5.02
10.00
14.74
18.74
21.39
22.44
21.90
20.10
17.06
12.70
6.96
0.42
-5.40
-8.51
-7.48
-2.31
4.98
11.47
15.10
15.32
13.60
12.03
12.13
13.71
15.35
15.45
13.06
8.43
2.60
-3.00
-7.37
-10.02
-10.68
-9.43
-6.30
-1.57
4.09
9.53
13.47
15.15
14.69
13.28
12.33
12.91
15.01
17.41
18.70
18.00
15.57
12.45
9.78
7.97
6.55
4.67
1.84
-1.62
-4.79
-6.78
-7.17
-6.48
-5.69
-5.70
-6.96
-8.98
-10.76
-11.28
-10.17
-7.95
-5.74
-5.08
-6.84
-10.91
-16.31
-21.39
-24.82
-25.77
-24.16
-20.39
-15.02
-8.77
-2.42
2.99
6.59
7.79
6.60
3.59
-0.29
-3.97
-6.49
-7.24
-6.05
-3.31
0.02
2.82
4.11
3.62
1.85
-0.16
-1.48
-1.76
-1.46
-1.49
-2.57
-4.59
-6.67
-7.57
-6.50
-3.51
0.52
4.33
6.83
7.64
7.22
6.36
5.84
5.89
6.31
6.48
5.87
4.41
2.51
0.92
0.27
0.84
2.37
4.08
5.22
5.31
4.33
2.79
1.34
0.42
0.19
0.54
1.21
1.95
2.63
2.98
2.78
1.72
-0.20
-2.76
-5.38
-7.35
-7.99
-6.95
-4.38
-0.88
2.75
5.64
7.21
7.34
6.20
4.08
1.30
-1.97
-5.58
-9.18
-12.25
-14.07
-14.12
-12.45
-9.63
-6.71
-4.68
-4.00
-4.40
-5.03
-4.93
-3.54
-0.85
2.51
5.70
8.07
9.39
9.80
9.69
9.41
9.13
8.86
8.62
8.52
8.65
9.13
9.89
10.71
11.25
11.28
10.73
9.69
8.35
6.91
5.49
4.19
3.00
1.93
0.98
0.11
-0.68
-1.31
-1.68
-1.68
-1.34
-0.68
0.18
1.12
2.05
2.88
3.56
3.95
3.97
3.57
2.79
1.85
0.92
0.18
-0.25
-0.39
-0.32
-0.23
-0.27
-0.57
-1.14
-1.91
-2.74
-3.42
-3.81
-3.87
-3.58
-3.02
-2.22
-1.27
-0.23
0.85
1.97
3.19
4.59
6.31
8.46
11.03
13.85
16.63
19.01
20.58
21.05
20.38
18.70
16.27
13.41
10.36
7.38
4.66
2.31
0.38
-1.25
-2.82
-4.55
-6.52
-8.58
-10.45
-11.78
-12.35
-12.14
-11.35
-10.24
-9.07
-7.94
-6.90
-5.89
-4.96
-4.09
-3.31
-2.63
-2.02
-1.42
-0.68
0.23
1.35
2.63
3.91
5.09
6.02
6.78
7.47
8.22
9.06
9.88
10.45
10.45
9.70
8.14
5.84
2.97
-0.30
-3.83
-7.56
-11.42
-15.34
-19.18
-22.77
-25.82
-28.12
-29.48
-29.88
-29.39
-28.17
-26.37
-24.07
-21.29
-18.09
-14.57
-10.92
-7.35
-4.07
-1.17
1.38
3.65
5.75
7.70
9.54
11.26
12.89
14.48
16.09
17.73
19.36
20.84
21.99
22.68
22.91
22.77
22.39
21.96
21.55
21.20
20.85
20.39
19.73
18.75
17.26
15.05
11.96
7.90
3.00
-2.47
-8.13
-13.64
-18.73
-23.30
-27.26
-30.42
-32.54
-33.27
-32.26
-29.30
-24.43
-17.99
-10.51
-2.58
5.23
12.52
19.01
24.60
29.19
32.70
35.05
36.30
36.67
36.45
36.00
35.53
35.00
34.12
32.52
30.01
26.61
22.63
18.49
14.53
11.00
7.96
5.30
2.90
0.58
-1.95
-4.96
-8.54
-12.42
-15.99
-18.39
-18.93
-17.45
-14.45
-10.98
-8.23
-7.22
-8.43
-11.86
-16.77
-21.95
-26.09
-28.24
-28.07
-26.11
-23.38
-20.94
-19.19
-17.84
-16.16
-13.54
-10.11
-6.57
-4.05
-3.24
-4.03
-5.74
-7.54
-8.96
-10.19
-11.76
-14.09
-17.13
-20.22
-22.43
-22.90
-21.44
-18.63
-15.38
-12.79
-11.44
-11.44
-12.17
-12.76
-12.39
-10.58
-7.33
-3.01
1.61
5.95
9.71
12.90
15.72
18.12
20.06
21.21
21.36
20.64
19.40
18.21
17.46
17.39
17.97
19.17
20.88
23.09
25.61
28.08
30.09
31.08
30.72
28.93
25.93
22.09
17.95
14.04
10.82
8.42
6.30
3.66
-0.50
-6.68
-14.47
-22.66
-29.61
-34.11
-35.68
-34.71
-31.93
-28.08
-23.65
-18.72
-13.37
-7.71
-2.18
2.79
6.61
8.78
9.14
7.65
4.98
2.17
0.40
0.50
2.31
4.96
7.00
7.35
5.40
1.33
-4.19
-10.18
-15.44
-18.76
-18.96
-15.66
-9.58
-2.64
2.59
3.98
1.13
-4.45
-10.19
-13.85
-14.75
-13.86
-12.77
-12.34
-12.15
-10.96
-7.88
-3.27
1.34
4.13
4.07
1.63
-1.66
-4.18
-5.09
-4.58
-3.32
-1.78
0.11
2.68
6.07
9.62
12.20
12.74
10.86
7.37
3.62
1.02
0.29
1.15
2.44
2.92
1.86
-0.79
-4.15
-7.08
-8.57
-8.05
-5.73
-2.61
-0.02
0.79
-0.73
-4.28
-8.74
-12.72
-15.06
-15.56
-14.66
-13.10
-11.58
-10.50
-9.57
-8.36
-6.64
-4.74
-3.41
-3.24
-4.37
-6.18
-7.51
-7.37
-5.58
-2.88
-0.39
0.89
0.95
0.57
0.74
1.88
3.66
4.98
4.82
2.89
-0.11
-2.98
-4.52
-4.32
-2.80
-0.90
0.45
0.98
1.12
1.43
2.26
3.46
4.25
3.80
1.84
-1.09
-3.98
-5.89
-6.56
-6.49
-6.50
-7.14
-8.15
-8.80
-8.36
-6.51
-3.69
-1.05
0.30
-0.12
-2.07
-4.55
-6.30
-6.45
-4.61
-0.97
3.84
9.06
13.68
16.69
17.23
14.73
9.00
0.80
-8.44
-16.78
-22.23
-23.40
-20.09
-13.32
-4.95
2.82
8.27
10.54
9.88
7.40
4.66
3.17
4.03
7.39
12.33
17.23
20.10
19.83
16.39
11.09
5.64
1.30
-1.65
-3.91
-6.30
-9.35
-12.69
-15.39
-16.74
-16.46
-15.02
-13.21
-11.71
-10.64
-9.67
-8.31
-6.25
-3.63
-0.59
2.76
6.45
10.46
14.61
18.62
22.18
25.15
27.62
29.77
31.69
33.37
34.75
35.99
37.59
39.99
43.19
46.42
48.50
48.18
44.93
39.28
32.36
25.50
19.42
14.06
8.95
3.55
-2.30
-8.33
-13.86
-18.33
-21.55
-23.92
-26.13
-28.60
-31.27
-33.61
-35.08
-35.57
-35.65
-36.23
-37.71
-39.51
-40.00
-37.55
-31.78
-23.84
-15.76
-9.37
-5.27
-2.83
-0.74
2.13
6.09
10.33
13.91
16.47
18.56
20.96
24.09
27.79
31.43
34.22
34.69
31.24
22.93
9.95
-6.66
-25.43
-44.87
-63.97
-77.75
-82.34
-77.13
-65.59
-52.64
-41.97
-35.14
-31.96
-31.40
-32.17
-33.77
-36.34
-40.05
-44.39
-48.71
-52.46
-55.34
-57.46
-59.05
-61.03
-64.24
-69.03
-74.64
-80.17
-84.81
-87.84
-88.93
-87.65
-83.95
-77.88
-69.83
-58.67
-43.76
-24.96
-2.59
22.41
49.24
76.77
103.73
126.95
145.60
159.23
167.79
171.61
171.15
167.62
162.15
155.58
148.16
139.99
130.56
119.26
107.89
95.65
83.17
71.53
61.48
53.03
45.69
38.31
29.89
20.22
9.80
0.46
-5.95
-8.29
-6.52
-1.33
5.83
13.17
18.67
20.32
17.33
10.46
2.61
-1.80
1.42
13.62
31.44
47.16
51.61
38.63
7.91
-34.59
-79.14
-116.33
-139.36
-145.19
-135.17
-113.59
-85.60
-56.21
-29.76
-9.76
1.65
4.63
1.78
-2.40
-3.09
2.88
15.53
31.71
46.58
55.86
57.65
52.56
43.37
33.71
27.00
25.80
31.65
45.01
64.98
89.29
113.92
134.32
146.61
148.82
141.53
127.47
110.44
93.34
79.48
69.08
61.31
54.81
48.11
39.85
28.77
13.74
-6.00
-30.40
-58.39
-87.24
-113.22
-132.68
-143.45
-145.59
-141.32
-133.82
-125.47
-116.99
-107.14
-93.92
-76.04
-53.91
-29.52
-5.66
15.20
31.74
43.77
52.31
59.16
66.37
75.25
85.62
95.04
99.27
93.47
74.22
41.33
-1.68
-48.43
-91.94
-126.74
-150.27
-162.70
-165.97
-162.42
-153.99
-142.08
-127.90
-112.73
-97.74
-83.56
-70.08
-56.65
-42.58
-27.86
-13.58
-1.52
6.48
9.31
6.86
0.01
-9.64
-20.19
-29.69
-36.42
-39.21
-37.89
-33.24
-26.88
-20.58
-15.53
-11.96
-9.26
-6.48
-2.94
1.30
5.57
8.94
10.81
11.13
10.40
9.34
8.51
8.17
8.07
7.88
7.46
6.98
6.82
7.14
7.62
7.37
5.51
1.63
-3.62
-8.86
-12.29
-12.55
-9.20
-2.77
5.61
14.69
23.33
30.59
35.60
37.58
36.12
31.38
24.32
16.39
9.16
3.81
0.75
-0.39
-0.46
-0.22
0.02
0.58
2.18
5.51
10.68
17.16
23.90
29.55
32.84
32.70
28.52
20.09
7.96
-6.43
-20.75
-32.23
-38.44
-38.19
-32.02
-22.00
-10.94
-1.39
5.08
7.96
7.61
4.81
0.52
-4.10
-7.82
-9.52
-8.67
-5.48
-1.04
3.18
5.90
6.46
4.81
1.15
-4.20
-10.83
-18.04
-24.77
-29.82
-32.37
-32.39
-30.52
-27.52
-23.67
-18.36
-10.51
0.59
14.45
29.00
41.30
48.43
48.64
42.17
30.93
17.78
5.54
-3.81
-9.39
-11.34
-10.33
-7.24
-2.96
1.60
5.59
8.49
10.20
11.26
12.60
14.99
18.77
23.58
28.55
32.74
35.53
36.72
36.33
34.43
30.96
25.84
19.10
10.93
1.66
-8.20
-18.10
-27.43
-35.50
-41.64
-45.39
-46.49
-44.79
-40.15
-32.42
-21.48
-7.49
8.77
25.79
41.54
53.86
61.04
62.33
58.23
50.31
40.80
31.89
25.10
20.98
19.17
18.83
19.10
19.50
20.10
21.42
24.29
29.58
37.82
48.82
61.62
74.50
85.52
93.21
97.08
97.72
96.70
95.89
96.85
100.14
104.63
107.37
104.07
90.38
63.79
25.18
-20.81
-67.03
-106.33
-133.72
-147.71
-149.89
-143.33
-130.94
-114.82
-96.41
-77.32
-59.86
-46.72
-40.09
-40.53
-46.62
-55.37
-63.31
-67.79
-67.72
-63.58
-57.00
-49.98
-44.10
-40.13
-37.84
-36.16
-33.72
-29.22
-22.04
-12.55
-2.11
7.29
13.78
16.10
14.15
8.81
1.57
-6.10
-13.02
-18.54
-22.33
-24.34
-24.62
-23.34
-20.82
-17.72
-14.78
-12.66
-11.52
-10.85
-9.63
-6.84
-2.06
4.14
10.31
14.65
15.82
13.45
8.20
1.42
-5.46
-11.36
-15.75
-18.55
-19.78
-19.66
-18.39
-16.35
-13.91
-11.43
-9.05
-6.44
-2.95
2.31
9.85
19.48
30.12
39.87
46.70
49.08
46.62
40.16
31.58
22.91
15.77
10.76
7.53
5.13
2.55
-0.75
-4.83
-9.31
-13.80
-18.07
-21.91
-25.04
-26.75
-26.01
-21.86
-14.07
-3.48
7.92
17.64
23.59
24.79
21.46
14.73
6.01
-3.41
-12.47
-20.20
-25.69
-28.33
-28.22
-26.17
-23.54
-21.40
-20.12
-19.01
-16.78
-12.29
-5.12
4.15
14.08
22.98
29.44
32.87
33.70
33.15
32.64
33.12
34.55
35.90
35.69
32.77
26.83
18.55
9.12
-0.18
-8.31
-14.40
-17.72
-17.60
-13.87
-7.06
1.35
9.42
15.36
18.18
17.90
15.38
11.88
8.53
5.85
3.70
1.29
-2.42
-8.11
-15.84
-24.81
-33.57
-40.62
-44.74
-45.27
-42.13
-35.53
-25.94
-13.84
-0.09
14.21
27.76
39.21
47.36
51.09
49.59
42.40
29.90
13.53
-4.32
-20.82
-33.62
-41.49
-44.57
-44.08
-41.54
-38.30
-35.13
-32.19
-29.23
-25.76
-21.27
-15.51
-8.64
-1.44
4.82
8.79
9.52
6.97
2.01
-3.74
-8.60
-11.47
-11.94
-10.28
-6.99
-2.70
2.08
6.97
11.77
16.52
21.28
26.12
31.04
35.72
39.32
40.68
38.80
33.26
24.57
13.84
2.72
-7.04
-13.96
-17.67
-18.97
-19.27
-19.99
-21.40
-23.13
-23.87
-21.77
-15.18
-4.30
9.03
22.06
32.22
38.61
40.66
38.86
34.84
30.39
25.58
19.19
9.70
-3.29
-17.54
-30.75
-40.40
-44.23
-41.72
-36.26
-33.49
-38.83
-55.40
-82.39
-118.48
-161.17
-205.96
-237.55
-241.41
-210.10
-149.21
-86.06
-36.59
-10.35
-10.94
-33.25
-67.86
-103.43
-129.28
-137.91
-120.80
-76.57
-14.73
49.66
104.41
145.99
176.50
196.79
206.54
206.64
197.57
182.45
166.29
154.58
150.54
152.85
156.58
156.03
147.44
130.33
106.92
81.20
57.62
39.12
25.85
15.87
7.02
-1.88
-10.91
-19.33
-26.04
-29.84
-29.74
-25.62
-18.26
-8.67
1.88
11.97
20.41
26.34
29.46
29.76
27.25
21.84
13.64
3.18
-8.49
-19.74
-28.95
-35.01
-37.76
-37.86
-36.32
-33.70
-29.89
-24.33
-16.60
-7.00
3.28
12.63
19.67
23.76
25.00
23.82
20.65
15.82
9.63
2.66
-4.33
-10.52
-15.49
-19.13
-21.52
-22.65
-22.09
-19.20
-13.33
-4.51
6.46
18.25
29.40
39.08
47.15
54.16
60.62
66.47
70.91
72.62
70.57
64.90
57.13
49.96
46.21
47.76
54.90
66.39
80.09
93.88
106.17
115.94
122.30
124.48
121.85
114.38
102.84
88.49
72.12
53.05
29.32
-1.25
-39.22
-82.07
-124.20
-158.84
-180.79
-188.39
-184.09
-172.83
-159.52
-147.08
-135.81
-124.34
-111.35
-96.80
-81.88
-68.53
-58.15
-50.99
-46.29
-42.85
-39.88
-37.15
-35.06
-34.00
-33.96
-34.27
-34.03
-32.51
-29.74
-26.45
-23.69
-21.96
-20.76
-18.67
-14.02
-5.99
4.70
16.06
25.59
31.44
33.06
31.17
27.08
22.03
16.80
11.77
7.23
3.58
1.33
0.79
1.85
3.97
6.40
8.56
10.25
11.64
13.00
14.50
15.90
16.66
16.08
13.74
9.75
4.77
-0.16
-4.12
-6.63
-7.80
-8.17
-8.34
-8.61
-9.04
-9.45
-9.70
-9.74
-9.48
-8.61
-6.53
-2.66
3.25
10.75
18.61
25.11
28.59
28.07
23.39
15.27
5.07
-5.68
-15.46
-23.04
-27.55
-28.67
-26.63
-22.16
-16.33
-10.17
-4.39
0.86
5.82
10.83
15.80
20.15
22.89
23.04
20.21
14.78
7.78
0.51
-5.99
-11.23
-15.25
-18.32
-20.63
-22.16
-22.82
-22.60
-21.72
-20.57
-19.47
-18.38
-16.82
-14.04
-9.38
-2.61
5.82
14.87
23.18
29.46
32.78
32.79
29.67
24.11
17.05
9.54
2.57
-3.12
-7.15
-9.54
-10.56
-10.67
-10.23
-9.34
-7.84
-5.39
-1.83
2.57
6.96
10.08
10.72
8.21
2.74
-4.64
-12.44
-19.11
-23.54
-25.17
-23.97
-20.30
-14.82
-8.42
-2.10
3.21
6.85
8.58
8.69
7.77
6.44
5.20
4.14
3.08
1.68
-0.35
-3.07
-6.28
-9.58
-12.48
-14.63
-15.88
-16.31
-16.20
-15.92
-15.81
-16.06
-16.59
-17.13
-17.21
-16.34
-14.12
-10.41
-5.45
0.11
5.36
9.37
11.46
11.38
9.29
5.73
1.36
-3.13
-7.21
-10.61
-13.27
-15.22
-16.45
-16.73
-15.63
-12.63
-7.27
0.61
10.50
21.26
31.24
38.70
42.35
41.76
37.52
30.95
23.50
16.21
9.40
2.92
-3.37
-9.14
-13.53
-15.55
-14.70
-11.25
-6.02
0.06
6.54
13.42
20.87
28.62
35.65
40.53
41.98
39.66
34.35
27.44
20.36
13.82
7.80
1.96
-3.83
-9.01
-12.52
-13.42
-11.42
-7.18
-2.05
2.79
6.84
10.35
13.93
17.72
21.07
22.80
21.79
17.80
11.64
4.76
-1.41
-6.08
-9.17
-11.01
-11.93
-11.98
-11.18
-9.64
-7.74
-6.03
-4.87
-4.34
-4.15
-3.82
-2.86
-1.01
1.66
4.69
7.26
8.46
7.59
4.44
-0.48
-6.11
-11.10
-14.37
-15.48
-14.88
-13.67
-13.11
-13.93
-15.83
-17.50
-17.13
-13.21
-5.32
5.65
17.68
28.30
35.38
37.72
35.33
29.33
21.51
13.76
7.45
3.06
0.25
-1.79
-3.82
-6.07
-8.40
-10.47
-12.06
-13.19
-13.90
-13.96
-12.90
-10.15
-5.59
0.41
6.95
12.84
16.99
18.62
17.37
13.47
7.68
1.28
-4.34
-8.03
-9.31
-8.59
-6.99
-5.73
-5.67
-6.90
-8.65
-9.76
-9.10
-6.11
-1.01
5.19
11.03
15.18
16.79
15.78
12.72
8.45
3.76
-0.74
-4.59
-7.29
-8.38
-7.63
-5.25
-2.09
0.67
1.98
1.45
-0.47
-2.74
-4.13
-3.70
-1.03
3.64
9.65
16.02
21.56
24.99
25.24
21.74
14.65
4.93
-5.86
-15.96
-23.88
-28.63
-30.00
-28.43
-24.79
-19.99
-14.78
-9.71
-5.08
-1.14
1.93
4.13
5.65
6.83
8.00
9.25
10.41
11.12
11.05
10.11
8.47
6.49
4.44
2.42
0.41
-1.77
-4.19
-6.78
-9.21
-10.99
-11.52
-10.22
-6.82
-1.53
4.92
11.42
16.71
19.81
20.25
18.11
13.94
8.51
2.72
-2.55
-6.60
-8.97
-9.52
-8.56
-6.72
-4.75
-3.21
-2.30
-1.81
-1.29
-0.29
1.31
3.30
5.22
6.60
7.16
6.95
6.29
5.50
4.67
3.56
1.78
-1.06
-4.87
-9.19
-13.23
-16.26
-17.97
-18.50
-18.22
-17.38
-15.77
-12.84
-8.11
-1.64
5.81
12.84
17.93
20.12
19.20
15.75
10.78
5.39
0.48
-3.30
-5.51
-5.97
-4.87
-2.94
-1.29
-0.96
-2.21
-4.16
-4.98
-2.62
4.06
14.63
26.88
37.62
44.01
44.72
40.36
32.95
25.02
18.48
14.21
11.79
9.90
7.25
3.42
-0.75
-3.33
-2.04
4.74
17.35
33.99
50.55
61.74
62.77
51.05
27.24
-4.45
-37.46
-64.14
-78.42
-77.83
-63.93
-41.70
-18.22
-0.92
5.38
-2.86
-23.96
-51.33
-77.98
-100.15
-117.44
-130.75
-140.00
-143.38
-138.60
-124.27
-102.05
-76.94
-55.20
-41.49
-37.03
-39.47
-44.63
-48.94
-50.64
-50.30
-49.73
-50.32
-51.72
-51.88
-48.64
-39.94
-25.61
-6.99
13.58
33.79
52.16
68.45
83.77
99.83
117.73
136.81
154.55
166.87
169.49
159.66
137.56
107.02
74.21
45.28
24.36
12.75
9.39
12.04
18.34
26.46
33.83
38.89
40.68
39.39
36.59
34.87
36.55
42.11
46.45
44.09
31.02
6.80
-24.69
-57.34
-85.33
-104.97
-115.10
-116.60
-110.72
-98.32
-80.15
-56.48
-27.44
7.23
47.78
95.07
145.94
197.80
247.13
288.30
314.09
317.14
293.37
244.29
178.14
107.50
45.39
1.22
-26.47
-43.27
-55.47
-66.90
-79.26
-92.00
-103.74
-113.09
-119.78
-124.84
-129.50
-134.59
-136.96
-134.66
-126.50
-112.05
-91.56
-66.20
-35.25
0.10
33.59
62.04
82.92
92.92
90.04
75.13
52.26
27.46
6.31
-7.98
-14.95
-17.49
-19.15
-22.06
-27.07
-34.64
-46.21
-64.17
-90.27
-123.36
-159.49
-191.71
-211.44
-212.06
-191.82
-155.63
-114.03
-79.38
-60.91
-61.99
-79.01
-99.84
-111.39
-104.42
-78.34
-40.84
-2.10
31.24
57.79
79.59
99.08
116.40
129.61
136.22
135.24
128.21
118.83
111.01
107.38
108.51
112.56
116.59
117.85
114.97
108.48
100.23
92.27
85.88
81.44
77.62
72.88
66.09
56.99
46.36
35.54
25.80
18.00
12.54
8.98
6.95
6.14
6.41
7.69
9.83
12.58
15.64
18.92
22.06
25.03
27.83
30.18
31.40
30.36
25.59
15.16
0.56
-18.09
-40.39
-65.15
-90.03
-111.64
-126.20
-130.55
-123.14
-104.40
-77.15
-45.02
-11.94
18.29
42.23
56.75
59.30
48.48
24.77
-9.38
-49.06
-87.71
-118.76
-137.37
-141.92
-134.45
-119.65
-103.05
-89.30
-80.43
-75.94
-73.79
-71.85
-68.77
-64.26
-58.58
-52.08
-45.01
-37.61
-30.10
-22.79
-15.81
-9.24
-2.96
3.09
8.81
13.94
18.31
21.94
24.97
27.53
29.63
30.97
31.21
30.13
27.90
24.96
21.84
18.90
16.17
13.51
10.77
8.06
5.76
4.43
4.62
6.61
10.24
14.88
19.57
23.22
24.82
23.74
19.97
14.18
7.66
1.88
-2.02
-3.70
-3.67
-3.09
-3.19
-4.74
-7.74
-11.48
-14.85
-16.81
-16.60
-14.12
-9.86
-4.74
0.06
3.58
5.28
5.27
4.04
2.33
0.83
0.08
0.39
1.73
3.71
5.58
6.49
5.86
3.69
0.77
-1.62
-2.29
-0.64
3.03
7.64
11.96
14.98
16.33
16.12
14.78
12.74
10.27
7.53
4.72
2.20
0.39
-0.47
-0.51
-0.41
-1.06
-3.10
-6.38
-9.93
-12.31
-12.25
-9.44
-4.68
0.46
4.37
5.99
5.12
2.36
-1.38
-5.11
-7.96
-9.07
-7.69
-3.33
3.76
12.45
21.07
27.96
32.15
33.78
33.74
33.04
32.15
30.74
28.05
23.43
16.96
9.47
2.16
-3.91
-8.21
-10.85
-11.98
-11.70
-9.82
-6.15
-0.82
5.49
11.72
16.94
20.64
22.97
24.21
24.33
22.81
18.97
12.56
4.20
-4.63
-12.20
-17.08
-18.71
-17.22
-13.25
-7.47
-0.61
6.56
13.00
17.80
20.39
20.72
19.46
17.62
16.07
15.40
15.64
16.45
17.22
17.35
16.47
14.72
12.80
11.59
11.86
13.90
17.45
22.03
27.39
33.83
42.02
52.34
64.28
76.38
86.51
92.78
94.26
91.38
85.80
80.05
76.89
78.81
87.34
102.28
121.38
140.46
154.59
159.63
153.54
137.01
112.77
84.29
54.50
25.06
-3.36
-30.46
-55.85
-78.92
-99.09
-116.22
-130.71
-143.24
-154.32
-163.93
-171.53
-176.17
-176.96
-173.40
-165.62
-154.23
-140.14
-124.23
-107.18
-89.35
-70.91
-51.99
-32.78
-13.65
4.87
22.16
37.68
50.93
61.54
69.38
74.53
77.26
77.96
77.04
74.74
71.16
66.27
59.97
52.28
43.30
33.06
21.55
8.71
-5.31
-19.79
-33.52
-45.08
-53.47
-58.67
-61.70
-64.21
-67.46
-71.70
-76.07
-79.12
-79.57
-76.97
-71.66
-64.14
-54.59
-42.70
-28.17
-11.36
6.14
21.61
32.03
34.96
29.50
16.54
-1.39
-20.90
-38.68
-52.44
-61.17
-64.97
-64.46
-60.21
-52.60
-42.07
-29.60
-16.72
-5.37
2.70
6.53
6.15
2.41
-3.52
-10.37
-16.97
-22.25
-25.25
-25.45
-22.96
-18.54
-13.44
-8.82
-5.45
-3.44
-2.39
-1.52
-0.25
1.85
4.78
8.13
11.08
12.57
11.60
7.77
1.53
-5.83
-12.53
-17.21
-19.45
-19.84
-19.46
-19.24
-19.35
-19.11
-17.65
-14.46
-9.81
-4.69
-0.37
2.24
2.95
2.18
0.73
-0.59
-1.13
-0.53
1.29
4.24
8.09
12.42
16.68
20.39
23.11
24.73
25.44
25.48
24.94
23.63
21.45
18.72
16.04
13.98
12.41
10.29
6.03
-1.37
-11.53
-22.43
-31.12
-35.15
-33.87
-28.83
-22.99
-19.22
-18.81
-21.07
-24.02
-25.74
-25.60
-24.53
-24.22
-26.05
-30.17
-35.19
-39.17
-40.73
-39.66
-36.97
-34.02
-31.65
-29.77
-27.66
-24.69
-20.79
-16.44
-12.17
-8.16
-4.10
0.36
5.26
10.01
13.72
15.67
15.76
14.75
13.75
13.66
14.73
16.50
18.13
18.93
18.74
17.95
17.18
16.82
16.67
15.87
13.17
7.27
-2.67
-16.88
-35.17
-57.05
-82.07
-109.84
-139.95
-171.49
-202.92
-232.00
-256.09
-272.83
-280.48
-278.01
-264.83
-240.63
-205.99
-163.23
-116.94
-73.39
-38.73
-16.49
-6.07
-3.01
-1.14
4.56
15.93
31.59
48.59
64.41
78.29
90.92
103.38
115.86
127.51
136.95
143.28
146.54
147.71
148.21
149.06
150.44
151.63
151.49
148.98
143.72
136.16
127.39
118.74
111.16
105.11
100.37
96.37
92.54
88.61
84.66
81.04
78.17
76.28
75.29
74.79
74.27
73.28
71.52
68.92
65.63
61.82
57.70
53.41
49.07
44.76
40.62
36.84
33.62
31.18
29.67
29.17
29.61
30.85
32.74
35.04
37.53
40.01
42.33
44.33
45.92
47.07
47.81
48.15
48.12
47.76
47.14
46.39
45.70
45.28
45.36
46.06
47.40
49.30
51.64
54.16
56.67
58.86
60.36
60.75
59.58
56.44
50.98
43.05
32.65
19.96
5.36
-10.59
-27.22
-43.76
-59.42
-73.50
-85.37
-94.58
-100.89
-104.23
-104.74
-102.70
-98.47
-92.48
-85.15
-76.92
-68.22
-59.52
-51.22
-43.70
-37.23
-32.00
-28.05
-25.39
-23.90
-23.43
-23.79
-24.69
-25.85
-26.95
-27.75
-28.07
-27.80
-26.93
-25.56
-23.84
-21.94
-20.06
-18.37
-16.98
-15.95
-15.32
-15.09
-15.18
-15.51
-15.97
-16.43
-16.73
-16.75
-16.39
-15.59
-14.28
-12.47
-10.18
-7.40
-4.21
-0.71
2.96
6.58
9.91
12.70
14.68
15.64
15.45
14.05
11.53
8.05
3.90
-0.60
-5.05
-9.06
-12.25
-14.27
-14.90
-14.03
-11.76
-8.26
-3.82
1.16
6.35
11.37
15.91
19.76
22.79
24.97
26.34
26.97
26.98
26.48
25.57
24.33
22.86
21.28
19.70
18.21
16.89
15.77
14.89
14.19
13.68
13.31
13.00
12.63
12.10
11.32
10.19
8.71
6.88
4.74
2.39
-0.06
-2.44
-4.58
-6.37
-7.69
-8.47
-8.71
-8.35
-7.38
-5.84
-3.73
-1.14
1.78
4.85
7.86
10.60
12.85
14.45
15.29
15.28
14.42
12.72
10.29
7.30
3.94
0.47
-2.82
-5.67
-7.85
-9.17
-9.54
-8.98
-7.57
-5.49
-2.90
-0.04
2.88
5.63
8.01
9.86
11.06
11.59
11.46
10.74
9.50
7.92
6.12
4.28
2.56
1.13
0.16
-0.26
-0.07
0.67
1.84
3.26
4.69
5.88
6.62
6.74
6.12
4.71
2.48
-0.52
-4.20
-8.36
-12.81
-17.27
-21.45
-25.06
-27.86
-29.67
-30.44
-30.20
-29.10
-27.35
-25.20
-22.89
-20.60
-18.43
-16.38
-14.36
-12.27
-9.98
-7.42
-4.58
-1.43
1.95
5.48
9.03
12.42
15.49
18.04
19.90
20.97
21.17
20.50
19.00
16.82
14.11
11.09
7.98
5.01
2.37
0.23
-1.26
-2.03
-2.09
-1.48
-0.29
1.30
3.10
4.96
6.70
8.14
9.22
9.82
9.87
9.38
8.39
7.01
5.32
3.42
1.44
-0.53
-2.36
-3.93
-5.13
-5.89
-6.21
-6.13
-5.70
-5.00
-4.13
-3.13
-2.10
-1.10
-0.23
0.42
0.76
0.70
0.19
-0.76
-2.12
-3.78
-5.61
-7.45
-9.09
-10.36
-11.09
-11.13
-10.42
-8.96
-6.89
-4.45
-1.93
0.38
2.20
3.37
3.77
3.38
2.27
0.57
-1.59
-3.97
-6.37
-8.54
-10.22
-11.19
-11.29
-10.44
-8.67
-6.08
-2.86
0.76
4.52
8.14
11.36
13.90
15.59
16.36
16.19
15.16
13.40
11.01
8.10
4.76
1.09
-2.75
-6.55
-10.08
-13.07
-15.29
-16.61
-16.95
-16.36
-14.91
-12.74
-10.03
-7.01
-3.91
-1.01
1.44
3.32
4.55
5.20
5.33
5.02
4.34
3.30
1.95
0.37
-1.28
-2.83
-4.06
-4.86
-5.13
-4.86
-4.06
-2.76
-1.01
1.10
3.42
5.72
7.80
9.47
10.64
11.31
11.52
11.35
10.81
9.87
8.51
6.76
4.78
2.76
1.01
-0.22
-0.73
-0.46
0.51
2.02
3.87
5.82
7.62
8.99
9.74
9.70
8.85
7.31
5.30
3.09
0.84
-1.35
-3.49
-5.58
-7.58
-9.32
-10.65
-11.37
-11.38
-10.71
-9.47
-7.85
-5.99
-4.06
-2.20
-0.57
0.65
1.33
1.40
0.92
0.07
-0.96
-2.00
-2.97
-3.95
-4.98
-6.15
-7.47
-8.86
-10.15
-11.23
-11.90
-12.05
-11.63
-10.61
-9.00
-6.86
-4.30
-1.51
1.21
3.51
5.08
5.79
5.81
5.57
5.65
6.45
8.01
9.95
11.62
12.38
11.87
10.16
7.68
5.07
2.96
1.80
1.84
3.08
5.33
8.12
10.88
12.90
13.70
13.11
11.46
9.51
8.27
8.60
10.90
14.95
19.91
24.74
28.59
31.16
32.71
33.88
35.32
37.41
40.15
43.26
46.37
49.14
51.34
52.86
53.73
54.10
54.17
54.04
53.55
52.22
49.47
44.78
38.01
29.39
19.50
9.01
-1.54
-11.74
-21.35
-30.09
-37.71
-43.91
-48.59
-51.83
-53.91
-55.20
-56.06
-56.68
-57.11
-57.26
-57.07
-56.49
-55.62
-54.67
-53.81
-53.17
-52.74
-52.36
-51.83
-50.90
-49.42
-47.33
-44.64
-41.43
-37.78
-33.79
-29.53
-25.09
-20.62
-16.30
-12.33
-8.93
-6.28
-4.51
-3.64
-3.66
-4.49
-6.06
-8.26
-10.96
-14.01
-17.21
-20.32
-23.14
-25.46
-27.10
-27.93
-27.86
-26.85
-24.91
-22.10
-18.53
-14.36
-9.76
-4.90
0.01
4.86
9.56
14.03
18.24
22.14
25.71
28.95
31.89
34.60
37.15
39.64
42.13
44.66
47.23
49.83
52.41
54.88
57.13
59.00
60.31
60.87
60.51
59.07
56.44
52.51
47.28
40.80
33.31
25.02
16.28
7.48
-1.00
-8.79
-15.55
-20.99
-24.92
-27.19
-27.73
-26.57
-23.87
-19.78
-14.56
-8.52
-1.96
4.83
11.50
17.72
23.19
27.64
30.94
33.07
34.13
34.28
33.73
32.63
31.23
29.70
28.28
27.19
26.63
26.67
27.21
27.92
28.24
27.46
24.84
19.76
11.73
0.54
-13.76
-30.81
-50.01
-70.46
-91.14
-111.03
-129.29
-145.23
-158.31
-168.06
-174.00
-175.70
-172.90
-165.68
-154.44
-139.96
-123.07
-104.70
-85.67
-66.63
-48.23
-31.00
-15.45
-2.02
8.98
17.42
23.38
27.10
28.92
29.23
28.40
26.76
24.68
22.46
20.43
18.81
17.76
17.25
17.18
17.37
17.65
17.83
17.78
17.38
16.54
15.17
13.27
10.85
8.04
4.99
1.90
-1.03
-3.57
-5.48
-6.60
-6.80
-6.02
-4.30
-1.79
1.32
4.77
8.31
11.72
14.79
17.39
19.38
20.70
21.24
20.96
19.92
18.19
15.98
13.49
10.98
8.69
6.81
5.54
4.99
5.24
6.26
7.96
10.18
12.69
15.22
17.55
19.48
20.93
21.82
22.20
22.09
21.53
20.60
19.39
18.06
16.78
15.67
14.86
14.39
14.29
14.55
15.19
16.19
17.49
19.04
20.65
22.15
23.37
24.12
24.33
23.87
22.75
20.96
18.47
15.34
11.70
7.69
3.57
-0.37
-3.87
-6.71
-8.72
-9.81
-9.93
-9.06
-7.23
-4.56
-1.15
2.73
6.83
10.81
14.34
17.16
19.10
20.08
20.09
19.20
17.52
15.14
12.22
8.92
5.47
2.10
-0.94
-3.48
-5.33
-6.49
-6.97
-6.82
-6.13
-5.00
-3.53
-1.85
-0.09
1.52
2.83
3.68
4.01
3.80
3.15
2.13
0.92
-0.39
-1.69
-2.87
-3.82
-4.46
-4.75
-4.68
-4.29
-3.63
-2.77
-1.78
-0.69
0.44
1.56
2.57
3.37
3.83
3.86
3.34
2.28
0.72
-1.19
-3.28
-5.31
-7.04
-8.28
-8.85
-8.66
-7.66
-5.91
-3.56
-0.76
2.29
5.39
8.34
10.91
12.90
14.13
14.51
14.00
12.64
10.57
7.97
5.07
2.12
-0.63
-2.94
-4.62
-5.56
-5.72
-5.18
-4.05
-2.51
-0.77
0.99
2.60
3.90
4.78
5.14
4.89
4.00
2.51
0.57
-1.68
-4.04
-6.37
-8.51
-10.33
-11.69
-12.51
-12.68
-12.16
-10.98
-9.20
-7.00
-4.57
-2.16
-0.03
1.59
2.54
2.74
2.21
0.98
-0.84
-3.14
-5.82
-8.74
-11.77
-14.77
-17.59
-20.14
-22.31
-24.01
-25.15
-25.62
-25.33
-24.21
-22.27
-19.60
-16.37
-12.79
-9.06
-5.42
-2.00
1.07
3.70
5.78
7.27
8.14
8.43
8.20
7.59
6.74
5.80
4.88
4.08
3.47
3.06
2.87
2.93
3.27
3.91
4.79
5.84
6.89
7.80
8.46
8.81
8.82
8.50
7.84
6.85
5.54
3.99
2.32
0.69
-0.72
-1.75
-2.29
-2.32
-1.88
-1.08
-0.07
0.96
1.86
2.47
2.68
2.39
1.56
0.21
-1.65
-3.92
-6.48
-9.19
-11.84
-14.24
-16.21
-17.60
-18.26
-18.13
-17.20
-15.50
-13.19
-10.42
-7.40
-4.33
-1.37
1.28
3.51
5.17
6.20
6.56
6.30
5.49
4.26
2.78
1.26
-0.13
-1.19
-1.71
-1.54
-0.53
1.34
4.06
7.48
11.39
15.56
19.74
23.76
27.44
30.64
33.23
35.06
36.04
36.12
35.33
33.78
31.62
29.06
26.31
23.54
20.90
18.49
16.39
14.64
13.21
12.07
11.13
10.32
9.58
8.84
8.05
7.09
5.84
4.17
2.02
-0.65
-3.80
-7.30
-11.03
-14.83
-18.56
-22.05
-25.14
-27.66
-29.44
-30.41
-30.57
-30.05
-28.98
-27.59
-26.02
-24.43
-22.90
-21.49
-20.29
-19.36
-18.74
-18.47
-18.54
-18.89
-19.45
-20.10
-20.67
-21.02
-21.00
-20.49
-19.43
-17.77
-15.53
-12.72
-9.34
-5.38
-0.89
3.99
9.04
13.96
18.39
22.06
24.78
26.51
27.28
27.19
26.23
24.27
21.10
16.54
10.64
3.80
-3.19
-9.38
-13.90
-16.38
-16.97
-16.41
-15.56
-15.08
-15.05
-14.97
-14.04
-11.62
-7.69
-2.95
1.36
4.13
4.84
3.99
2.78
2.73
5.24
11.24
21.21
35.08
52.05
70.13
86.16
96.41
97.93
90.01
74.77
56.52
40.09
28.76
23.15
21.44
20.76
18.91
15.28
10.63
6.03
1.87
-2.67
-8.76
-16.92
-26.07
-33.21
-34.45
-26.80
-9.76
13.85
38.75
59.39
72.21
76.96
76.22
73.75
72.57
74.00
77.94
83.93
92.18
103.70
119.55
139.91
163.37
187.02
207.28
220.92
225.78
221.21
208.06
188.39
164.94
140.11
115.53
91.63
67.79
42.99
16.38
-12.44
-43.55
-76.97
-112.37
-148.97
-185.02
-217.74
-243.98
-261.03
-267.80
-265.23
-255.87
-243.04
-229.64
-217.30
-206.47
-197.00
-188.94
-182.94
-179.86
-179.72
-180.86
-179.86
-172.67
-156.18
-129.76
-95.69
-58.36
-22.64
7.56
29.73
42.65
45.91
39.82
25.79
6.93
-12.23
-26.93
-33.84
-32.51
-25.32
-16.42
-9.80
-7.61
-9.50
-13.02
-14.64
-11.13
-0.51
17.22
39.88
63.41
82.62
92.59
90.27
75.70
52.08
24.90
0.24
-17.26
-25.41
-24.61
-17.23
-6.59
4.05
12.16
16.37
16.59
14.05
10.85
9.20
10.66
15.47
22.44
29.48
34.49
36.11
34.11
29.27
22.84
16.12
10.11
5.45
2.53
1.38
1.75
3.05
4.51
5.28
4.78
2.83
-0.32
-4.12
-8.01
-11.53
-14.57
-17.15
-19.48
-21.62
-23.54
-25.02
-25.75
-25.45
-24.02
-21.59
-18.51
-15.25
-12.28
-9.89
-8.24
-7.26
-6.77
-6.56
-6.48
-6.45
-6.42
-6.40
-6.43
-6.47
-6.42
-6.26
-5.85
-5.16
-4.21
-3.11
-1.92
-0.73
0.39
1.41
2.32
3.12
3.76
4.14
4.17
3.72
2.75
1.25
-0.75
-3.17
-5.89
-8.78
-11.67
-14.41
-16.78
-18.64
-19.85
-20.35
-20.13
-19.22
-17.66
-15.51
-12.77
-9.50
-5.77
-1.74
2.43
6.53
10.27
13.44
15.87
17.39
17.96
17.51
16.04
13.54
10.10
5.89
1.22
-3.49
-7.82
-11.39
-13.88
-15.07
-14.85
-13.26
-10.48
-6.89
-2.96
0.86
4.26
7.15
9.56
11.54
13.04
13.90
13.93
13.01
11.19
8.81
6.28
4.07
2.58
2.04
2.58
4.02
6.09
8.31
10.15
11.22
11.35
10.68
9.53
8.35
7.57
7.44
8.06
9.25
10.67
11.80
12.14
11.39
9.52
6.92
4.15
1.90
0.60
0.40
1.10
2.34
3.64
4.54
4.67
3.86
2.17
-0.06
-2.21
-3.58
-3.57
-1.97
0.95
4.44
7.57
9.58
10.20
9.72
8.92
8.65
9.44
11.21
13.24
14.37
13.54
10.13
4.19
-3.59
-12.25
-20.57
-27.39
-31.50
-31.91
-28.04
-20.18
-9.59
1.59
11.07
17.18
19.45
18.74
16.66
14.75
13.77
13.47
12.91
11.00
7.18
1.65
-4.70
-10.76
-15.71
-19.24
-21.39
-22.13
-21.12
-17.56
-10.79
-0.84
11.21
23.40
33.58
40.28
43.08
42.46
39.29
34.13
27.21
18.58
8.58
-1.92
-11.75
-19.90
-25.97
-30.23
-33.26
-35.43
-36.53
-35.76
-32.27
-25.59
-16.06
-4.68
7.05
17.76
26.35
32.09
34.52
33.46
29.09
22.00
13.23
4.06
-4.38
-11.46
-17.09
-21.72
-25.89
-29.93
-33.58
-35.97
-35.90
-32.29
-24.74
-13.77
-0.76
12.47
24.29
33.53
39.70
42.71
42.60
39.50
33.69
25.73
16.40
6.49
-3.43
-13.18
-22.53
-30.83
-36.88
-39.23
-36.81
-29.57
-18.62
-5.91
6.53
17.25
25.57
31.43
35.02
36.54
36.22
34.40
31.67
28.67
25.94
23.71
21.94
20.49
19.30
18.46
18.08
18.28
19.01
20.10
21.25
22.10
22.33
21.64
19.94
17.35
14.24
11.11
8.35
6.25
4.88
4.17
3.89
3.84
3.89
3.94
3.99
4.04
4.16
4.41
4.81
5.36
5.97
6.52
6.88
6.99
6.78
6.30
5.58
4.62
3.41
1.88
-0.03
-2.38
-5.13
-8.25
-11.62
-15.19
-18.90
-22.65
-26.38
-29.96
-33.32
-36.33
-38.88
-40.87
-42.16
-42.60
-42.05
-40.40
-37.59
-33.55
-28.37
-22.18
-15.23
-7.87
-0.53
6.37
12.37
17.08
20.22
21.55
20.98
18.56
14.45
8.97
2.49
-4.56
-11.76
-18.64
-24.81
-29.90
-33.61
-35.72
-36.12
-34.84
-32.01
-27.82
-22.60
-16.72
-10.58
-4.59
0.85
5.43
8.90
11.06
11.84
11.26
9.40
6.46
2.73
-1.49
-5.84
-9.94
-13.49
-16.23
-17.97
-18.60
-18.09
-16.44
-13.80
-10.31
-6.20
-1.76
2.77
7.10
10.94
14.03
16.14
17.19
17.13
16.12
14.36
12.08
9.49
6.78
4.21
1.94
0.14
-1.13
-1.86
-2.13
-2.02
-1.69
-1.29
-0.99
-0.92
-1.18
-1.84
-2.93
-4.44
-6.29
-8.40
-10.63
-12.82
-14.80
-16.44
-17.58
-18.04
-17.73
-16.54
-14.46
-11.56
-7.99
-3.95
0.40
4.88
9.32
13.51
17.22
20.22
22.31
23.36
23.37
22.44
20.80
18.70
16.40
14.13
12.09
10.48
9.40
8.98
9.28
10.31
11.96
14.01
16.22
18.32
20.07
21.32
22.00
22.09
21.54
20.41
18.75
16.73
14.53
12.39
10.49
8.95
7.88
7.37
7.57
8.66
10.88
14.35
19.15
25.18
32.27
40.17
48.56
57.23
65.85
74.14
81.80
88.56
94.21
98.52
101.40
102.74
102.45
100.46
96.62
90.86
83.02
72.94
60.49
45.60
28.30
8.80
-12.50
-34.99
-57.96
-80.61
-102.14
-121.87
-139.18
-153.63
-165.01
-173.25
-178.47
-180.93
-181.03
-179.08
-175.37
-170.04
-163.11
-154.52
-144.19
-132.21
-118.68
-103.83
-88.03
-71.71
-55.24
-39.02
-23.37
-8.63
4.80
16.63
26.61
34.54
40.37
44.24
46.49
47.53
47.73
47.28
46.32
44.92
42.91
40.20
37.13
34.38
32.73
32.61
33.95
36.33
39.05
40.97
41.30
40.10
38.23
36.76
36.29
36.60
36.95
36.44
33.61
27.78
19.62
11.08
4.30
0.60
0.05
1.81
4.45
5.15
1.13
-9.50
-26.93
-49.89
-75.86
-101.52
-123.37
-131.79
-121.40
-94.96
-62.71
-35.40
-18.29
-10.75
-9.22
-10.15
-11.62
-14.45
-19.98
-28.36
-38.07
-46.96
-53.54
-57.70
-60.16
-62.01
-64.90
-69.75
-76.14
-82.43
-86.72
-87.53
-84.95
-79.04
-69.94
-58.55
-45.77
-32.16
-17.85
-2.92
12.61
28.08
42.52
55.68
66.98
75.76
81.42
83.68
82.59
79.23
74.58
69.70
67.00
68.35
74.91
87.24
105.99
127.29
149.82
172.76
195.61
219.60
245.18
271.55
296.64
317.87
332.93
341.03
342.03
324.65
284.08
222.11
146.78
68.35
-4.88
-68.45
-120.56
-161.60
-192.60
-213.40
-224.78
-228.64
-227.76
-224.77
-221.42
-217.94
-213.87
-207.89
-198.02
-183.80
-165.68
-145.20
-123.84
-102.41
-80.69
-58.08
-33.26
-5.15
25.97
58.83
91.40
122.40
151.38
178.96
201.02
217.70
231.38
244.74
258.73
270.61
274.44
262.57
229.54
175.62
108.88
41.86
-13.33
-48.94
-66.63
-72.34
-73.44
-75.76
-81.95
-91.34
-102.21
-112.85
-121.39
-125.39
-121.38
-106.74
-81.42
-48.67
-14.30
15.01
34.21
41.46
38.22
28.79
17.26
5.07
-9.61
-30.17
-58.95
-94.85
-132.88
-165.65
-186.15
-190.72
-180.15
-158.67
-131.59
-103.30
-76.18
-50.99
-27.94
-7.73
8.09
17.63
19.80
15.15
6.14
-3.68
-10.91
-13.52
-11.64
-7.34
-3.45
-1.83
-2.22
-2.24
1.35
10.78
25.84
43.69
60.02
71.01
74.77
71.90
64.75
56.05
47.59
39.68
31.42
21.50
9.04
-5.90
-22.17
-37.95
-51.19
-60.18
-63.65
-60.93
-51.79
-36.48
-16.10
7.17
29.94
48.17
58.17
57.92
48.08
31.71
13.32
-2.99
-14.80
-21.96
-25.99
-28.84
-31.74
-34.85
-37.60
-39.24
-39.50
-38.51
-36.26
-32.09
-24.70
-12.82
3.72
23.09
41.54
54.52
58.48
52.34
37.93
19.22
0.51
-15.13
-26.81
-35.39
-42.38
-48.67
-54.03
-57.27
-57.10
-52.86
-44.70
-33.24
-19.10
-2.81
15.08
33.48
50.57
64.11
72.22
74.14
70.51
63.00
53.50
43.18
32.15
19.72
5.13
-11.67
-29.68
-47.06
-61.59
-71.34
-74.94
-71.71
-61.55
-45.06
-23.67
0.37
24.16
44.64
59.45
67.48
69.10
65.77
59.31
51.13
41.76
31.05
18.61
4.28
-11.50
-27.69
-42.70
-54.72
-61.84
-62.49
-55.83
-42.07
-22.66
-0.13
22.39
42.02
56.70
65.60
68.86
67.07
60.79
50.38
36.21
19.06
0.40
-17.72
-33.20
-44.39
-50.68
-52.43
-50.59
-46.15
-39.63
-31.07
-20.21
-7.03
7.99
23.57
37.73
48.25
53.30
52.09
45.03
33.49
19.28
4.04
-11.10
-25.33
-37.93
-48.06
-54.85
-57.62
-56.18
-50.55
-40.86
-27.14
-9.68
10.30
30.22
46.53
55.85
56.43
49.11
37.05
24.43
14.69
9.23
7.17
6.17
3.60
-2.26
-11.78
-23.99
-36.87
-47.98
-54.94
-55.99
-50.52
-39.24
-24.19
-8.33
5.31
14.36
17.64
15.25
8.45
-0.78
-10.24
-17.84
-22.02
-22.09
-18.39
-12.04
-4.51
2.92
9.55
15.24
20.15
24.36
27.66
29.71
30.17
29.09
26.85
24.12
21.52
19.32
17.22
14.38
9.79
2.87
-5.95
-15.26
-22.88
-26.78
-25.65
-19.22
-8.04
7.12
25.55
46.45
68.44
89.23
105.83
115.40
116.31
108.83
95.04
77.98
60.34
43.77
28.58
14.25
0.16
-13.74
-26.83
-37.99
-45.93
-49.52
-47.89
-40.44
-27.11
-8.56
13.67
37.39
60.39
80.96
98.31
112.38
123.45
131.48
136.07
136.50
132.19
123.23
110.42
95.43
80.35
67.11
56.78
48.99
41.65
31.32
14.34
-11.67
-46.28
-85.87
-124.57
-156.25
-176.64
-184.65
-182.44
-174.03
-163.59
-154.02
-146.57
-141.23
-137.51
-135.12
-134.06
-134.38
-135.67
-136.99
-136.78
-133.37
-125.41
-112.35
-94.74
-74.14
-52.45
-31.36
-11.76
6.26
22.77
37.46
49.21
56.43
57.90
53.61
45.11
34.90
25.41
18.08
13.16
10.28
9.37
11.02
16.14
25.03
36.68
48.73
58.37
63.57
63.88
60.35
54.74
48.54
42.48
36.67
31.11
26.04
21.90
18.70
15.79
11.86
5.56
-3.69
-15.29
-27.60
-38.43
-45.74
-48.00
-44.40
-34.92
-20.46
-3.09
13.96
26.77
31.57
25.76
8.73
-17.97
-51.04
-86.01
-117.90
-141.78
-153.26
-148.94
-126.94
-87.67
-34.60
25.23
81.95
124.82
145.38
140.47
113.72
74.09
32.29
-3.50
-30.10
-48.89
-62.71
-72.17
-74.20
-63.45
-35.86
7.71
60.44
111.20
148.55
164.31
155.72
125.30
79.04
24.33
-31.57
-82.15
-121.68
-145.22
-149.29
-132.83
-98.22
-51.60
-1.61
42.64
74.16
89.67
89.92
78.46
59.91
38.43
17.09
-1.84
-16.39
-24.76
-25.84
-20.07
-9.77
1.29
9.25
11.60
7.96
-0.09
-9.89
-18.94
-25.67
-29.60
-31.03
-30.44
-28.23
-24.55
-19.61
-13.81
-7.57
-1.33
4.81
10.98
17.57
24.80
32.51
39.96
45.96
49.20
48.66
44.00
35.72
25.19
14.26
4.77
-1.90
-5.23
-5.81
-5.18
-5.42
-8.44
-15.23
-25.33
-36.78
-46.63
-51.83
-50.21
-41.19
-25.82
-6.49
13.71
31.96
46.16
55.17
58.63
56.70
49.74
38.29
23.21
5.79
-12.21
-28.83
-42.29
-51.41
-55.81
-55.85
-52.22
-45.57
-36.17
-23.92
-8.69
9.18
28.43
46.91
61.96
71.10
72.77
66.79
54.36
37.61
19.25
2.07
-11.55
-20.03
-23.15
-22.21
-19.90
-19.25
-22.40
-29.29
-37.32
-41.99
-38.70
-24.71
-0.63
29.36
58.73
80.79
90.93
88.17
75.25
57.26
39.56
25.79
16.80
10.90
5.20
-2.62
-13.10
-24.63
-34.18
-38.53
-35.55
-24.85
-7.96
12.33
32.53
49.26
59.86
62.80
58.17
47.63
33.97
20.22
8.51
-0.61
-8.19
-16.17
-26.12
-38.40
-51.93
-64.76
-74.98
-81.23
-83.02
-80.44
-73.82
-63.51
-49.97
-34.11
-17.37
-1.73
10.72
18.16
19.70
15.77
8.01
-1.12
-9.17
-14.58
-17.15
-18.25
-19.93
-23.90
-30.48
-38.11
-43.96
-44.92
-39.19
-26.95
-10.47
6.78
21.50
31.58
36.43
36.73
33.66
28.19
20.74
11.39
0.24
-12.10
-24.43
-35.18
-42.90
-46.73
-46.53
-42.62
-35.33
-24.57
-9.96
8.65
30.25
52.20
70.54
81.40
82.40
73.85
58.54
40.44
22.89
7.39
-6.40
-19.71
-33.09
-45.68
-55.46
-60.37
-59.57
-53.94
-45.50
-36.26
-27.16
-17.66
-6.45
7.52
23.99
41.20
56.34
66.71
70.70
68.24
60.41
48.82
34.76
18.97
1.79
-16.45
-34.94
-52.19
-66.06
-74.09
-74.08
-64.83
-46.53
-21.13
8.04
36.97
61.81
79.60
88.54
88.23
79.45
64.00
44.44
23.80
4.75
-10.86
-22.44
-30.47
-35.92
-39.57
-41.61
-41.60
-38.67
-32.01
-21.32
-7.02
9.46
25.96
39.68
48.03
49.21
42.98
30.73
15.12
-0.78
-14.37
-24.04
-29.45
-31.17
-30.25
-27.81
-24.66
-21.11
-16.93
-11.75
-5.20
2.50
10.69
18.17
23.60
25.96
24.77
20.19
12.93
4.12
-4.79
-12.35
-17.32
-19.01
-17.55
-13.93
-9.61
-6.15
-4.52
-4.67
-5.40
-4.81
-0.93
7.31
19.37
32.93
44.54
50.64
48.82
38.57
21.34
-0.06
-22.31
-42.44
-58.22
-68.53
-73.35
-73.60
-70.77
-66.27
-60.72
-53.61
-43.47
-28.68
-8.62
15.66
41.23
64.25
81.23
90.19
91.13
85.52
75.35
62.01
45.98
26.86
4.14
-22.23
-51.20
-80.47
-106.67
-125.76
-133.88
-128.34
-108.64
-76.89
-37.63
3.28
40.04
68.39
86.58
95.61
98.90
100.90
105.40
114.04
125.37
135.30
138.82
131.90
113.22
84.63
50.48
16.12
-13.87
-36.91
-52.74
-62.88
-69.34
-73.41
-75.08
-73.17
-66.25
-53.71
-36.39
-16.32
4.13
23.20
39.98
54.03
64.68
70.66
70.49
63.25
49.35
30.71
10.10
-9.59
-26.52
-40.30
-51.84
-62.64
-73.75
-85.21
-95.98
-104.65
-110.26
-112.90
-113.75
-114.38
-115.90
-118.35
-120.82
-122.15
-121.74
-120.04
-118.39
-118.12
-119.72
-122.29
-123.67
-121.21
-112.68
-96.91
-74.06
-45.65
-14.58
15.26
39.85
56.31
64.23
66.23
67.18
72.26
84.68
104.19
127.39
149.34
165.90
175.32
178.65
178.72
178.65
180.68
185.51
192.30
198.82
202.12
199.28
188.42
169.65
145.25
119.28
96.34
80.21
72.69
73.52
81.03
93.18
108.37
125.66
144.36
163.50
181.38
195.66
203.97
204.67
197.31
182.91
163.52
141.64
119.32
97.92
77.89
59.04
40.86
22.47
2.58
-20.83
-50.04
-86.51
-129.33
-174.20
-213.91
-240.57
-248.64
-237.38
-211.40
-178.97
-148.84
-127.28
-116.82
-116.51
-123.53
-134.71
-147.26
-158.82
-167.32
-171.11
-169.35
-162.28
-150.83
-136.24
-119.54
-101.43
-82.63
-64.27
-47.75
-34.32
-24.34
-17.26
-11.99
-7.71
-4.22
-2.15
-2.21
-4.70
-9.11
-14.54
-20.33
-26.79
-34.54
-43.94
-54.31
-63.93
-70.53
-72.17
-68.11
-59.02
-47.11
-34.71
-23.48
-14.43
-8.21
-5.53
-7.14
-13.27
-23.36
-37.03
-52.48
-67.05
-78.21
-84.76
-87.22
-87.26
-86.14
-84.55
-84.18
-85.61
-88.42
-91.71
-94.94
-98.42
-102.95
-109.11
-117.75
-131.80
-152.32
-177.09
-201.06
-218.36
-224.79
-219.28
-203.00
-163.87
-100.39
-20.47
62.04
134.79
190.88
227.42
241.29
236.44
218.92
194.28
169.60
151.41
142.84
144.32
153.30
163.55
170.63
173.98
175.31
177.78
182.68
188.14
190.32
185.50
171.90
151.21
126.97
102.44
81.15
66.32
60.08
62.30
71.93
83.85
91.70
90.15
77.09
55.38
31.95
14.83
9.67
17.06
32.21
47.88
57.12
55.07
39.73
11.34
-28.35
-76.33
-127.93
-176.81
-214.97
-234.78
-231.54
-205.51
-162.19
-110.45
-59.71
-17.29
12.92
30.52
37.35
35.96
28.67
17.27
3.20
-12.14
-27.30
-41.15
-52.87
-62.05
-68.33
-71.01
-69.14
-61.83
-48.92
-31.55
-12.13
6.51
22.18
33.99
42.36
48.16
51.82
52.89
50.44
43.90
33.57
20.91
7.81
-4.09
-13.98
-21.74
-27.40
-30.72
-31.02
-27.58
-20.13
-9.31
3.49
16.38
27.46
35.26
38.91
38.35
34.18
27.46
19.51
11.56
4.38
-1.68
-6.77
-11.20
-15.34
-19.24
-22.49
-24.18
-23.04
-17.82
-8.09
5.22
19.67
32.15
39.99
42.28
40.14
36.01
32.25
29.92
28.59
26.85
23.43
17.77
9.82
-0.53
-13.69
-29.99
-48.68
-67.38
-82.29
-89.29
-85.61
-70.90
-47.30
-18.66
10.60
36.68
57.09
70.83
78.25
80.65
79.70
76.78
72.51
66.87
59.49
50.18
39.20
27.33
15.50
4.67
-4.30
-10.44
-12.62
-9.67
-0.87
13.62
32.57
53.60
73.81
90.48
101.78
107.24
107.74
105.08
101.29
97.96
96.09
96.11
97.99
101.15
104.00
103.66
96.10
77.50
46.07
3.84
-43.28
-86.97
-119.64
-137.27
-140.70
-134.55
-124.79
-116.01
-110.02
-106.16
-102.76
-98.83
-94.47
-90.63
-88.13
-86.97
-86.29
-84.75
-81.12
-74.66
-65.20
-53.23
-39.77
-26.13
-13.62
-3.29
4.26
8.83
10.56
9.72
6.69
2.09
-3.44
-9.20
-14.69
-19.71
-24.45
-29.35
-34.81
-40.92
-47.12
-52.03
-53.51
-49.22
-37.60
-18.63
5.64
31.41
54.29
70.64
78.67
78.71
72.56
62.67
51.17
39.38
27.89
16.77
5.97
-4.49
-14.40
-23.48
-31.42
-37.93
-42.68
-45.30
-45.29
-42.00
-34.95
-23.96
-9.48
7.37
24.84
40.89
53.59
61.54
64.14
61.62
54.78
44.63
32.05
17.67
1.86
-14.84
-31.67
-47.39
-60.54
-69.75
-73.99
-72.79
-66.23
-54.80
-39.37
-21.12
-1.62
17.27
33.60
45.59
51.96
52.24
46.87
37.11
24.76
11.74
-0.40
-10.80
-19.36
-26.64
-33.35
-39.76
-45.30
-48.57
-47.84
-41.77
-30.25
-14.51
3.22
20.56
35.64
47.58
56.23
61.75
64.14
63.13
58.34
49.76
37.96
24.02
9.32
-4.94
-17.97
-29.32
-38.60
-45.21
-48.25
-46.68
-39.82
-27.90
-12.28
4.74
20.49
32.78
40.40
43.35
42.48
39.01
33.99
28.18
21.85
15.06
7.70
-0.49
-9.64
-19.84
-30.77
-41.57
-50.90
-57.11
-58.84
-55.50
-47.50
-36.22
-23.57
-11.49
-1.38
5.96
10.32
11.90
11.22
8.92
5.76
2.48
-0.38
-2.70
-4.68
-6.80
-9.29
-11.84
-13.61
-13.44
-10.55
-5.03
2.09
9.16
14.55
17.37
17.51
15.58
12.29
8.20
3.50
-1.85
-7.61
-13.44
-18.75
-23.08
-26.08
-27.35
-26.37
-22.43
-14.97
-4.00
9.48
23.70
36.68
46.80
53.42
56.70
57.18
55.30
51.28
45.13
37.16
28.10
18.90
10.24
2.10
-6.29
-15.83
-26.89
-38.63
-49.06
-55.67
-56.45
-50.64
-39.07
-23.77
-7.30
7.96
20.36
29.08
34.10
35.95
35.43
33.43
30.67
27.70
24.72
21.67
18.31
14.43
10.01
5.47
1.68
-0.36
0.15
3.38
8.74
15.08
21.02
25.38
27.42
26.79
23.48
17.76
10.37
2.73
-3.44
-6.60
-6.15
-2.98
0.80
2.57
0.30
-6.65
-17.34
-29.69
-41.21
-49.92
-54.73
-55.64
-53.34
-48.88
-43.29
-37.46
-31.97
-27.02
-22.35
-17.25
-10.70
-1.94
8.97
20.75
30.93
36.53
35.16
26.05
10.50
-8.24
-26.08
-39.38
-45.91
-45.34
-38.73
-27.83
-14.23
1.02
17.09
33.00
46.97
56.86
60.79
58.10
49.97
39.19
29.14
22.64
20.98
23.92
30.05
37.57
44.82
50.44
53.34
52.87
49.02
42.72
35.80
30.36
27.77
27.94
29.10
28.40
23.16
12.13
-3.65
-21.01
-35.59
-43.16
-40.98
-28.74
-8.77
14.44
35.29
48.38
49.86
38.46
15.71
-14.17
-45.47
-72.24
-90.08
-97.26
-94.99
-86.71
-76.42
-67.18
-60.10
-54.59
-49.18
-42.71
-35.08
-26.89
-18.90
-11.23
-3.38
5.22
14.29
22.43
27.55
28.03
23.65
15.93
7.60
1.23
-1.67
-1.34
0.49
1.80
1.17
-1.29
-4.33
-6.22
-6.00
-4.17
-2.63
-3.72
-8.96
-18.25
-29.69
-40.68
-48.93
-53.29
-53.73
-50.49
-43.45
-31.95
-15.62
4.91
27.30
48.02
63.34
70.71
69.57
61.25
48.45
34.06
20.67
10.05
3.15
0.24
0.81
3.50
6.41
7.42
5.01
-1.06
-9.62
-18.27
-24.32
-25.82
-22.15
-14.24
-4.14
5.82
13.72
18.65
20.71
20.77
19.95
19.23
19.09
19.47
19.93
19.86
18.78
16.38
12.48
6.92
-0.23
-8.55
-17.05
-24.19
-28.48
-29.15
-26.59
-22.25
-17.84
-14.46
-12.11
-9.86
-6.54
-1.76
3.73
8.44
10.80
10.13
6.97
2.94
-0.03
-0.44
2.14
6.96
12.42
16.68
18.46
17.40
14.12
9.77
5.55
2.09
-0.66
-3.29
-6.76
-12.02
-19.90
-30.81
-44.31
-58.57
-70.00
-73.97
-66.34
-45.53
-13.85
22.59
55.76
78.71
87.82
83.70
70.21
52.34
34.38
19.22
8.55
3.50
4.86
12.72
26.03
42.36
58.20
69.67
73.63
68.49
54.78
35.09
13.47
-5.87
-19.91
-27.76
-30.49
-30.13
-28.06
-24.26
-17.51
-6.78
7.41
22.46
34.76
41.53
42.12
38.31
33.27
29.76
28.91
30.05
31.60
32.15
31.16
28.90
26.07
23.28
21.02
19.79
20.12
22.47
26.96
33.14
40.08
46.85
53.01
59.06
66.47
77.08
92.22
111.64
132.94
151.96
164.06
165.74
155.91
136.05
109.13
77.91
43.86
7.09
-32.43
-73.69
-113.85
-148.75
-174.33
-188.28
-190.79
-184.34
-172.70
-159.43
-146.90
-135.86
-125.80
-115.72
-105.09
-94.38
-84.85
-77.86
-74.04
-72.83
-72.64
-71.75
-69.15
-64.90
-59.75
-54.44
-49.06
-43.06
-35.67
-26.77
-17.24
-8.65
-2.44
0.89
2.01
2.33
3.23
5.27
7.93
10.10
10.76
9.63
7.39
5.29
4.51
5.49
7.92
10.88
13.42
14.95
15.51
15.53
15.66
16.32
17.49
18.72
19.34
18.68
16.37
12.50
7.61
2.60
-1.63
-4.54
-6.06
-6.58
-6.63
-6.64
-6.72
-6.85
-6.93
-7.17
-7.77
-8.92
-10.31
-11.27
-10.87
-8.55
-4.57
0.01
3.73
5.41
4.63
1.92
-1.54
-4.50
-6.03
-5.90
-4.43
-2.39
-0.68
-0.12
-1.12
-3.57
-6.76
-9.65
-11.37
-11.48
-10.23
-8.34
-6.46
-4.95
-3.65
-2.15
-0.11
2.34
4.71
6.15
6.06
4.20
0.91
-3.04
-6.71
-9.25
-10.14
-9.27
-6.79
-3.15
1.11
5.34
8.84
11.01
11.55
10.50
8.30
5.55
2.85
0.68
-0.64
-0.90
-0.06
1.62
3.34
3.97
2.49
-1.46
-7.28
-13.52
-18.54
-21.27
-21.58
-20.29
-18.54
-17.26
-16.68
-16.48
-15.94
-14.46
-11.74
-7.87
-3.20
1.92
7.16
12.30
17.10
21.27
24.47
26.45
27.24
27.09
26.38
25.34
23.92
21.98
19.58
17.10
15.29
14.97
16.47
19.45
22.91
25.66
26.65
25.42
21.95
16.67
10.32
3.78
-1.93
-5.87
-7.52
-7.05
-5.44
-4.07
-4.14
-6.08
-9.25
-12.44
-14.42
-14.48
-12.68
-9.54
-5.65
-1.33
3.24
7.81
11.79
14.45
15.24
14.13
11.77
9.15
7.15
6.19
6.14
6.52
6.88
6.94
6.61
5.95
4.92
3.53
1.81
-0.10
-1.92
-3.41
-4.52
-5.50
-6.80
-9.05
-12.65
-17.56
-23.15
-28.34
-32.08
-33.73
-33.32
-31.39
-28.55
-25.03
-20.50
-14.35
-6.30
3.10
12.33
19.52
23.35
23.63
21.49
18.75
16.94
16.65
17.34
17.92
17.53
16.01
14.13
12.97
13.37
15.53
19.04
23.28
27.83
32.73
38.21
44.35
50.79
56.71
61.22
63.89
65.01
65.59
66.88
69.90
74.93
81.57
89.06
96.59
103.73
110.35
116.58
122.73
129.38
137.48
148.13
162.04
178.90
196.75
212.38
222.06
222.90
213.85
196.07
172.44
146.49
121.35
99.15
80.84
66.36
55.05
45.75
37.13
27.98
17.47
5.30
-8.32
-22.85
-37.86
-53.28
-69.54
-87.56
-108.56
-133.85
-164.24
-199.35
-237.12
-273.69
-304.09
-323.59
-329.34
-321.35
-302.48
-277.33
-250.49
-225.28
-203.19
-184.23
-168.03
-154.42
-143.59
-135.46
-128.90
-121.41
-109.62
-90.49
-62.68
-27.50
11.09
47.72
77.30
96.61
105.15
104.80
98.69
89.81
80.17
70.64
61.37
52.50
44.44
37.85
33.17
30.25
28.32
26.15
22.67
17.46
10.84
3.77
-2.73
-7.91
-11.64
-14.28
-16.43
-18.54
-20.73
-22.69
-23.91
-23.94
-22.65
-20.27
-17.38
-14.62
-12.57
-11.44
-11.26
-11.81
-12.87
-14.17
-15.66
-17.32
-19.17
-21.21
-23.37
-25.54
-27.49
-29.05
-30.14
-30.69
-30.74
-30.37
-29.71
-28.84
-27.96
-27.18
-26.71
-26.64
-27.13
-28.22
-29.87
-31.99
-34.40
-36.83
-38.99
-40.52
-41.15
-40.67
-38.98
-36.05
-32.04
-27.12
-21.64
-15.96
-10.41
-5.31
-0.83
2.88
5.88
8.29
10.28
12.09
13.88
15.80
17.87
20.04
22.13
23.96
25.25
25.79
25.44
24.17
22.05
19.25
16.00
12.63
9.41
6.58
4.36
2.89
2.18
2.25
2.97
4.22
5.86
7.68
9.48
11.07
12.27
12.89
12.80
11.90
10.15
7.62
4.46
0.89
-2.82
-6.33
-9.37
-11.65
-12.99
-13.32
-12.71
-11.34
-9.44
-7.36
-5.44
-3.93
-3.01
-2.73
-3.02
-3.75
-4.68
-5.63
-6.42
-6.91
-7.04
-6.78
-6.21
-5.46
-4.67
-3.92
-3.33
-2.91
-2.60
-2.36
-2.06
-1.53
-0.65
0.65
2.36
4.43
6.71
9.03
11.17
12.92
14.13
14.75
14.75
14.23
13.40
12.46
11.67
11.20
11.16
11.64
12.54
13.65
14.79
15.67
16.11
15.94
15.13
13.73
11.87
9.74
7.58
5.62
3.97
2.73
1.90
1.37
0.98
0.58
0.02
-0.75
-1.74
-2.82
-3.88
-4.78
-5.42
-5.73
-5.69
-5.37
-4.85
-4.22
-3.67
-3.28
-3.10
-3.11
-3.29
-3.53
-3.72
-3.81
-3.74
-3.55
-3.28
-3.05
-2.93
-3.05
-3.46
-4.15
-5.03
-5.97
-6.88
-7.60
-8.06
-8.18
-7.96
-7.49
-6.81
-6.05
-5.30
-4.60
-3.95
-3.35
-2.76
-2.08
-1.26
-0.26
0.92
2.23
3.57
4.81
5.84
6.57
6.92
6.87
6.46
5.80
5.01
4.23
3.64
3.34
3.38
3.76
4.39
5.21
6.05
6.81
7.44
7.91
8.27
8.60
8.90
9.22
9.55
9.83
9.95
9.73
9.02
7.70
5.67
2.99
-0.22
-3.78
-7.35
-10.62
-13.26
-15.03
-15.80
-15.52
-14.30
-12.36
-9.97
-7.39
-4.92
-2.78
-1.09
0.07
0.70
0.88
0.71
0.32
-0.18
-0.69
-1.12
-1.42
-1.53
-1.40
-1.02
-0.39
0.49
1.56
2.77
4.03
5.23
6.27
7.04
7.48
7.57
7.29
6.72
5.94
5.07
4.21
3.45
2.84
2.38
2.02
1.69
1.33
0.83
0.06
-1.02
-2.45
-4.11
-5.91
-7.67
-9.24
-10.51
-11.40
-11.92
-12.10
-11.99
-11.74
-11.44
-11.19
-11.05
-11.00
-10.98
-10.90
-10.64
-10.14
-9.25
-7.98
-6.32
-4.39
-2.32
-0.29
1.51
2.89
3.72
3.97
3.64
2.82
1.70
0.41
-0.80
-1.70
-2.16
-2.07
-1.40
-0.20
1.41
3.26
5.23
7.21
9.15
10.98
12.75
14.41
15.97
17.48
18.94
20.36
21.69
22.84
23.74
24.32
24.48
24.17
23.46
22.38
21.05
19.60
18.21
17.01
16.18
15.73
15.64
15.82
16.15
16.50
16.75
16.81
16.63
16.22
15.59
14.88
14.18
13.60
13.24
13.17
13.32
13.58
13.83
13.85
13.53
12.72
11.40
9.61
7.48
5.14
2.81
0.62
-1.24
-2.72
-3.80
-4.62
-5.33
-6.07
-6.96
-8.05
-9.32
-10.66
-11.90
-12.89
-13.40
-13.32
-12.64
-11.37
-9.62
-7.58
-5.53
-3.69
-2.23
-1.30
-0.92
-1.00
-1.39
-2.01
-2.69
-3.36
-3.89
-4.24
-4.39
-4.36
-4.25
-4.17
-4.18
-4.31
-4.55
-4.85
-5.14
-5.36
-5.53
-5.60
-5.53
-5.35
-5.09
-4.75
-4.44
-4.32
-4.48
-4.89
-5.49
-6.17
-6.80
-7.31
-7.60
-7.62
-7.30
-6.62
-5.59
-4.21
-2.55
-0.65
1.38
3.48
5.52
7.38
8.91
10.00
10.54
10.46
9.71
8.35
6.48
4.25
1.92
-0.24
-2.02
-3.18
-3.55
-3.11
-1.92
-0.13
1.99
4.17
6.15
7.73
8.76
9.21
9.11
8.64
7.88
7.01
6.20
5.61
5.32
5.41
5.84
6.51
7.26
7.90
8.27
8.26
7.86
7.11
6.10
4.95
3.76
2.66
1.74
1.02
0.56
0.26
0.02
-0.24
-0.59
-1.00
-1.43
-1.79
-2.01
-2.02
-1.83
-1.41
-0.77
-0.01
0.78
1.54
2.17
2.63
2.93
3.08
3.13
3.14
3.18
3.30
3.47
3.60
3.58
3.31
2.66
1.60
0.08
-1.88
-4.17
-6.66
-9.14
-11.39
-13.16
-14.34
-14.85
-14.65
-13.84
-12.44
-10.58
-8.37
-5.92
-3.31
-0.60
2.16
4.98
7.80
10.53
13.15
15.55
17.55
19.03
19.80
19.78
18.94
17.36
15.17
12.56
9.76
7.02
4.54
2.45
0.85
-0.30
-1.07
-1.58
-1.96
-2.35
-2.86
-3.54
-4.39
-5.37
-6.34
-7.20
-7.85
-8.22
-8.30
-8.11
-7.77
-7.37
-7.07
-7.06
-7.50
-8.43
-9.86
-11.71
-13.84
-15.98
-17.93
-19.43
-20.32
-20.42
-19.72
-18.20
-15.98
-13.23
-10.19
-7.10
-4.22
-1.71
0.28
1.72
2.65
3.12
3.25
3.13
2.87
2.50
2.11
1.75
1.42
1.14
0.94
0.85
0.88
1.07
1.43
1.92
2.47
2.96
3.32
3.38
3.10
2.40
1.26
-0.35
-2.44
-4.92
-7.65
-10.41
-13.05
-15.42
-17.44
-19.08
-20.33
-21.15
-21.61
-21.76
-21.59
-21.13
-20.38
-19.30
-17.85
-16.01
-13.75
-11.03
-7.77
-4.00
0.19
4.65
9.19
13.57
17.58
20.98
23.64
25.41
26.31
26.42
25.91
24.99
23.88
22.82
22.00
21.52
21.45
21.73
22.20
22.75
23.22
23.51
23.50
23.09
22.22
20.86
19.12
17.13
15.04
12.95
10.94
9.09
7.39
5.84
4.42
3.11
1.88
0.72
-0.39
-1.43
-2.39
-3.27
-4.05
-4.80
-5.45
-6.01
-6.37
-6.52
-6.41
-6.07
-5.58
-5.02
-4.52
-4.06
-3.59
-2.98
-2.07
-0.78
0.83
2.61
4.40
5.99
7.25
8.15
8.65
8.79
8.64
8.26
7.81
7.48
7.40
7.57
7.91
8.21
8.38
8.40
8.42
8.56
9.00
9.56
9.94
9.67
8.40
6.01
2.67
-1.22
-5.16
-8.75
-11.68
-13.72
-14.74
-14.71
-13.66
-11.81
-9.40
-6.84
-4.51
-2.70
-1.56
-1.08
-1.21
-1.83
-2.91
-4.39
-6.22
-8.31
-10.55
-12.74
-14.62
-16.04
-16.81
-16.75
-15.85
-14.12
-11.69
-8.80
-5.71
-2.66
0.22
2.99
5.72
8.48
11.18
13.61
15.44
16.48
16.70
16.30
15.58
14.71
13.69
12.43
10.88
9.16
7.56
6.38
5.83
5.84
6.04
6.00
5.45
4.29
2.60
0.58
-1.57
-3.77
-5.87
-7.65
-8.84
-9.21
-8.65
-7.27
-5.47
-3.62
-1.98
-0.57
0.68
1.83
2.83
3.50
3.69
3.43
2.94
2.58
2.64
3.18
4.03
4.82
5.19
5.01
4.21
2.94
1.33
-0.39
-1.96
-3.00
-3.20
-2.33
-0.45
2.05
4.62
6.61
7.55
7.34
6.05
3.91
1.15
-2.02
-5.38
-8.77
-11.89
-14.46
-16.31
-17.44
-17.93
-18.01
-17.81
-17.37
-16.58
-15.35
-13.66
-11.54
-9.12
-6.53
-3.86
-1.18
1.39
3.75
5.73
7.24
8.20
8.63
8.61
8.21
7.45
6.36
4.94
3.19
1.18
-0.92
-2.91
-4.55
-5.66
-6.12
-5.91
-5.12
-3.84
-2.17
-0.18
2.03
4.34
6.67
8.87
10.85
12.52
13.85
14.88
15.64
16.23
16.72
17.12
17.41
17.47
17.25
16.66
15.65
14.22
12.43
10.45
8.46
6.65
5.25
4.40
4.15
4.51
5.44
6.83
8.48
10.14
11.49
12.20
12.02
10.84
8.76
5.97
2.79
-0.52
-3.70
-6.57
-8.99
-10.88
-12.17
-12.85
-12.94
-12.56
-11.86
-11.02
-10.12
-9.26
-8.49
-7.86
-7.40
-7.19
-7.29
-7.65
-8.28
-9.11
-10.12
-11.26
-12.52
-13.83
-15.06
-16.06
-16.67
-16.78
-16.34
-15.34
-13.88
-12.10
-10.10
-8.08
-6.28
-4.85
-3.90
-3.52
-3.71
-4.27
-4.98
-5.61
-5.94
-5.79
-5.05
-3.70
-1.78
0.62
3.35
6.20
8.97
11.48
13.53
15.04
15.87
16.02
15.53
14.48
12.98
11.19
9.26
7.34
5.58
4.08
2.89
2.06
1.49
1.10
0.82
0.60
0.37
0.04
-0.52
-1.30
-2.34
-3.59
-4.90
-6.12
-7.12
-7.81
-8.14
-8.11
-7.78
-7.22
-6.55
-5.81
-5.08
-4.39
-3.79
-3.28
-2.89
-2.58
-2.25
-1.82
-1.24
-0.52
0.21
0.80
1.12
1.13
0.80
0.20
-0.58
-1.38
-2.10
-2.58
-2.63
-2.21
-1.32
-0.06
1.43
2.94
4.33
5.56
6.61
7.49
8.23
8.75
8.92
8.58
7.62
6.14
4.29
2.29
0.35
-1.44
-3.03
-4.43
-5.60
-6.44
-6.87
-6.88
-6.55
-6.04
-5.48
-4.99
-4.56
-4.18
-3.78
-3.28
-2.67
-1.93
-1.12
-0.32
0.41
1.05
1.58
2.06
2.52
2.93
3.24
3.43
3.43
3.25
2.93
2.58
2.31
2.27
2.64
3.56
5.04
7.02
9.30
11.55
13.42
14.58
14.83
14.18
12.70
10.63
8.21
5.68
3.13
0.57
-1.98
-4.56
-7.08
-9.34
-11.16
-12.38
-12.95
-12.92
-12.55
-12.04
-11.56
-11.19
-10.99
-10.97
-11.14
-11.59
-12.35
-13.35
-14.45
-15.45
-16.12
-16.33
-16.12
-15.55
-14.83
-14.09
-13.46
-12.89
-12.34
-11.65
-10.66
-9.23
-7.29
-4.87
-2.14
0.56
2.90
4.68
5.90
6.83
7.88
9.37
11.35
13.62
15.76
17.31
17.90
17.31
15.57
12.72
9.12
5.27
1.90
-0.19
-0.44
1.27
4.55
8.63
12.71
16.27
18.99
20.69
21.05
19.66
16.17
10.74
4.23
-1.81
-5.77
-6.59
-4.16
0.64
6.43
11.83
15.96
18.47
19.31
18.65
16.69
13.85
10.89
8.76
8.30
9.93
13.33
17.57
21.45
23.91
24.35
22.57
18.66
12.87
5.64
-2.35
-10.08
-16.43
-20.32
-21.16
-18.97
-14.37
-8.28
-1.75
4.31
9.22
12.62
14.49
15.04
14.76
14.11
13.53
13.45
14.50
17.57
23.51
32.69
44.46
56.90
67.41
73.52
74.04
69.54
62.11
54.35
48.47
45.57
45.67
48.14
52.21
57.24
62.60
67.58
71.38
73.15
71.98
67.01
57.21
41.21
17.70
-14.22
-53.86
-98.20
-141.81
-178.11
-201.53
-209.75
-205.14
-194.25
-185.67
-186.89
-201.32
-227.04
-257.58
-284.34
-299.59
-298.76
-281.23
-249.54
-207.80
-160.06
-109.36
-57.73
-7.00
40.35
80.97
111.43
129.42
135.06
131.28
122.89
114.90
110.74
111.22
114.57
117.83
118.41
115.52
110.38
105.51
103.37
105.24
110.79
118.44
126.26
132.79
137.39
140.18
141.60
142.30
143.13
145.41
150.77
160.66
175.50
193.89
212.41
226.43
231.57
225.18
206.99
178.87
143.86
105.00
64.52
23.76
-16.43
-55.19
-91.66
-125.10
-155.15
-181.92
-205.89
-227.46
-246.61
-262.86
-275.40
-283.35
-286.21
-284.01
-277.35
-267.19
-254.58
-240.28
-224.65
-207.62
-188.96
-168.41
-146.07
-122.41
-98.36
-75.04
-53.49
-34.53
-18.49
-5.23
5.61
14.48
21.49
26.34
28.38
26.96
21.82
13.36
2.78
-8.23
-17.83
-24.33
-26.44
-23.10
-13.80
1.02
19.48
38.29
53.55
62.22
63.42
59.13
53.19
49.71
51.05
57.03
65.27
72.65
76.96
77.58
75.29
71.40
66.93
62.44
58.30
55.09
53.47
53.75
55.39
56.78
55.72
50.37
40.26
26.91
13.74
5.14
4.86
14.50
32.50
54.47
74.57
87.62
90.85
84.61
71.74
55.92
40.14
25.88
13.50
2.85
-5.94
-12.48
-16.55
-18.43
-19.02
-19.30
-19.97
-21.11
-22.04
-21.64
-18.82
-12.82
-3.62
7.77
19.32
28.31
32.30
30.09
22.26
10.85
-1.46
-12.15
-19.40
-22.21
-19.84
-11.82
2.15
21.47
44.16
67.03
86.74
100.94
108.78
110.57
107.28
100.25
90.22
77.39
61.55
42.99
23.11
4.41
-10.02
-17.02
-13.64
0.89
24.19
50.60
72.85
84.75
83.32
69.79
49.42
30.86
22.20
28.17
48.23
77.34
108.23
133.59
147.66
143.10
118.10
78.01
33.87
-4.48
-34.19
-56.71
-73.00
-84.03
-91.86
-94.67
-93.53
-90.38
-86.99
-83.48
-78.62
-71.37
-62.53
-54.46
-49.22
-48.32
-51.44
-56.78
-61.42
-62.10
-56.64
-44.94
-29.01
-11.45
4.88
18.20
27.35
32.41
34.38
34.03
31.32
25.49
16.36
4.31
-9.21
-23.70
-39.02
-55.43
-72.94
-91.02
-108.27
-122.30
-130.89
-132.96
-131.55
-131.08
-135.38
-145.82
-160.80
-177.09
-191.06
-200.07
-203.60
-205.64
-210.95
-222.93
-242.15
-266.54
-292.70
-317.33
-337.89
-337.79
-308.63
-253.22
-185.31
-121.25
-71.12
-36.84
-15.52
-3.05
3.64
3.74
-3.66
-17.83
-35.89
-52.51
-62.54
-64.32
-57.03
-42.12
-23.85
-6.16
8.87
21.22
34.23
51.86
76.08
106.52
140.75
174.51
204.54
230.16
254.00
277.32
304.66
339.77
384.17
436.64
493.70
551.51
607.33
642.20
644.18
610.54
548.54
471.84
394.00
324.15
266.09
219.15
178.86
141.13
101.83
57.82
8.89
-41.48
-87.04
-122.19
-144.33
-155.41
-157.92
-154.38
-146.44
-134.82
-120.05
-103.48
-88.60
-78.76
-76.27
-79.26
-83.53
-84.73
-80.07
-69.32
-54.40
-40.20
-31.21
-30.30
-36.53
-46.77
-57.53
-66.71
-74.25
-82.16
-96.76
-120.49
-155.69
-201.94
-256.53
-315.57
-374.79
-430.08
-462.31
-458.39
-415.55
-343.66
-258.30
-173.37
-97.78
-35.74
11.78
45.90
66.65
75.05
73.36
65.34
55.15
45.97
39.42
36.03
35.66
35.84
33.97
28.54
19.81
9.53
-0.30
-8.18
-13.17
-14.85
-14.33
-13.14
-11.88
-10.02
-6.41
0.75
12.56
29.43
51.02
76.03
102.15
127.69
150.02
168.39
182.46
192.02
196.98
197.30
195.18
189.35
179.24
164.92
147.14
126.73
104.49
81.21
56.27
31.59
8.18
-12.99
-31.31
-46.30
-57.86
-66.23
-71.85
-75.25
-76.79
-77.41
-77.53
-77.42
-77.12
-76.73
-76.35
-76.12
-76.13
-76.19
-76.53
-77.03
-77.44
-77.45
-76.86
-75.57
-73.57
-70.75
-66.93
-62.05
-55.95
-48.27
-38.90
-28.14
-16.74
-5.80
3.74
11.11
15.97
18.63
19.82
20.28
20.36
19.96
18.55
15.99
12.37
8.52
5.95
6.38
10.94
19.70
31.53
44.51
57.21
68.69
79.09
89.41
100.74
113.74
128.52
144.95
160.74
175.15
186.23
190.12
181.98
158.26
119.17
69.64
18.02
-26.93
-59.06
-76.85
-82.92
-81.53
-76.56
-70.34
-64.01
-58.76
-56.62
-60.07
-70.82
-88.08
-107.71
-123.10
-127.35
-116.63
-92.25
-60.14
-29.78
-9.34
-2.33
-6.84
-17.34
-27.98
-35.35
-39.23
-41.38
-43.53
-45.93
-47.37
-46.26
-41.89
-34.81
-26.62
-19.27
-13.94
-10.66
-8.42
-5.95
-2.43
2.02
6.42
9.32
9.56
6.76
1.54
-4.80
-10.83
-15.62
-18.89
-20.94
-22.25
-23.09
-23.22
-21.98
-18.66
-12.97
-5.23
3.68
12.71
21.09
28.47
35.08
41.52
48.17
55.18
62.64
70.77
79.93
90.06
100.22
108.33
111.90
108.72
97.80
79.88
57.13
32.22
7.65
-14.64
-34.14
-49.40
-59.07
-62.50
-60.24
-53.94
-45.77
-37.56
-30.20
-23.52
-16.22
-7.01
4.96
19.86
37.28
56.18
75.24
93.40
110.58
128.46
148.73
171.41
193.57
209.50
212.63
198.41
166.64
119.33
63.66
8.59
-38.56
-74.43
-99.52
-116.14
-126.25
-130.63
-129.44
-122.99
-112.88
-101.75
-92.11
-85.36
-81.35
-78.66
-75.59
-71.03
-64.51
-56.75
-49.12
-42.96
-38.93
-36.73
-35.41
-33.86
-31.39
-27.75
-23.33
-18.94
-15.35
-12.94
-11.57
-10.73
-9.87
-8.63
-6.88
-4.80
-2.74
-1.04
0.13
0.84
1.30
1.73
2.28
2.99
3.83
4.69
5.45
6.07
6.54
6.93
7.26
7.60
7.94
8.32
8.75
9.22
9.74
10.32
10.95
11.64
12.39
13.17
14.00
14.92
15.90
16.95
18.07
19.27
20.53
21.88
23.32
24.87
26.57
28.36
30.25
32.22
34.22
36.10
37.76
39.01
39.65
39.50
38.19
35.54
31.39
25.74
18.57
10.15
0.81
-9.04
-18.41
-27.07
-34.69
-40.99
-45.69
-48.88
-50.51
-50.64
-49.93
-48.07
-45.13
-41.35
-37.03
-32.48
-28.26
-24.62
-21.83
-20.07
-19.30
-19.53
-20.78
-23.02
-25.33
-28.22
-31.42
-34.51
-36.90
-38.68
-38.70
-36.41
-31.62
-24.44
-15.57
-5.45
5.51
16.90
28.55
40.27
51.40
60.98
67.94
70.81
68.81
61.85
50.58
36.30
20.53
4.33
-11.90
-27.20
-42.66
-58.73
-75.21
-91.09
-104.91
-115.48
-122.36
-126.16
-127.98
-129.70
-132.60
-137.59
-145.06
-154.71
-164.79
-171.78
-172.04
-159.98
-133.18
-93.16
-45.53
1.99
42.56
72.80
93.30
107.28
118.44
128.45
137.12
143.22
145.93
145.59
143.43
140.46
136.66
131.12
122.24
108.87
91.13
70.31
48.64
28.59
11.79
-1.38
-11.51
-19.86
-27.51
-34.87
-41.71
-47.08
-49.61
-48.54
-44.05
-37.17
-29.41
-22.12
-16.14
-11.83
-8.82
-5.84
-2.05
2.74
8.16
13.75
19.54
26.51
33.60
41.44
52.02
66.77
85.93
108.39
132.14
154.89
174.59
189.59
191.91
177.11
145.30
101.41
52.61
5.24
-36.94
-72.55
-101.77
-125.30
-143.11
-155.57
-163.56
-168.63
-172.30
-175.74
-179.55
-183.83
-188.07
-190.87
-191.13
-188.45
-183.27
-176.22
-168.20
-159.94
-152.04
-144.80
-137.94
-131.29
-125.03
-119.78
-115.74
-113.19
-112.15
-112.40
-113.41
-114.14
-113.38
-109.75
-105.49
-101.44
-98.15
-95.89
-94.74
-94.63
-95.27
-96.34
-97.62
-99.06
-100.17
-100.72
-100.59
-99.74
-98.18
-95.91
-92.91
-89.23
-84.96
-79.86
-73.90
-67.16
-59.80
-51.94
-43.59
-34.66
-25.05
-14.68
-3.41
8.61
21.02
33.36
45.29
56.71
67.78
78.80
89.96
101.29
112.34
122.34
130.49
136.31
139.93
142.15
144.19
147.30
152.37
159.60
168.59
178.63
189.11
199.82
211.07
223.72
239.03
258.43
283.05
312.92
346.19
378.84
405.22
419.55
417.75
398.83
365.32
322.28
275.67
230.62
190.45
156.56
129.01
107.21
90.35
77.57
67.86
60.07
53.04
45.82
37.92
29.48
21.16
13.81
8.04
3.98
1.25
-0.80
-2.68
-4.61
-6.45
-7.91
-8.78
-9.17
-9.40
-9.96
-11.27
-13.57
-16.89
-21.06
-25.65
-30.10
-33.74
-36.05
-36.70
-35.73
-33.50
-30.55
-27.46
-24.70
-22.57
-21.22
-20.71
-21.03
-22.06
-23.44
-24.61
-24.92
-23.84
-21.22
-17.40
-13.11
-9.23
-6.62
-5.88
-7.34
-11.01
-16.60
-23.45
-30.64
-37.10
-41.90
-44.39
-44.27
-41.59
-36.66
-30.07
-22.76
-16.09
-11.49
-10.16
-12.53
-18.04
-25.22
-32.23
-37.51
-40.23
-40.49
-39.00
-36.77
-34.72
-33.39
-33.01
-33.52
-34.69
-36.21
-37.74
-38.91
-39.36
-38.80
-36.99
-33.93
-29.81
-25.05
-20.14
-15.63
-12.01
-9.62
-8.62
-8.87
-10.07
-11.61
-12.79
-12.89
-11.50
-8.59
-4.64
-0.48
2.92
4.67
4.19
1.39
-3.34
-9.21
-15.14
-19.93
-22.50
-22.12
-18.53
-12.05
-3.59
5.56
13.96
20.34
23.91
24.47
22.45
18.72
14.37
10.52
8.27
8.58
12.04
18.61
27.31
36.22
42.78
44.67
40.58
30.87
17.47
3.21
-9.14
-17.82
-22.39
-23.67
-23.13
-22.32
-22.48
-24.42
-28.53
-34.78
-42.85
-51.93
-60.81
-67.91
-71.66
-70.93
-65.41
-55.86
-44.07
-32.34
-22.76
-16.61
-14.12
-14.57
-16.88
-19.96
-23.00
-25.30
-25.99
-23.95
-18.04
-7.73
6.49
22.93
39.23
53.07
62.92
68.41
70.04
68.72
65.21
59.99
53.37
45.98
38.83
33.09
29.75
28.94
29.72
30.33
28.71
23.40
14.24
2.39
-10.08
-20.83
-28.07
-30.99
-29.85
-25.81
-20.44
-15.17
-11.11
-8.91
-8.66
-9.98
-12.09
-13.99
-14.74
-13.68
-10.09
-3.85
4.52
13.97
23.19
31.20
37.54
42.17
45.23
47.65
49.76
51.32
52.04
52.45
54.59
61.62
76.37
99.78
131.51
168.46
205.84
238.73
263.76
280.07
288.79
292.02
291.80
292.14
296.51
307.02
323.13
341.08
354.70
357.19
343.51
299.31
220.53
113.76
-5.16
-117.82
-210.96
-279.87
-326.37
-354.95
-370.00
-372.88
-364.94
-348.68
-327.84
-306.38
-287.21
-271.38
-258.31
-246.85
-234.41
-219.42
-201.94
-183.41
-165.91
-151.00
-139.10
-129.64
-121.67
-113.36
-103.64
-92.48
-80.73
-69.69
-60.34
-52.92
-47.10
-42.27
-37.43
-31.98
-25.90
-19.59
-13.64
-8.57
-4.48
-1.15
1.80
4.91
8.59
12.97
17.99
23.40
28.79
33.82
38.16
41.40
43.16
43.26
41.64
38.38
33.73
27.87
21.13
13.90
6.62
-0.30
-6.45
-11.47
-15.09
-17.16
-18.02
-17.91
-17.12
-15.79
-14.07
-11.88
-8.98
-5.17
-0.35
4.73
9.46
13.37
16.07
17.38
17.68
17.77
18.58
20.94
24.08
27.28
29.96
31.38
31.14
29.69
28.28
28.12
30.40
33.86
37.22
39.57
39.28
34.83
25.53
11.64
-5.84
-19.59
-27.42
-28.02
-26.32
-25.26
-28.19
-37.76
-54.58
-76.83
-100.12
-122.58
-143.58
-147.48
-127.43
-84.73
-27.02
35.75
88.70
130.92
161.68
180.40
187.05
182.09
166.37
142.37
113.48
82.71
52.41
20.85
-14.88
-57.16
-107.74
-164.40
-220.00
-263.97
-286.13
-279.88
-246.78
-194.63
-134.63
-78.92
-36.65
-12.28
-5.57
-12.69
-27.05
-41.98
-51.40
-51.28
-41.54
-25.28
-6.90
10.43
26.43
43.27
62.98
85.76
109.31
129.60
143.04
147.97
144.61
133.91
116.23
90.95
57.25
15.53
-31.98
-81.79
-130.68
-177.06
-221.22
-263.83
-304.09
-338.44
-361.02
-365.82
-349.25
-311.84
-258.22
-195.29
-129.73
-66.02
-6.26
48.86
98.80
142.39
178.36
206.42
227.97
246.09
264.77
287.85
317.98
355.47
397.43
437.92
469.00
483.20
476.17
448.48
405.46
355.10
305.01
260.13
222.13
190.30
163.28
140.30
121.08
105.28
91.71
78.44
63.57
46.02
25.81
3.78
-19.11
-42.48
-66.68
-92.49
-120.34
-150.04
-180.50
-210.23
-237.96
-263.09
-286.13
-308.78
-333.77
-364.00
-401.16
-444.04
-487.64
-523.84
-543.78
-541.26
-515.27
-470.53
-415.50
-358.96
-307.02
-261.91
-222.89
-188.20
-156.68
-128.08
-102.35
-78.62
-54.90
-28.67
2.11
38.25
79.22
123.26
167.91
210.51
248.39
279.27
301.46
314.28
318.14
314.46
305.07
291.67
275.44
257.08
237.59
218.70
202.68
191.54
185.79
183.87
182.81
179.67
172.99
163.32
152.59
142.41
132.97
122.96
110.77
95.97
80.05
65.79
55.59
50.19
47.99
45.87
40.55
29.97
14.02
-5.36
-24.80
-40.52
-49.28
-49.24
-40.46
-24.88
-5.81
13.01
28.34
38.23
42.35
41.85
38.47
33.60
27.34
18.34
4.35
-16.48
-44.38
-77.57
-112.59
-145.86
-175.07
-199.97
-222.23
-244.63
-269.99
-300.26
-335.43
-372.96
-407.66
-432.65
-441.33
-429.89
-398.82
-352.84
-298.97
-243.76
-191.26
-142.84
-98.35
-57.81
-22.14
7.37
30.46
48.84
65.98
85.92
111.88
145.51
186.46
232.13
277.67
316.46
341.52
347.78
334.30
305.07
267.75
230.54
199.04
174.63
155.11
137.04
118.16
98.47
79.40
62.24
46.74
31.20
13.70
-6.41
-27.63
-46.71
-59.77
-63.86
-57.97
-43.23
-22.37
1.21
24.12
43.31
56.12
60.38
54.83
39.79
17.53
-7.88
-31.47
-48.60
-56.19
-53.29
-41.22
-23.15
-3.42
13.23
22.69
22.50
12.67
-4.27
-23.75
-40.72
-51.21
-53.48
-48.22
-37.86
-25.53
-14.04
-5.45
-1.04
-1.60
-7.41
-18.13
-32.52
-48.30
-62.45
-71.92
-74.49
-69.61
-58.61
-44.57
-31.36
-22.78
-21.33
-27.51
-39.61
-54.28
-67.40
-75.31
-75.65
-67.54
-51.53
-29.14
-2.48
25.68
51.99
72.69
84.33
84.77
74.15
55.09
32.05
9.96
-7.24
-17.64
-21.49
-20.63
-17.61
-14.85
-14.22
-17.07
-24.24
-36.04
-52.04
-70.85
-90.04
-106.59
-117.63
-121.44
-118.05
-109.45
-99.00
-90.27
-86.03
-87.24
-92.96
-100.76
-107.72
-111.29
-110.13
-104.30
-95.07
-84.31
-73.89
-65.17
-58.69
-53.99
-49.78
-44.20
-35.36
-22.03
-4.12
17.07
39.31
60.15
77.67
90.72
98.81
101.66
98.85
90.03
75.48
56.56
35.85
16.53
1.42
-8.11
-12.56
-14.30
-16.70
-23.01
-35.23
-53.10
-73.96
-93.40
-106.84
-111.16
-106.04
-93.93
-79.16
-66.37
-59.08
-59.01
-65.82
-77.54
-91.06
-102.82
-109.72
-109.94
-103.29
-90.97
-74.85
-56.34
-36.03
-13.81
10.37
35.75
60.86
84.29
105.61
125.72
146.31
168.68
192.59
216.36
237.70
255.04
268.21
278.08
285.31
289.28
288.04
279.38
262.46
238.72
211.62
185.21
162.37
143.93
128.87
115.51
102.44
88.96
74.58
58.61
39.96
17.59
-8.67
-37.58
-66.54
-92.09
-110.80
-120.29
-119.75
-110.30
-94.64
-76.61
-60.35
-49.60
-47.04
-53.68
-68.54
-88.53
-108.69
-123.04
-125.80
-112.91
-83.34
-39.66
12.46
65.50
111.97
145.97
164.29
166.94
156.86
139.30
120.72
107.51
104.60
114.26
135.55
164.23
193.81
216.87
226.82
219.27
192.90
149.60
94.19
33.53
-24.79
-73.70
-108.07
-125.72
-127.72
-118.09
-102.80
-88.43
-80.54
-82.37
-93.93
-112.01
-130.98
-144.45
-146.98
-135.64
-110.73
-75.60
-35.74
2.57
33.57
53.07
59.07
51.94
34.13
9.66
-16.68
-40.19
-56.95
-64.34
-61.49
-49.48
-31.33
-11.46
5.55
16.32
19.83
17.62
12.88
8.94
7.97
10.50
15.98
23.80
33.97
47.02
63.13
81.24
98.70
111.87
117.44
113.81
101.83
84.69
67.08
54.01
49.62
56.28
74.03
100.36
130.43
157.78
175.52
177.80
161.33
126.37
77.06
20.56
-34.62
-80.81
-113.14
-130.72
-136.58
-136.48
-137.00
-143.51
-158.72
-181.91
-209.12
-234.25
-250.69
-253.33
-240.25
-213.34
-177.71
-140.02
-106.40
-80.83
-64.56
-56.70
-55.30
-58.39
-64.29
-71.25
-76.81
-77.66
-70.24
-52.23
-23.90
11.07
46.15
74.03
89.20
90.04
79.45
63.52
49.14
41.82
44.34
56.82
77.59
103.91
132.30
158.37
177.09
183.46
174.25
149.41
112.89
71.90
35.18
10.45
2.16
10.43
31.32
58.70
86.24
109.59
126.88
138.28
144.38
144.56
136.41
116.45
82.63
35.88
-18.21
-70.52
-110.56
-129.80
-124.92
-99.06
-60.95
-20.95
11.61
31.24
36.29
28.38
10.91
-11.95
-35.22
-53.45
-60.09
-54.45
-39.15
-21.75
-10.63
-10.70
-22.71
-40.98
-63.74
