1679990606.00
64.000000
-0.00
-0.00
-0.00
-0.00
-0.00
-0.00
-0.00
-0.00
-0.00
-0.00
0.00
0.01
0.01
-0.00
-0.03
-0.05
-0.05
0.00
0.13
0.36
0.66
1.01
1.37
1.72
2.06
2.40
2.79
3.24
3.80
4.42
5.06
5.66
6.20
6.68
7.15
7.68
8.31
9.14
10.09
11.04
11.88
12.56
13.14
13.76
14.65
15.96
17.91
20.32
22.90
25.38
27.58
29.57
31.68
34.32
37.81
42.54
48.15
54.10
59.83
64.97
69.58
74.14
79.34
85.71
93.76
103.00
112.62
121.73
129.77
136.75
143.30
150.75
157.77
166.64
177.95
191.79
206.97
220.57
228.25
225.36
208.53
176.87
132.76
80.05
23.07
-34.94
-92.44
-149.16
-205.23
-260.37
-313.74
-363.87
-409.83
-450.91
-486.50
-515.74
-537.23
-549.22
-549.96
-538.37
-514.21
-478.67
-433.88
-382.45
-327.02
-269.84
-212.63
-156.66
-102.95
-52.37
-5.90
35.58
71.43
101.35
125.50
144.38
158.69
169.15
176.37
180.75
182.57
182.07
179.51
175.23
169.65
163.18
156.15
148.81
141.30
133.69
126.02
118.33
110.69
103.16
95.80
88.68
81.83
75.25
68.95
62.95
57.25
51.86
46.78
42.03
37.59
33.45
29.61
26.07
22.81
19.83
17.11
14.67
12.48
10.54
8.83
7.35
6.07
4.97
4.05
3.27
2.62
2.09
1.65
1.30
1.01
0.79
0.61
0.48
0.37
0.29
0.22
0.18
0.14
0.11
0.09
0.08
0.07
0.06
0.05
0.05
0.05
0.06
0.07
0.08
0.10
0.12
0.15
0.18
0.22
0.26
0.30
0.35
0.39
0.44
0.49
0.56
0.63
0.69
0.74
0.75
0.73
0.69
0.66
0.67
0.73
0.85
0.99
1.14
1.25
1.33
1.40
1.49
1.65
1.89
2.20
2.55
2.87
3.13
3.31
3.45
3.67
4.01
4.56
5.26
6.00
6.62
7.02
7.16
7.18
7.29
7.71
8.55
9.75
11.06
12.11
12.67
12.67
12.34
12.04
12.17
12.86
13.87
14.62
14.40
12.64
9.20
4.41
-1.05
-6.49
-11.52
-16.11
-20.57
-25.37
-30.80
-36.98
-43.89
-51.27
-58.46
-64.12
-66.39
-63.41
-54.29
-39.83
-22.58
-6.10
6.51
13.70
15.90
14.93
12.85
11.00
9.64
8.46
7.13
5.86
5.29
5.97
7.95
10.58
12.86
13.79
12.97
10.77
8.17
6.30
6.03
7.61
10.57
13.95
16.67
17.99
17.71
16.17
14.00
11.83
10.04
8.74
7.86
7.25
6.85
6.68
6.80
7.14
7.51
7.73
7.65
7.19
6.35
5.15
3.74
2.25
0.67
-1.11
-2.78
-4.01
-4.51
-4.28
-3.53
-2.42
-0.95
0.69
2.45
4.69
8.01
12.71
18.49
24.43
29.56
33.19
34.41
32.92
29.50
26.00
24.49
26.41
32.03
40.56
49.94
56.14
54.85
43.37
21.89
-6.95
-39.10
-70.65
-98.06
-113.24
-110.30
-89.91
-58.93
-24.99
7.11
35.11
57.38
73.33
83.35
87.96
88.34
86.51
84.58
83.37
81.91
77.25
67.51
52.57
33.46
12.29
-8.48
-27.05
-43.41
-54.67
-63.30
-71.47
-80.05
-89.23
-98.42
-105.69
-107.45
-99.40
-78.68
-47.07
-10.78
20.58
37.54
35.57
17.54
-7.61
-29.70
-42.44
-46.45
-46.61
-48.31
-53.83
-61.06
-65.33
-62.85
-53.42
-40.67
-30.68
-28.77
-37.27
-54.54
-74.75
-89.69
-91.45
-75.44
-42.24
1.96
47.52
84.47
104.97
105.21
85.84
51.44
9.67
-29.76
-57.34
-66.47
-56.43
-33.59
-9.17
5.72
5.18
-9.00
-29.20
-46.90
-57.29
-60.12
-58.52
-55.39
-51.19
-44.10
-32.25
-16.28
0.01
11.61
15.22
11.05
3.14
-2.84
-2.19
6.95
23.14
42.35
59.84
72.13
77.91
78.50
76.86
76.22
78.83
85.38
95.06
105.94
115.28
119.74
116.01
101.83
77.41
46.20
14.27
-11.81
-27.62
-32.90
-31.44
-28.76
-29.09
-33.27
-39.03
-43.22
-44.10
-42.35
-39.99
-38.58
-38.04
-37.01
-34.30
-29.90
-25.11
-21.43
-19.08
-16.83
-12.90
-6.50
1.26
7.85
10.80
9.32
4.78
0.08
-2.01
-0.26
4.48
9.79
12.94
11.94
6.23
-3.50
-15.62
-28.07
-38.70
-45.32
-45.91
-38.75
-22.83
2.01
33.79
68.77
101.89
127.67
141.52
141.17
127.81
106.15
82.89
64.04
52.52
47.12
43.79
38.45
29.56
18.98
10.33
6.38
7.01
9.48
10.30
7.40
1.06
-7.10
-15.95
-26.04
-39.24
-56.94
-78.41
-100.63
-119.73
-132.97
-139.86
-141.68
-139.87
-134.86
-125.93
-112.45
-95.20
-76.71
-60.17
-47.80
-39.81
-34.66
-30.43
-26.16
-22.31
-20.16
-20.60
-23.31
-26.91
-29.68
-30.42
-28.81
-25.32
-20.81
-16.17
-12.08
-8.73
-5.56
-0.97
7.24
21.10
41.21
65.66
90.14
109.18
118.19
115.31
102.03
82.40
60.99
41.23
24.59
10.93
-0.44
-10.14
-18.91
-28.23
-40.67
-59.03
-84.58
-115.12
-144.75
-165.42
-169.97
-155.17
-122.64
-77.34
-24.46
33.25
95.68
163.18
233.25
298.96
350.14
377.26
375.66
347.47
300.14
242.46
181.05
119.28
59.00
3.21
-42.89
-73.82
-87.45
-87.50
-82.68
-82.30
-91.20
-106.99
-121.58
-125.71
-114.32
-89.03
-56.82
-26.05
-2.35
13.22
23.24
31.31
39.68
48.23
55.15
58.55
57.67
53.27
46.90
39.97
32.89
24.99
15.04
2.11
-13.55
-30.39
-45.99
-58.10
-65.58
-68.93
-70.09
-71.64
-75.60
-82.46
-90.91
-98.47
-102.73
-102.80
-99.90
-97.04
-97.59
-103.50
-114.00
-125.60
-133.23
-132.46
-121.48
-102.10
-79.03
-57.83
-42.44
-33.65
-29.24
-25.72
-20.38
-12.78
-4.62
1.65
4.51
4.42
3.44
3.89
6.82
11.30
14.95
15.33
11.42
4.48
-2.29
-5.04
-1.03
10.07
25.90
42.38
55.30
61.92
61.85
56.74
49.27
41.91
36.04
31.82
28.69
26.02
23.65
21.81
20.83
20.66
20.66
19.75
16.94
11.86
5.14
-1.64
-6.62
-8.40
-6.60
-1.92
4.20
10.19
14.74
17.08
17.10
15.34
12.94
11.21
11.22
13.21
16.46
19.62
21.44
21.56
20.61
19.91
20.58
22.86
25.93
28.40
29.11
27.78
25.06
22.11
20.04
19.39
20.15
21.85
23.83
25.41
26.03
25.36
23.39
20.39
16.81
13.11
9.55
6.20
3.03
0.17
-2.06
-3.34
-3.74
-3.95
-5.01
-7.74
-12.15
-17.26
-21.56
-23.65
-22.73
-18.63
-11.69
-2.40
8.44
19.61
29.45
36.24
38.87
37.31
32.61
26.21
19.20
11.96
4.46
-3.04
-9.54
-13.64
-14.34
-11.79
-7.41
-3.07
-0.05
1.63
2.93
4.98
8.04
11.29
13.30
13.00
10.36
6.43
2.67
0.15
-0.83
-0.69
-0.08
0.51
0.75
0.53
-0.21
-1.37
-2.61
-3.45
-3.50
-2.65
-1.13
0.70
2.50
4.11
5.47
6.41
6.52
5.16
1.85
-3.55
-10.59
-18.38
-25.83
-31.88
-35.74
-37.09
-36.17
-33.81
-31.23
-29.69
-30.11
-32.72
-37.03
-42.13
-47.04
-51.05
-53.89
-55.65
-56.56
-56.70
-55.90
-53.81
-49.90
-43.53
-33.92
-20.40
-2.85
17.87
39.77
60.19
76.59
87.46
92.70
93.36
91.06
87.19
82.58
77.47
71.79
65.50
58.65
51.39
43.82
35.93
27.69
19.25
10.97
3.55
-2.17
-5.59
-6.70
-6.24
-5.39
-5.15
-5.79
-6.76
-7.10
-6.20
-4.21
-2.00
-0.50
-0.14
-0.69
-1.58
-2.44
-3.44
-5.18
-8.24
-12.69
-17.91
-22.76
-26.13
-27.42
-26.97
-25.97
-25.98
-28.14
-32.33
-36.97
-39.55
-37.81
-30.98
-20.28
-8.50
1.25
7.10
9.02
8.65
8.20
9.21
11.89
15.21
17.66
18.12
16.30
12.79
8.60
4.83
2.33
1.53
2.49
4.86
8.10
11.64
15.09
18.29
21.28
23.99
26.10
27.02
26.09
23.03
18.17
12.44
6.93
2.55
-0.33
-1.84
-2.34
-2.19
-1.68
-1.04
-0.55
-0.55
-1.29
-2.85
-5.00
-7.26
-9.08
-10.15
-10.55
-10.83
-11.75
-13.93
-17.55
-22.11
-26.54
-29.48
-29.71
-26.63
-20.49
-12.42
-3.96
3.45
9.01
12.73
15.32
17.63
20.07
22.45
24.05
24.13
22.53
19.81
17.08
15.39
15.23
16.29
17.63
18.25
17.45
15.16
11.83
8.16
4.76
1.89
-0.53
-2.72
-4.69
-6.07
-6.18
-4.48
-0.98
3.46
7.28
8.92
7.63
3.92
-0.61
-4.10
-5.35
-4.40
-2.40
-0.95
-1.30
-3.87
-8.23
-13.31
-17.88
-20.86
-21.64
-20.14
-16.76
-12.18
-7.08
-2.08
2.31
5.64
7.59
8.11
7.65
7.12
7.48
9.24
12.01
14.78
16.50
16.82
16.30
16.10
17.19
19.77
23.33
26.91
29.71
31.34
31.82
31.52
30.94
30.71
31.39
33.32
36.35
39.69
42.03
41.90
38.17
30.45
19.30
6.18
-6.93
-18.01
-25.69
-29.60
-30.49
-29.85
-29.28
-29.89
-32.13
-35.84
-40.48
-45.31
-49.35
-51.44
-50.51
-46.10
-38.84
-30.53
-23.55
-19.83
-20.01
-23.07
-26.96
-29.52
-29.48
-26.82
-22.43
-17.42
-12.53
-7.94
-3.49
0.99
5.46
9.60
12.94
15.01
15.46
14.23
11.60
8.29
5.17
2.94
1.69
0.78
-0.77
-3.51
-6.95
-9.52
-9.39
-5.67
0.78
7.37
11.10
10.09
4.79
-2.23
-7.51
-8.71
-5.74
-0.84
2.84
3.00
-0.52
-5.85
-10.31
-12.07
-11.10
-9.07
-8.04
-9.10
-11.62
-13.59
-12.87
-8.45
-1.04
7.19
13.67
16.51
15.18
10.57
4.39
-1.45
-5.64
-7.62
-7.67
-6.39
-4.25
-1.39
2.25
6.40
10.20
12.20
11.10
6.56
-0.15
-6.52
-9.81
-8.46
-3.11
3.60
8.19
8.07
2.80
-5.81
-14.59
-20.68
-22.77
-21.50
-18.81
-16.75
-16.44
-17.83
-20.14
-22.55
-24.65
-26.29
-27.22
-26.76
-24.05
-18.62
-10.98
-2.61
4.62
9.34
11.39
11.71
11.73
12.43
13.89
15.47
16.41
16.43
15.90
15.52
15.72
16.33
16.80
16.63
15.94
15.41
15.75
17.01
18.30
18.14
15.44
10.41
4.70
0.65
0.03
2.98
8.01
12.97
16.32
17.93
18.86
20.28
22.45
24.47
24.86
22.62
17.82
11.50
4.95
-1.00
-6.12
-10.46
-13.84
-15.86
-16.17
-15.04
-13.55
-13.21
-15.31
-20.14
-26.81
-33.70
-39.33
-43.13
-45.78
-48.85
-53.84
-61.19
-69.93
-77.98
-83.17
-84.49
-82.58
-79.21
-76.06
-73.46
-70.01
-63.24
-50.62
-30.45
-1.96
35.01
79.89
131.00
184.63
234.75
273.86
295.05
294.57
273.39
236.77
191.91
144.97
99.11
54.63
10.90
-31.33
-69.02
-97.75
-114.02
-117.48
-111.36
-100.89
-90.80
-83.18
-77.20
-70.58
-61.72
-51.02
-40.74
-33.48
-30.54
-31.15
-32.87
-32.86
-29.30
-22.14
-12.98
-4.17
2.28
5.54
6.12
5.44
4.94
5.38
6.62
7.85
8.25
7.49
5.96
4.53
4.08
5.06
7.29
10.09
12.68
14.50
15.40
15.54
15.15
14.34
13.14
11.65
10.22
9.38
9.51
10.49
11.53
11.45
9.29
4.84
-1.13
-7.18
-11.83
-14.07
-13.70
-11.21
-7.41
-3.21
0.58
3.29
4.48
4.00
2.17
-0.29
-2.38
-3.21
-2.38
-0.13
2.70
5.01
5.92
5.10
2.90
0.15
-2.15
-3.26
-2.88
-1.12
1.57
4.55
7.13
8.69
8.88
7.83
6.12
4.63
4.18
5.15
7.31
9.92
12.14
13.29
13.13
11.79
9.64
7.10
4.60
2.47
0.88
-0.26
-1.35
-3.01
-5.71
-9.45
-13.55
-16.82
-18.07
-16.69
-13.06
-8.37
-4.15
-1.52
-0.78
-1.37
-2.31
-2.75
-2.35
-1.36
-0.29
0.45
0.77
0.83
0.86
0.93
0.95
0.77
0.36
-0.14
-0.43
-0.23
0.64
2.07
3.72
5.10
5.71
5.27
3.78
1.54
-0.87
-2.85
-3.94
-4.06
-3.51
-2.85
-2.68
-3.33
-4.68
-6.21
-7.17
-6.97
-5.46
-3.14
-0.96
-0.09
-1.31
-4.69
-9.48
-14.32
-17.66
-18.28
-15.72
-10.41
-3.59
3.08
8.05
10.31
9.69
6.76
2.58
-1.72
-5.23
-7.43
-8.18
-7.61
-6.00
-3.71
-1.18
1.05
2.50
2.86
2.18
0.86
-0.54
-1.51
-1.87
-1.85
-1.93
-2.58
-4.03
-6.08
-8.14
-9.37
-8.93
-6.29
-1.48
4.82
11.32
16.45
18.79
17.60
13.16
6.61
-0.42
-6.45
-10.70
-13.26
-14.94
-16.74
-19.29
-22.56
-25.89
-28.38
-29.34
-28.61
-26.59
-23.88
-21.00
-18.10
-15.08
-11.77
-8.20
-4.68
-1.70
0.31
1.24
1.23
0.57
-0.49
-1.85
-3.58
-5.80
-8.59
-11.90
-15.62
-19.51
-23.31
-26.74
-29.56
-31.46
-32.14
-31.31
-28.78
-24.61
-19.06
-12.70
-6.17
-0.08
5.10
9.13
12.01
13.98
15.43
16.84
18.63
20.92
23.44
25.53
26.46
25.80
23.77
21.25
19.38
19.04
20.49
23.34
26.84
30.31
33.36
35.92
37.99
39.56
40.45
40.52
39.69
38.07
35.85
33.24
30.33
27.17
23.79
20.25
16.56
12.62
8.22
3.18
-2.44
-8.28
-13.67
-17.95
-20.65
-21.78
-21.82
-21.53
-21.56
-22.27
-23.63
-25.37
-27.19
-28.89
-30.43
-31.75
-32.86
-33.67
-34.11
-34.09
-33.53
-32.29
-30.31
-27.54
-24.07
-20.10
-15.93
-11.78
-7.89
-4.38
-1.37
0.98
2.58
3.42
3.62
3.40
2.96
2.38
1.62
0.65
-0.41
-1.24
-1.34
-0.34
1.79
4.67
7.52
9.53
10.16
9.48
8.03
6.61
5.82
5.91
6.73
8.04
9.81
12.22
15.49
19.52
23.70
27.07
28.69
28.15
25.71
22.26
18.88
16.39
15.07
14.55
14.01
12.51
9.45
4.82
-0.66
-5.76
-9.27
-10.49
-9.54
-7.27
-4.87
-3.24
-2.73
-2.99
-3.38
-3.40
-2.96
-2.44
-2.39
-3.16
-4.63
-6.20
-7.03
-6.46
-4.32
-1.03
2.61
5.80
8.00
9.06
9.18
8.75
8.14
7.69
7.64
8.15
9.17
10.47
11.59
12.02
11.43
9.74
7.26
4.52
2.15
0.63
0.15
0.50
1.14
1.31
0.29
-2.29
-6.23
-10.84
-15.08
-18.01
-19.12
-18.50
-16.66
-14.36
-12.18
-10.40
-9.05
-8.01
-7.19
-6.55
-5.97
-5.23
-4.03
-2.13
0.42
3.22
5.54
6.68
6.22
4.20
1.14
-2.12
-4.67
-5.82
-5.25
-3.14
-0.04
3.32
6.25
8.36
9.51
9.74
9.02
7.30
4.51
0.84
-3.14
-6.58
-8.67
-9.07
-8.12
-6.78
-6.14
-6.99
-9.45
-13.00
-16.65
-19.39
-20.45
-19.57
-16.98
-13.25
-9.15
-5.43
-2.65
-1.04
-0.48
-0.49
-0.39
0.42
2.28
5.07
8.31
11.34
13.54
14.57
14.39
13.23
11.43
9.39
7.38
5.46
3.51
1.20
-1.71
-5.21
-8.92
-12.13
-14.12
-14.49
-13.33
-11.11
-8.44
-5.77
-3.25
-0.80
1.64
3.98
5.93
7.18
7.51
6.92
5.56
3.65
1.39
-0.97
-3.02
-4.10
-3.47
-0.60
4.45
10.88
17.28
22.15
24.51
24.23
21.96
18.65
14.97
11.00
6.40
0.95
-5.07
-10.82
-15.20
-17.48
-17.69
-16.45
-14.61
-12.78
-11.03
-9.15
-6.97
-4.64
-2.64
-1.47
-1.37
-2.24
-3.68
-5.27
-6.69
-7.68
-8.10
-7.86
-7.03
-5.85
-4.70
-4.02
-4.09
-4.94
-6.33
-7.95
-9.56
-11.24
-13.25
-15.92
-19.31
-23.04
-26.33
-28.29
-28.31
-26.36
-23.11
-19.60
-16.94
-15.78
-16.25
-17.91
-19.96
-21.57
-22.20
-21.92
-21.57
-22.71
-26.97
-35.21
-46.58
-58.21
-65.72
-64.50
-51.10
-24.01
16.28
67.56
125.99
186.12
240.93
282.60
304.38
302.52
277.55
233.87
177.75
115.19
50.75
-12.06
-69.35
-116.00
-146.53
-157.29
-148.80
-126.49
-99.00
-75.01
-59.96
-54.53
-55.28
-56.89
-54.62
-45.88
-30.48
-10.12
12.33
33.62
50.83
62.38
69.07
74.57
84.82
105.72
140.27
186.26
236.17
279.54
306.98
313.76
301.35
275.97
245.57
216.28
190.51
167.29
143.83
117.21
85.37
47.25
3.28
-43.55
-86.65
-116.28
-122.20
-98.31
-46.41
23.17
94.89
154.06
192.20
209.07
210.54
204.09
194.67
183.35
168.88
150.35
128.78
106.68
86.21
67.36
47.85
24.16
-6.47
-44.27
-86.74
-129.57
-168.73
-201.99
-229.69
-254.11
-278.32
-305.53
-337.91
-376.59
-421.74
-472.19
-524.50
-572.52
-607.66
-621.54
-609.83
-572.72
-514.63
-441.59
-358.70
-269.39
-176.85
-85.60
-3.50
58.13
90.64
91.68
66.65
26.28
-18.94
-63.47
-106.66
-151.04
-199.56
-249.07
-291.40
-317.62
-323.18
-311.21
-291.47
-274.27
-248.91
-205.30
-135.34
-40.49
66.90
169.87
254.22
307.38
332.43
334.14
313.19
269.33
202.10
112.37
6.88
-99.21
-187.50
-240.71
-251.16
-225.66
-179.80
-131.23
-92.59
-67.86
-54.12
-46.12
-40.94
-36.82
-35.70
-38.98
-46.11
-54.35
-59.87
-59.86
-54.20
-44.41
-33.09
-24.54
-20.30
-19.16
-18.09
-13.61
-3.56
11.56
29.64
48.02
64.50
79.27
94.64
113.90
140.20
174.60
214.67
256.26
295.12
328.21
354.76
376.23
395.03
413.88
433.81
452.73
468.08
478.08
480.93
474.88
458.46
431.67
398.64
366.67
342.19
330.51
333.10
344.55
354.60
352.81
333.51
299.96
261.00
223.75
193.47
172.63
159.85
152.57
149.40
140.22
119.85
103.96
98.33
96.09
92.04
82.30
65.57
43.28
18.73
-2.80
-17.58
-27.50
-35.84
-45.15
-57.77
-74.57
-94.53
-115.18
-132.58
-144.07
-151.65
-158.97
-169.49
-186.96
-214.39
-253.67
-305.54
-368.09
-437.12
-507.26
-570.77
-618.99
-645.85
-649.77
-633.82
-604.16
-566.79
-525.73
-483.24
-440.09
-396.65
-354.31
-314.83
-279.11
-246.47
-214.25
-178.44
-135.25
-82.23
-19.41
49.49
117.40
175.37
214.70
230.27
222.85
198.79
167.31
136.93
112.87
96.56
89.83
93.31
106.42
127.67
154.43
182.99
209.05
228.56
239.09
240.58
234.98
225.31
215.11
206.83
200.70
194.74
185.88
171.49
150.73
125.13
95.95
65.40
35.41
6.46
-22.49
-53.25
-87.42
-125.82
-165.22
-204.50
-241.65
-272.99
-293.30
-297.38
-282.46
-250.16
-206.70
-161.29
-122.97
-96.30
-80.62
-71.76
-64.96
-57.41
-49.39
-41.72
-35.13
-29.57
-23.47
-15.13
-4.17
7.81
17.94
23.28
22.09
14.40
2.01
-11.72
-23.28
-30.37
-32.75
-31.79
-29.72
-28.51
-28.93
-29.88
-28.18
-19.47
0.15
32.70
75.10
122.15
166.51
200.30
217.33
215.28
196.40
167.16
136.12
112.81
104.96
115.99
144.09
182.55
221.54
250.96
264.24
260.77
247.86
236.92
237.14
250.93
273.05
294.23
306.05
305.66
286.82
251.47
206.92
160.83
117.66
78.11
41.80
8.81
-20.29
-44.38
-66.77
-91.93
-123.57
-162.41
-205.06
-244.41
-273.09
-280.30
-262.24
-222.83
-172.12
-121.06
-75.99
-38.45
-2.28
39.41
86.90
133.14
169.41
188.14
185.80
164.29
129.75
89.88
50.68
15.85
-14.10
-39.74
-61.19
-77.34
-86.70
-88.84
-85.12
-79.57
-75.90
-76.35
-81.18
-89.72
-101.25
-115.42
-132.00
-150.07
-169.45
-188.62
-205.97
-221.12
-235.35
-251.14
-270.89
-296.13
-326.82
-362.39
-397.58
-422.47
-424.86
-394.91
-329.38
-234.06
-122.86
-3.51
107.93
197.31
259.55
299.78
327.24
348.14
363.49
371.42
371.97
365.99
356.63
346.90
337.19
324.84
305.86
278.55
244.16
206.26
167.78
131.38
98.35
68.11
38.78
8.78
-21.78
-51.30
-77.39
-99.41
-117.86
-134.50
-152.06
-173.81
-202.80
-240.96
-288.30
-342.07
-396.79
-444.35
-476.05
-485.55
-471.26
-436.53
-387.45
-329.78
-266.87
-200.18
-131.51
-65.69
-11.22
22.05
27.52
5.78
-34.32
-78.47
-112.04
-125.09
-114.87
-85.55
-45.03
-1.59
38.49
71.65
96.31
112.04
119.03
118.26
111.27
99.93
85.97
70.68
55.13
40.95
30.83
27.96
35.10
52.99
79.73
111.16
141.88
166.37
179.57
177.15
156.10
116.04
60.53
-2.40
-61.99
-108.05
-134.62
-141.68
-134.06
-118.21
-98.76
-76.98
-52.11
-24.20
3.64
25.58
36.00
33.16
21.03
8.04
2.75
9.32
25.28
43.14
54.94
57.00
51.83
46.10
46.09
53.50
64.45
71.94
70.19
57.95
38.78
18.48
1.65
-10.47
-19.50
-27.77
-36.19
-43.64
-48.21
-48.84
-46.37
-43.00
-40.79
-40.12
-39.26
-35.27
-25.48
-8.89
13.43
38.60
62.94
83.12
97.13
104.97
108.31
109.50
110.30
110.81
109.53
104.43
94.53
81.01
66.82
55.07
47.14
41.43
34.46
23.14
7.07
-10.57
-24.74
-31.45
-30.00
-23.38
-16.26
-12.04
-10.99
-10.49
-6.93
1.80
15.11
30.31
44.18
54.53
60.65
62.85
61.66
57.52
51.15
43.91
37.80
34.42
33.86
34.08
31.55
22.98
7.39
-12.98
-33.18
-47.55
-52.57
-48.60
-40.07
-33.67
-35.18
-46.72
-65.52
-84.96
-97.10
-95.84
-79.01
-48.95
-11.39
26.57
58.52
80.32
90.73
91.28
85.28
76.40
67.32
59.02
51.20
43.43
36.42
32.12
32.52
37.55
43.86
45.82
38.40
20.65
-3.00
-24.23
-35.00
-31.53
-16.07
4.68
23.34
35.25
39.93
39.97
38.66
38.11
38.72
39.81
40.64
40.80
39.95
37.58
32.97
25.83
16.79
7.50
0.11
-3.60
-3.00
1.23
7.49
13.96
18.97
21.32
20.24
15.48
7.69
-1.35
-8.92
-12.13
-9.25
-0.50
11.79
24.09
33.00
36.43
34.03
26.95
17.13
6.36
-4.40
-15.20
-26.77
-39.48
-52.45
-63.20
-68.49
-65.91
-55.39
-39.67
-23.21
-10.20
-2.69
-0.04
0.03
-0.28
-0.08
0.11
-0.77
-3.16
-6.29
-8.24
-6.82
-0.43
10.99
25.59
39.83
49.72
52.43
47.75
38.39
28.96
23.69
24.49
30.03
36.73
40.84
40.42
35.93
29.28
22.18
14.79
5.93
-5.70
-20.10
-35.27
-47.76
-54.12
-52.55
-43.75
-30.83
-18.14
-9.79
-8.18
-13.18
-22.16
-30.77
-34.53
-30.67
-19.33
-3.64
11.55
21.75
24.70
21.24
14.62
8.82
6.71
8.86
13.80
18.86
21.76
21.53
18.70
14.84
11.72
10.52
11.25
12.70
12.98
10.44
4.61
-3.38
-11.23
-16.63
-18.48
-17.39
-15.11
-13.16
-11.67
-9.34
-4.51
3.34
12.66
20.38
23.49
20.77
13.54
4.93
-1.70
-4.28
-2.63
1.78
6.78
10.42
11.42
9.35
4.58
-1.93
-8.84
-14.82
-18.86
-20.49
-19.90
-17.81
-15.34
-13.77
-14.21
-17.15
-22.06
-27.22
-30.24
-29.11
-23.28
-14.10
-4.20
3.84
8.69
10.78
11.72
13.16
15.90
19.76
24.01
28.07
31.69
34.64
36.34
35.83
32.35
26.01
18.04
10.35
4.44
0.65
-1.88
-4.50
-8.07
-12.52
-17.15
-21.36
-25.03
-28.31
-30.96
-31.97
-30.01
-24.31
-15.63
-6.26
0.78
3.16
0.23
-6.68
-14.98
-22.01
-25.95
-26.23
-23.33
-18.34
-12.53
-7.01
-2.57
0.52
2.36
3.40
4.10
4.76
5.40
5.75
5.34
3.63
0.19
-4.97
-11.25
-17.43
-22.01
-23.80
-22.44
-18.56
-13.52
-8.70
-5.00
-2.49
-0.63
1.31
3.91
7.47
12.06
17.59
23.76
29.74
34.08
34.96
31.08
22.41
10.67
-1.22
-10.21
-14.42
-13.84
-10.10
-5.45
-1.69
0.45
1.16
0.80
-0.68
-3.88
-9.31
-16.73
-24.68
-30.88
-33.19
-30.67
-24.06
-15.64
-8.22
-4.01
-3.74
-6.37
-9.65
-11.05
-8.90
-3.02
5.17
13.43
19.67
22.81
23.11
21.87
20.84
21.65
25.39
32.55
42.85
55.11
67.14
76.00
78.79
73.64
60.75
42.48
22.72
5.48
-6.53
-12.58
-13.73
-11.91
-8.96
-6.04
-3.72
-2.28
-2.00
-3.15
-5.70
-9.18
-12.76
-15.60
-17.16
-17.37
-16.64
-15.66
-15.14
-15.52
-16.79
-18.34
-19.09
-17.80
-13.74
-7.13
0.64
7.43
11.20
10.90
6.84
0.63
-5.46
-9.17
-8.91
-4.18
4.26
14.53
24.11
30.74
33.28
32.19
29.25
26.49
24.95
23.89
21.28
15.03
4.53
-8.73
-21.60
-30.80
-34.36
-32.45
-26.94
-20.40
-14.96
-11.82
-11.36
-13.64
-18.98
-27.97
-41.22
-58.73
-79.30
-100.39
-118.77
-131.58
-137.56
-137.44
-133.23
-126.76
-118.52
-107.43
-91.99
-71.72
-48.19
-24.51
-3.91
11.85
22.92
30.54
35.59
37.62
35.36
28.01
16.67
4.55
-4.23
-6.81
-3.26
3.20
7.97
7.86
3.39
-0.88
1.63
16.05
42.93
77.29
110.43
133.29
139.98
129.60
105.96
75.60
45.27
19.95
1.88
-9.24
-15.55
-20.17
-26.45
-37.56
-56.23
-84.24
-121.69
-166.18
-212.52
-253.52
-281.93
-292.93
-285.97
-264.84
-235.82
-204.86
-175.34
-147.36
-119.00
-88.34
-55.08
-20.70
12.71
43.95
73.70
104.06
137.30
174.27
213.37
250.68
280.96
299.26
302.47
290.18
264.80
230.88
193.78
158.62
129.34
108.37
96.52
93.12
96.22
102.84
109.41
112.48
109.61
100.10
85.14
67.42
50.25
36.65
28.46
26.08
28.49
33.78
39.71
44.43
46.97
47.37
46.49
45.73
46.53
50.01
56.37
64.33
70.68
70.71
59.53
34.12
-4.93
-52.69
-101.16
-141.60
-167.34
-175.69
-168.16
-149.21
-124.27
-98.13
-73.96
-53.49
-37.48
-26.17
-19.42
-16.58
-16.34
-16.62
-15.11
-9.86
-0.15
13.07
27.45
40.04
48.52
52.05
51.38
48.32
44.77
41.91
40.00
38.59
37.12
35.34
33.41
31.77
30.89
31.12
32.58
35.27
38.94
43.24
47.67
51.82
55.55
58.97
62.48
66.54
71.53
77.73
85.27
94.21
104.36
115.24
126.09
136.08
144.73
152.22
159.41
167.47
177.32
189.18
202.20
214.60
224.12
228.70
227.10
219.22
206.03
189.13
170.11
150.11
129.70
109.10
88.72
69.47
52.46
38.18
25.71
12.25
-6.79
-36.71
-82.02
-143.88
-218.33
-296.16
-364.82
-411.98
-429.09
-413.65
-368.88
-302.80
-224.75
-143.89
-68.34
-5.32
39.11
60.97
58.71
33.91
-10.74
-70.39
-138.66
-207.76
-268.89
-313.76
-336.48
-336.16
-316.68
-286.62
-253.30
-220.17
-185.93
-146.14
-96.42
-34.56
31.96
100.28
158.34
194.77
202.01
179.39
134.59
82.38
41.71
27.94
47.54
93.99
152.98
208.61
250.05
274.65
278.30
262.82
233.15
195.61
154.38
112.70
74.03
42.82
22.82
14.79
17.05
24.75
32.10
34.30
29.83
20.54
10.23
2.39
-3.14
-7.36
-12.34
-19.89
-30.44
-43.10
-55.40
-63.99
-66.66
-63.73
-56.01
-44.89
-31.84
-17.20
-2.49
10.45
23.03
34.33
40.86
39.72
29.21
9.28
-17.10
-48.53
-83.66
-120.57
-157.70
-195.45
-232.98
-268.10
-297.39
-315.13
-319.60
-311.29
-291.56
-246.95
-171.80
-69.88
45.64
145.01
222.28
278.13
314.41
336.55
346.75
344.49
330.24
305.93
274.96
243.19
212.98
185.13
160.29
138.87
119.90
102.92
87.86
74.76
64.78
55.93
45.20
30.24
9.54
-18.28
-53.38
-95.25
-142.98
-194.69
-250.22
-310.25
-375.69
-447.48
-525.75
-607.97
-687.99
-756.56
-803.23
-820.96
-808.30
-769.77
-714.10
-651.08
-588.30
-529.62
-475.64
-425.11
-376.91
-330.57
-285.92
-242.74
-200.64
-159.40
-119.41
-81.44
-46.15
-13.61
17.04
47.17
77.92
109.46
140.84
170.49
197.17
220.83
242.86
265.53
291.05
320.78
355.10
393.18
432.99
471.11
502.80
523.10
528.74
520.21
502.43
483.11
469.13
462.96
461.44
457.65
444.82
420.15
385.83
347.04
308.41
271.12
232.18
186.82
132.10
69.55
5.76
-49.51
-86.85
-100.60
-90.94
-64.41
-31.02
-0.68
19.87
28.66
27.59
20.17
9.08
-5.22
-25.39
-54.91
-95.99
-148.15
-207.31
-266.43
-317.13
-352.02
-367.10
-364.06
-348.46
-327.22
-306.30
-288.79
-275.23
-265.23
-259.01
-251.09
-239.38
-224.34
-208.13
-193.05
-179.38
-165.97
-151.88
-137.37
-123.88
-114.06
-110.80
-112.88
-117.47
-121.01
-120.76
-115.62
-106.04
-93.26
-79.27
-64.94
-49.16
-31.44
-10.53
14.35
43.04
74.31
106.29
136.41
162.45
183.04
197.32
205.20
206.76
202.08
191.20
174.31
151.59
123.67
91.72
57.15
21.75
-12.75
-44.84
-73.31
-97.28
-116.32
-130.29
-139.29
-143.69
-143.89
-140.28
-133.29
-123.49
-111.52
-98.12
-84.05
-70.01
-56.60
-44.16
-32.64
-21.79
-11.29
-0.95
9.19
18.84
27.54
34.82
40.47
44.95
49.02
53.45
58.73
64.79
71.13
76.94
81.50
84.46
87.09
91.07
97.90
108.33
122.01
137.76
154.17
170.05
184.79
200.59
219.85
244.42
275.03
311.50
353.33
399.71
448.92
497.45
543.41
583.78
615.35
635.64
643.69
640.49
628.48
610.49
588.85
569.66
558.04
557.22
567.35
585.49
607.05
627.68
644.50
628.95
563.46
443.29
280.67
100.14
-72.65
-220.18
-335.39
-419.04
-475.94
-507.76
-516.58
-505.72
-480.30
-447.04
-412.47
-381.42
-356.54
-338.70
-324.00
-309.48
-293.88
-277.67
-262.65
-250.59
-242.01
-236.18
-231.86
-226.02
-216.79
-204.46
-190.84
-178.49
-169.63
-165.66
-167.17
-174.94
-189.69
-208.81
-232.32
-261.44
-298.18
-344.31
-400.08
-462.75
-526.03
-580.61
-616.99
-629.36
-617.19
-585.62
-543.15
-498.30
-456.64
-419.88
-386.87
-355.64
-325.51
-296.84
-270.33
-245.97
-222.75
-198.98
-173.31
-145.46
-116.24
-87.62
-61.36
-38.47
-18.82
-1.36
15.46
32.94
51.75
71.68
91.72
110.66
127.53
141.99
154.42
165.84
177.54
190.68
205.94
223.23
241.84
260.74
278.84
295.41
310.30
324.02
337.68
352.94
371.71
395.59
424.84
457.56
489.27
513.86
525.53
521.15
501.79
472.49
440.14
410.48
385.66
363.64
339.68
309.08
269.64
222.98
174.02
129.33
94.90
74.29
67.39
70.34
76.49
78.23
69.16
46.20
10.90
-30.62
-69.05
-94.71
-100.72
-85.59
-53.92
-14.93
20.78
44.83
53.18
46.44
28.05
1.85
-29.44
-64.38
-102.08
-141.41
-180.89
-219.08
-254.84
-287.18
-314.82
-336.15
-349.54
-354.03
-349.49
-336.06
-313.37
-280.30
-236.17
-182.62
-125.01
-71.88
-32.01
-10.50
-6.07
-11.40
-16.67
-14.47
-3.22
12.42
24.24
24.84
11.10
-14.59
-45.41
-72.72
-88.87
-89.37
-73.99
-46.58
-13.63
18.07
43.77
61.81
73.12
79.12
79.66
72.22
53.02
19.19
-29.46
-89.99
-157.19
-224.96
-287.28
-338.62
-374.43
-391.89
-390.85
-374.40
-347.98
-317.62
-287.93
-261.08
-237.11
-215.26
-195.07
-176.63
-160.12
-144.87
-128.89
-109.38
-83.72
-50.42
-9.78
36.02
83.59
129.45
171.19
208.00
240.30
268.47
291.77
308.00
314.63
310.79
298.32
281.36
264.20
248.78
233.88
216.93
197.17
177.84
165.49
166.16
180.94
204.06
225.11
234.31
227.47
207.46
181.26
155.05
130.44
104.83
75.33
43.43
16.90
7.00
22.46
63.59
120.46
176.09
213.44
222.25
202.28
161.78
112.27
62.91
17.14
-27.04
-74.08
-126.73
-183.46
-238.47
-284.07
-314.06
-326.59
-324.64
-314.52
-302.94
-294.17
-288.52
-283.16
-274.30
-259.59
-239.45
-216.50
-193.91
-173.62
-155.43
-137.54
-117.93
-95.61
-71.05
-45.83
-21.33
2.47
27.32
56.00
90.71
131.38
174.74
214.85
244.89
259.63
257.38
240.63
215.16
188.00
165.17
150.05
143.02
142.11
144.29
146.74
147.54
145.72
140.93
133.01
121.91
107.80
91.49
74.45
58.55
45.37
35.63
28.83
23.54
18.05
11.14
2.56
-6.92
-15.87
-22.81
-26.85
-28.04
-27.28
-25.94
-25.17
-25.59
-27.16
-29.60
-32.80
-36.98
-42.42
-48.93
-55.55
-60.73
-63.14
-62.48
-59.72
-56.54
-54.36
-53.41
-52.72
-50.79
-46.65
-40.48
-33.39
-26.65
-20.73
-15.03
-8.40
-0.13
9.32
18.45
25.56
29.79
31.52
32.05
32.67
33.94
35.54
36.80
37.38
37.61
38.11
39.12
40.07
39.62
36.47
30.14
21.51
12.55
5.67
2.89
5.11
11.89
21.59
31.84
40.09
44.37
43.66
38.06
28.64
17.05
5.07
-5.62
-13.68
-18.20
-18.86
-16.21
-11.61
-7.05
-4.55
-5.52
-10.09
-17.06
-24.16
-28.87
-29.27
-24.79
-16.34
-6.08
3.38
9.76
11.79
9.50
3.94
-3.38
-11.24
-19.16
-27.44
-36.64
-46.86
-57.16
-65.57
-69.65
-67.53
-58.73
-44.57
-27.76
-11.41
2.01
11.47
17.47
21.68
26.06
32.13
40.35
49.81
58.52
63.88
63.62
56.63
43.56
26.75
9.56
-4.79
-14.38
-19.30
-21.45
-23.56
-27.83
-34.81
-43.24
-50.74
-55.08
-55.43
-52.60
-48.49
-44.88
-42.45
-40.45
-37.39
-32.06
-24.40
-15.61
-7.43
-1.13
3.13
6.23
9.34
13.07
17.05
20.15
21.32
20.41
18.41
17.00
17.66
20.78
25.34
29.38
30.96
29.13
24.35
18.23
12.70
9.09
7.68
7.78
8.29
8.29
7.37
5.54
2.94
-0.37
-4.43
-9.04
-13.65
-17.33
-19.20
-18.91
-16.87
-14.08
-11.66
-10.26
-9.73
-9.33
-8.14
-5.68
-2.06
2.02
5.72
8.44
10.10
11.09
11.98
13.29
15.23
17.67
20.11
21.87
22.22
20.69
17.26
12.51
7.51
3.48
1.40
1.68
3.97
7.35
10.59
12.51
12.34
9.98
5.95
1.27
-2.87
-5.52
-6.28
-5.30
-3.20
-0.76
1.28
2.43
2.36
0.96
-1.66
-5.06
-8.48
-11.06
-12.09
-11.33
-9.15
-6.39
-4.00
-2.62
-2.40
-3.02
-3.98
-4.87
-5.57
-6.07
-6.26
-5.83
-4.35
-1.60
2.09
5.87
8.64
9.64
8.86
7.09
5.50
5.09
6.24
8.59
11.40
13.99
16.07
17.83
19.69
21.88
24.26
26.28
27.38
27.31
26.37
25.29
24.78
25.14
25.97
26.43
25.73
23.61
20.50
17.19
14.32
11.91
9.34
5.67
0.25
-6.93
-15.14
-23.11
-29.47
-33.15
-33.73
-31.64
-28.17
-25.26
-24.87
-28.40
-36.06
-46.89
-59.00
-70.27
-78.85
-83.53
-83.83
-79.91
-72.41
-62.25
-50.47
-38.16
-26.33
-15.95
-7.81
-2.35
0.60
1.97
3.18
5.52
9.42
14.09
17.81
18.92
16.98
13.24
10.22
10.45
15.28
24.15
34.90
44.65
50.74
51.33
45.57
33.61
16.58
-3.29
-22.95
-39.02
-48.82
-51.16
-46.67
-37.40
-25.89
-14.29
-3.80
5.13
12.47
18.14
21.89
23.34
22.36
19.31
15.11
11.10
8.63
8.58
10.88
14.47
17.66
18.72
16.67
11.60
4.58
-2.89
-9.41
-14.02
-16.16
-15.57
-12.33
-6.97
-0.73
4.67
7.52
6.89
3.18
-1.93
-6.20
-7.81
-6.30
-2.72
0.92
2.59
1.26
-2.78
-8.13
-13.07
-16.40
-17.83
-17.88
-17.45
-17.32
-17.87
-19.10
-20.79
-22.52
-23.63
-23.12
-19.88
-13.26
-3.69
7.09
16.46
21.95
22.26
17.70
9.82
0.63
-8.10
-15.12
-19.54
-20.86
-19.17
-15.36
-11.16
-8.55
-8.81
-11.88
-16.38
-20.43
-22.70
-22.81
-21.10
-17.94
-13.29
-7.03
0.46
7.88
13.44
15.88
15.32
13.37
12.24
13.44
16.95
21.27
24.36
24.72
21.92
16.50
9.39
1.52
-6.17
-12.71
-17.13
-18.97
-18.65
-17.42
-16.90
-18.23
-21.64
-26.52
-31.92
-37.06
-41.38
-44.41
-45.45
-43.86
-39.50
-33.24
-26.88
-22.44
-21.13
-22.79
-26.00
-28.84
-29.78
-28.21
-24.41
-19.32
-14.05
-9.71
-7.05
-6.35
-7.19
-8.49
-8.75
-6.55
-1.18
7.02
16.69
25.93
33.06
37.29
38.93
39.21
39.57
41.05
43.86
47.43
50.78
52.99
53.64
52.99
51.77
50.88
50.83
51.31
51.10
48.47
41.89
30.95
16.84
2.16
-10.09
-17.64
-19.82
-17.63
-13.22
-8.94
-6.68
-7.55
-11.85
-18.96
-27.30
-34.41
-37.63
-35.17
-27.32
-16.83
-8.09
-5.22
-10.00
-20.84
-33.43
-42.82
-45.53
-40.85
-30.38
-16.72
-2.08
12.31
25.84
37.80
46.98
52.05
52.24
47.94
40.69
32.57
25.44
20.45
17.84
17.14
17.41
17.36
15.70
11.47
4.49
-4.50
-13.98
-22.14
-27.53
-29.48
-28.27
-24.82
-20.32
-15.81
-11.92
-8.86
-6.41
-4.21
-1.93
0.60
3.22
5.62
7.43
8.51
8.94
9.02
9.09
9.40
10.08
11.20
12.88
15.31
18.57
22.38
25.90
27.81
26.68
21.65
12.85
1.64
-9.88
-19.57
-26.09
-29.32
-30.20
-30.06
-29.92
-30.01
-29.87
-28.82
-26.48
-23.02
-19.03
-15.09
-11.52
-8.15
-4.51
-0.11
5.26
11.34
17.57
23.15
27.29
29.39
29.17
26.77
22.78
18.13
13.85
10.78
9.45
9.87
11.67
14.22
16.85
18.97
20.12
20.03
18.64
16.14
13.00
9.84
7.27
5.57
4.63
3.98
3.08
1.65
-0.13
-1.65
-2.32
-1.97
-0.99
-0.02
0.63
1.26
2.77
6.08
11.64
19.21
28.24
38.17
48.49
58.39
66.31
70.02
67.47
57.89
42.49
24.13
6.08
-9.39
-21.68
-31.45
-39.47
-45.73
-49.34
-49.31
-45.48
-39.02
-32.07
-26.68
-23.94
-23.60
-24.43
-24.98
-24.26
-22.10
-19.02
-15.90
-13.48
-12.13
-11.84
-12.28
-13.04
-13.69
-13.96
-13.66
-12.75
-11.28
-9.40
-7.45
-5.88
-5.17
-5.61
-7.11
-9.11
-10.73
-11.05
-9.43
-5.76
-0.42
5.93
12.55
18.87
24.53
29.37
33.42
36.85
39.89
42.64
44.84
45.70
44.02
38.66
29.18
16.33
2.05
-11.13
-20.93
-26.16
-27.02
-24.74
-20.93
-16.86
-13.20
-10.13
-7.72
-6.11
-5.49
-5.78
-6.50
-6.74
-5.54
-2.41
2.34
7.55
11.56
12.77
10.21
3.85
-5.31
-15.62
-25.24
-32.62
-36.85
-37.77
-35.81
-31.72
-26.37
-20.60
-15.11
-10.51
-7.17
-5.21
-4.43
-4.30
-4.11
-3.18
-1.06
2.23
6.24
10.22
13.28
14.68
13.92
10.84
5.59
-1.34
-9.15
-16.79
-23.15
-27.30
-28.78
-27.75
-24.95
-21.41
-18.07
-15.56
-14.08
-13.49
-13.45
-13.55
-13.33
-12.29
-10.04
-6.47
-1.83
3.22
7.84
11.26
13.04
13.22
12.29
10.91
9.75
9.23
9.51
10.46
11.83
13.30
14.56
15.37
15.55
14.97
13.61
11.55
8.98
6.20
3.52
1.21
-0.56
-1.71
-2.29
-2.43
-2.33
-2.25
-2.43
-2.96
-3.71
-4.32
-4.32
-3.36
-1.34
1.47
4.54
7.26
9.13
9.93
9.67
8.62
7.13
5.59
4.35
3.58
3.31
3.39
3.53
3.44
2.97
2.12
1.07
0.07
-0.68
-1.11
-1.28
-1.29
-1.25
-1.24
-1.28
-1.38
-1.58
-1.91
-2.44
-3.26
-4.42
-5.91
-7.56
-9.07
-10.01
-10.02
-8.95
-6.95
-4.41
-1.84
0.36
1.96
2.99
3.60
3.98
4.21
4.29
4.12
3.67
2.97
2.17
1.51
1.17
1.18
1.38
1.50
1.30
0.75
0.01
-0.62
-0.89
-0.81
-0.54
-0.36
-0.42
-0.69
-1.03
-1.30
-1.52
-1.88
-2.56
-3.63
-4.88
-5.89
-6.24
-5.71
-4.37
-2.53
-0.65
0.89
1.85
2.28
2.37
2.41
2.53
2.71
2.69
2.20
1.16
-0.23
-1.50
-2.16
-1.98
-1.16
-0.21
0.31
0.08
-0.83
-2.04
-3.14
-3.87
-4.21
-4.27
-4.20
-4.10
-4.02
-4.07
-4.43
-5.34
-6.88
-8.92
-10.95
-12.35
-12.52
-11.19
-8.54
-5.14
-1.78
0.86
2.45
3.01
2.88
2.47
2.12
1.98
2.06
2.30
2.61
2.97
3.39
3.82
4.24
4.57
4.73
4.68
4.44
4.04
3.53
2.90
2.14
1.23
0.18
-0.94
-2.01
-2.96
-3.74
-4.39
-5.05
-5.84
-6.90
-8.20
-9.55
-10.61
-11.04
-10.64
-9.41
-7.62
-5.69
-4.00
-2.79
-2.04
-1.58
-1.12
-0.43
0.56
1.75
2.88
3.71
4.09
4.09
3.96
4.02
4.47
5.29
6.23
6.92
7.06
6.59
5.66
4.60
3.72
3.19
3.01
3.00
2.96
2.69
2.08
1.10
-0.21
-1.75
-3.38
-4.94
-6.28
-7.34
-8.09
-8.68
-9.31
-10.23
-11.61
-13.39
-15.26
-16.77
-17.36
-16.71
-14.77
-11.88
-8.64
-5.65
-3.34
-1.84
-1.03
-0.67
-0.52
-0.46
-0.43
-0.42
-0.38
-0.19
0.26
1.02
2.03
3.08
3.93
4.43
4.61
4.66
4.82
5.26
6.01
6.89
7.62
7.99
7.89
7.34
6.51
5.58
4.73
4.06
3.63
3.36
3.15
2.88
2.55
2.23
2.00
1.91
1.85
1.65
1.10
0.16
-1.06
-2.30
-3.34
-4.11
-4.73
-5.47
-6.61
-8.29
-10.48
-12.89
-15.06
-16.50
-16.85
-15.99
-14.13
-11.72
-9.27
-7.21
-5.64
-4.43
-3.26
-1.86
-0.10
1.85
3.66
4.99
5.61
5.60
5.22
4.88
4.87
5.30
6.02
6.79
7.41
7.81
8.08
8.36
8.72
9.10
9.39
9.45
9.26
8.95
8.66
8.55
8.62
8.80
8.97
8.97
8.70
8.10
7.18
6.03
4.79
3.66
2.75
2.07
1.47
0.73
-0.33
-1.77
-3.46
-5.17
-6.70
-7.97
-9.02
-9.97
-10.94
-12.03
-13.30
-14.75
-16.31
-17.77
-18.80
-19.01
-18.16
-16.26
-13.61
-10.77
-8.24
-6.30
-4.89
-3.68
-2.31
-0.58
1.42
3.41
5.05
6.21
6.94
7.47
8.06
8.78
9.59
10.35
10.96
11.45
11.88
12.28
12.59
12.65
12.33
11.65
10.77
9.99
9.52
9.45
9.71
10.12
10.57
10.96
11.22
11.26
10.94
10.15
8.92
7.47
6.05
4.89
4.03
3.29
2.42
1.20
-0.39
-2.24
-4.12
-5.85
-7.33
-8.54
-9.53
-10.39
-11.22
-12.16
-13.38
-14.96
-16.83
-18.75
-20.31
-21.06
-20.70
-19.15
-16.68
-13.75
-10.91
-8.55
-6.81
-5.53
-4.38
-3.04
-1.41
0.40
2.09
3.42
4.32
4.92
5.50
6.29
7.36
8.61
9.86
10.96
11.85
12.60
13.29
13.97
14.60
15.04
15.21
15.06
14.63
14.07
13.52
13.05
12.65
12.27
11.81
11.27
10.67
10.06
9.47
8.88
8.24
7.58
6.91
6.23
5.56
4.81
3.93
2.92
1.84
0.76
-0.23
-1.17
-2.13
-3.19
-4.33
-5.42
-6.32
-7.00
-7.56
-8.29
-9.50
-11.35
-13.79
-16.50
-18.96
-20.67
-21.24
-20.52
-18.62
-15.87
-12.70
-9.57
-6.79
-4.51
-2.70
-1.19
0.25
1.78
3.40
5.02
6.47
7.62
8.41
8.88
9.10
9.17
9.16
9.14
9.23
9.49
9.97
10.61
11.26
11.71
11.80
11.53
11.03
10.52
10.20
10.15
10.31
10.52
10.66
10.64
10.51
10.32
10.15
9.98
9.71
9.24
8.52
7.56
6.48
5.35
4.23
3.07
1.81
0.44
-1.00
-2.37
-3.58
-4.62
-5.62
-6.74
-8.18
-10.05
-12.37
-15.09
-18.06
-21.05
-23.67
-25.44
-25.94
-24.98
-22.70
-19.57
-16.20
-13.11
-10.57
-8.54
-6.77
-5.04
-3.25
-1.51
-0.03
1.03
1.69
2.15
2.68
3.50
4.60
5.81
6.88
7.70
8.33
8.97
9.85
11.02
12.30
13.36
13.87
13.69
12.87
11.61
10.17
8.72
7.36
6.11
4.99
4.01
3.15
2.40
1.71
1.06
0.42
-0.16
-0.64
-1.00
-1.28
-1.53
-1.82
-2.16
-2.60
-3.19
-4.07
-5.40
-7.26
-9.54
-11.90
-13.81
-14.76
-14.45
-12.92
-10.53
-7.78
-5.11
-2.82
-0.98
0.44
1.52
2.28
2.77
3.04
3.21
3.39
3.67
4.09
4.64
5.27
5.97
6.72
7.46
8.12
8.59
8.82
8.80
8.67
8.55
8.54
8.64
8.72
8.64
8.32
7.78
7.15
6.54
6.05
5.60
5.05
4.25
3.08
1.57
-0.15
-1.85
-3.36
-4.57
-5.50
-6.31
-7.20
-8.38
-9.98
-12.00
-14.26
-16.42
-18.07
-18.85
-18.55
-17.22
-15.13
-12.70
-10.31
-8.21
-6.49
-5.08
-3.84
-2.68
-1.56
-0.50
0.51
1.53
2.64
3.92
5.32
6.73
7.94
8.79
9.19
9.26
9.18
9.21
9.46
9.93
10.45
10.81
10.81
10.36
9.47
8.22
6.80
5.42
4.25
3.40
2.84
2.41
1.88
0.99
-0.37
-2.17
-4.18
-6.12
-7.72
-8.82
-9.54
-10.20
-11.26
-13.12
-15.87
-19.18
-22.39
-24.65
-25.34
-24.25
-21.62
-18.07
-14.26
-10.72
-7.71
-5.24
-3.21
-1.43
0.23
1.87
3.52
5.18
6.78
8.24
9.51
10.55
11.33
11.89
12.23
12.41
12.50
12.59
12.80
13.17
13.64
14.08
14.30
14.16
13.58
12.62
11.44
10.20
9.10
8.20
7.48
6.81
6.04
5.06
3.82
2.44
1.05
-0.22
-1.32
-2.33
-3.41
-4.77
-6.55
-8.83
-11.53
-14.46
-17.30
-19.69
-21.27
-21.73
-20.97
-19.03
-16.17
-12.75
-9.20
-5.89
-3.08
-0.81
1.04
2.72
4.47
6.40
8.42
10.31
11.87
13.00
13.81
14.53
15.31
16.18
17.01
17.59
17.77
17.57
17.12
16.60
16.12
15.70
15.27
14.73
14.04
13.21
12.26
11.23
10.14
9.02
7.90
6.82
5.81
4.88
3.99
3.06
1.97
0.66
-0.88
-2.63
-4.45
-6.27
-7.98
-9.57
-11.11
-12.71
-14.53
-16.65
-19.06
-21.53
-23.63
-24.87
-24.86
-23.47
-20.94
-17.76
-14.47
-11.47
-8.88
-6.61
-4.53
-2.55
-0.75
0.76
1.90
2.73
3.39
4.05
4.81
5.61
6.38
7.04
7.60
8.16
8.85
9.70
10.67
11.61
12.33
12.73
12.80
12.65
12.42
12.25
12.17
12.14
12.06
11.82
11.36
10.64
9.71
8.66
7.56
6.45
5.33
4.15
2.85
1.41
-0.15
-1.77
-3.41
-5.02
-6.58
-8.13
-9.74
-11.53
-13.58
-15.85
-18.14
-20.12
-21.39
-21.64
-20.77
-18.88
-16.24
-13.22
-10.14
-7.24
-4.70
-2.54
-0.72
0.85
2.26
3.50
4.53
5.27
5.75
6.07
6.43
7.02
7.85
8.84
9.78
10.45
10.77
10.75
10.49
10.12
9.70
9.28
8.88
8.52
8.18
7.88
7.59
7.26
6.85
6.33
5.70
5.01
4.29
3.63
3.05
2.52
1.99
1.36
0.54
-0.52
-1.78
-3.14
-4.50
-5.79
-7.01
-8.24
-9.62
-11.33
-13.38
-15.63
-17.77
-19.36
-20.00
-19.45
-17.72
-15.06
-11.87
-8.57
-5.52
-2.90
-0.80
0.84
2.09
3.04
3.79
4.42
5.04
5.73
6.53
7.43
8.40
9.34
10.24
11.08
11.86
12.55
13.08
13.35
13.29
12.88
12.23
11.43
10.57
9.68
8.77
7.87
7.06
6.41
5.97
5.68
5.40
4.94
4.16
3.00
1.54
-0.06
-1.61
-2.94
-4.04
-4.98
-5.88
-6.87
-8.06
-9.48
-11.13
-12.97
-14.88
-16.62
-17.89
-18.34
-17.73
-16.02
-13.43
-10.36
-7.25
-4.43
-2.09
-0.21
1.29
2.51
3.52
4.34
5.03
5.61
6.16
6.71
7.27
7.82
8.28
8.60
8.71
8.63
8.36
8.00
7.64
7.37
7.23
7.15
6.94
6.43
5.51
4.20
2.72
1.38
0.40
-0.18
-0.50
-0.84
-1.38
-2.20
-3.19
-4.16
-4.98
-5.66
-6.30
-7.04
-7.94
-8.96
-10.08
-11.32
-12.76
-14.50
-16.46
-18.37
-19.75
-20.16
-19.37
-17.48
-14.86
-12.03
-9.38
-7.15
-5.31
-3.75
-2.36
-1.06
0.16
1.28
2.27
3.14
3.93
4.68
5.45
6.27
7.12
7.90
8.51
8.87
9.03
9.14
9.33
9.71
10.18
10.59
10.70
10.42
9.78
8.95
8.13
7.44
6.86
6.28
5.57
4.66
3.53
2.24
0.84
-0.60
-2.01
-3.32
-4.54
-5.66
-6.78
-8.00
-9.41
-11.02
-12.81
-14.66
-16.42
-17.93
-18.95
-19.27
-18.68
-17.13
-14.73
-11.76
-8.63
-5.67
-3.08
-0.88
1.05
2.81
4.41
5.77
6.73
7.25
7.39
7.38
7.51
7.95
8.73
9.66
10.47
10.94
11.01
10.80
10.52
10.37
10.43
10.62
10.77
10.70
10.30
9.57
8.58
7.49
6.43
5.50
4.72
4.05
3.38
2.58
1.57
0.31
-1.20
-2.87
-4.55
-6.09
-7.34
-8.22
-8.83
-9.35
-10.07
-11.22
-12.89
-14.96
-17.13
-18.96
-20.02
-19.99
-18.72
-16.28
-12.98
-9.28
-5.66
-2.53
-0.08
1.73
3.08
4.21
5.26
6.25
7.11
7.84
8.46
9.07
9.75
10.48
11.17
11.65
11.83
11.70
11.38
11.03
10.77
10.70
10.83
11.10
11.43
11.67
11.67
11.29
10.52
9.48
8.37
7.42
6.75
6.34
6.02
5.58
4.85
3.78
2.45
0.97
-0.54
-2.02
-3.42
-4.70
-5.86
-6.87
-7.76
-8.64
-9.70
-11.05
-12.76
-14.67
-16.45
-17.70
-18.08
-17.42
-15.80
-13.55
-11.05
-8.68
-6.66
-5.05
-3.76
-2.69
-1.76
-0.96
-0.34
0.07
0.32
0.47
0.68
1.04
1.58
2.25
2.99
3.74
4.50
5.32
6.18
7.03
7.80
8.38
8.72
8.86
8.84
8.74
8.57
8.33
8.00
7.57
7.05
6.45
5.77
4.98
4.11
3.26
2.53
2.00
1.62
1.22
0.63
-0.26
-1.43
-2.71
-3.95
-5.10
-6.23
-7.44
-8.79
-10.14
-11.26
-11.83
-11.66
-10.68
-9.04
-6.97
-4.75
-2.65
-0.88
0.44
1.30
1.72
1.83
1.71
1.45
1.13
0.83
0.63
0.64
0.88
1.32
1.87
2.40
2.86
3.28
3.78
4.41
5.15
5.86
6.32
6.36
5.97
5.30
4.63
4.19
4.05
4.13
4.19
4.00
3.44
2.51
1.36
0.14
-1.00
-1.97
-2.78
-3.52
-4.32
-5.34
-6.65
-8.23
-9.89
-11.33
-12.17
-12.11
-11.00
-8.94
-6.16
-3.05
0.06
2.90
5.31
7.27
8.75
9.79
10.41
10.68
10.66
10.48
10.27
10.13
10.10
10.11
10.00
9.58
8.71
7.33
5.50
3.40
1.29
-0.56
-1.99
-2.94
-3.53
-3.98
-4.50
-5.22
-6.14
-7.16
-8.19
-9.17
-10.13
-11.08
-12.08
-13.08
-14.04
-14.90
-15.69
-16.44
-17.19
-18.00
-18.90
-19.93
-21.04
-22.07
-22.69
-22.55
-21.39
-19.24
-16.42
-13.39
-10.56
-8.11
-5.95
-3.90
-1.86
0.10
1.80
3.04
3.77
4.10
4.26
4.47
4.88
5.54
6.45
7.57
8.80
10.00
11.04
11.79
12.20
12.33
12.22
11.94
11.47
10.77
9.81
8.69
7.57
6.70
6.21
6.08
6.12
6.09
5.76
5.08
4.17
3.20
2.37
1.73
1.24
0.80
0.33
-0.21
-0.82
-1.54
-2.41
-3.56
-5.03
-6.81
-8.70
-10.43
-11.68
-12.22
-11.95
-10.95
-9.42
-7.55
-5.54
-3.51
-1.56
0.25
1.83
3.06
3.89
4.36
4.63
4.88
5.29
5.92
6.68
7.43
8.03
8.42
8.66
8.81
8.94
9.05
9.05
8.89
8.56
8.10
7.58
7.06
6.51
5.90
5.19
4.43
3.70
3.12
2.74
2.52
2.33
2.01
1.50
0.81
0.00
-0.82
-1.61
-2.39
-3.16
-3.90
-4.61
-5.34
-6.24
-7.45
-9.01
-10.68
-12.00
-12.43
-11.58
-9.43
-6.38
-3.04
0.00
2.47
4.40
6.04
7.64
9.27
10.81
12.06
12.90
13.44
13.91
14.62
15.75
17.31
19.12
21.00
22.85
24.74
26.87
29.49
32.74
36.58
40.72
44.73
48.19
50.89
52.91
54.70
56.89
59.99
64.14
68.92
73.50
76.97
78.85
79.38
79.48
80.35
82.80
86.78
91.24
94.44
94.47
89.70
79.02
61.99
38.94
11.10
-19.49
-50.47
-79.96
-107.23
-132.96
-158.60
-185.15
-211.87
-235.72
-251.90
-255.30
-242.41
-212.71
-169.16
-117.45
-64.68
-17.30
20.39
46.98
63.70
73.29
78.88
82.86
86.68
90.94
96.00
102.15
109.58
118.12
127.20
136.08
144.07
150.99
156.80
161.87
166.67
171.50
176.25
180.28
182.50
181.15
174.53
160.55
138.57
109.97
77.99
46.84
20.19
0.49
-12.72
-21.43
-30.19
-42.31
-58.60
-77.35
-95.10
-108.48
-114.78
-115.24
-113.01
-115.29
-127.38
-150.73
-182.86
-218.37
-251.54
-277.32
-296.90
-314.49
-340.17
-381.99
-443.76
-524.87
-620.05
-720.80
-815.23
-895.64
-929.38
-894.32
-784.11
-615.15
-420.63
-232.23
-81.57
38.66
141.73
243.50
338.80
412.98
457.55
469.88
453.60
418.08
379.15
347.82
329.15
316.66
300.21
271.29
224.92
163.52
96.00
35.25
-11.29
-41.06
-58.70
-70.43
-76.84
-79.90
-81.10
-81.68
-76.19
-61.14
-36.43
-7.51
19.60
41.35
57.39
71.66
92.18
127.23
179.95
248.62
327.58
410.42
491.20
563.40
608.42
609.40
558.64
464.02
349.25
243.30
166.69
123.26
101.20
81.92
52.65
11.45
-35.19
-78.40
-113.11
-138.79
-158.89
-173.31
-177.00
-161.84
-123.27
-66.58
-6.47
38.80
55.74
41.17
3.13
-44.21
-87.80
-115.53
-123.39
-115.39
-99.12
-81.01
-64.24
-49.16
-35.47
-23.01
-12.15
-3.76
1.65
4.42
5.75
6.90
8.93
12.20
16.54
21.45
26.05
29.65
32.11
33.78
35.12
36.54
37.99
38.92
38.23
34.59
26.81
14.40
-2.30
-22.11
-43.27
-63.92
-80.90
-93.83
-103.36
-110.66
-116.83
-122.65
-128.64
-135.26
-142.59
-149.76
-154.53
-153.01
-141.26
-117.36
-83.04
-43.66
-6.40
22.69
40.92
49.12
50.62
48.74
45.34
40.74
34.93
28.72
23.83
22.10
23.90
27.87
31.27
31.67
27.92
21.00
13.38
7.73
5.96
8.64
15.50
25.59
37.47
48.68
56.07
56.30
47.24
29.56
6.95
-15.36
-33.35
-46.12
-56.00
-66.22
-77.93
-88.51
-92.87
-86.75
-69.34
-46.21
-25.69
-14.89
-16.35
-27.42
-42.39
-55.58
-64.14
-68.35
-70.21
-71.14
-70.74
-67.16
-58.69
-44.32
-24.91
-2.56
20.33
42.15
62.64
82.38
101.90
120.86
137.74
150.31
156.54
155.73
148.92
138.68
128.01
118.98
111.88
105.36
97.41
86.44
72.34
56.63
41.67
29.70
21.99
18.61
18.62
19.98
19.63
13.73
-1.38
-27.87
-64.71
-107.75
-150.71
-187.24
-213.21
-228.12
-234.72
-237.12
-238.19
-237.38
-231.28
-215.24
-185.89
-143.15
-90.61
-34.06
20.84
70.41
113.71
150.25
178.12
193.10
189.86
164.91
119.67
61.74
0.94
-49.73
-80.27
-87.25
-74.19
-49.09
-20.06
7.77
33.04
56.46
78.73
98.36
112.36
118.40
116.73
110.71
105.25
104.56
110.27
121.38
134.65
146.21
153.10
154.27
150.99
146.60
145.76
153.11
171.82
201.92
239.98
280.04
315.49
341.21
354.97
357.61
351.76
339.94
322.56
297.65
261.86
212.71
150.35
78.01
0.93
-75.45
-147.46
-213.55
-273.35
-326.50
-371.66
-407.03
-430.48
-440.04
-434.58
-415.08
-386.19
-355.69
-332.09
-320.33
-319.28
-320.88
-313.26
-286.22
-237.02
-172.41
-104.87
-46.42
-2.48
27.83
48.97
64.52
75.27
78.93
72.70
56.30
32.98
9.41
-9.02
-19.96
-24.77
-26.47
-24.35
-17.59
-5.28
4.65
9.11
7.36
2.57
-4.39
-13.87
-28.18
-49.82
-79.28
-114.16
-148.33
-175.48
-190.94
-193.10
-176.49
-141.00
-91.17
-34.53
20.82
69.87
110.13
141.25
163.19
176.03
177.80
166.26
139.71
97.72
42.33
-22.98
-93.12
-161.98
-216.85
-248.01
-251.45
-230.71
-195.70
-157.91
-126.17
-103.88
-89.59
-79.43
-71.49
-66.79
-66.28
-70.28
-77.30
-84.61
-89.30
-89.86
-86.47
-81.56
-77.96
-77.22
-79.02
-81.13
-81.70
-78.69
-71.13
-59.29
-44.98
-30.33
-16.77
-4.75
6.30
17.55
30.23
45.00
61.77
79.65
97.50
114.47
130.09
144.32
157.51
170.38
183.88
199.13
217.01
237.71
260.28
282.24
300.04
309.87
308.84
295.79
271.56
238.70
200.87
162.16
126.44
96.86
75.44
62.72
57.58
57.53
59.37
60.17
58.09
52.81
45.39
37.65
31.36
27.59
26.47
27.37
29.48
32.15
34.94
37.37
38.48
36.88
31.18
20.78
6.50
-9.54
-24.67
-36.89
-45.48
-51.15
-55.21
-58.73
-61.95
-64.39
-65.46
-64.95
-63.24
-60.98
-58.77
-56.83
-55.14
-53.58
-52.15
-50.85
-49.58
-47.92
-45.31
-41.24
-35.64
-28.95
-22.10
-16.19
-12.21
-10.75
-11.84
-14.99
-19.26
-23.48
-26.53
-27.73
-27.03
-25.11
-23.11
-22.18
-22.94
-25.07
-27.38
-28.37
-26.95
-23.19
-18.53
-15.44
-16.47
-23.15
-35.02
-49.25
-61.17
-65.24
-56.44
-31.46
10.26
65.72
128.26
188.50
236.34
263.61
266.42
246.19
208.82
162.52
115.18
72.39
36.90
9.09
-11.95
-27.65
-39.63
-49.51
-58.73
-68.03
-77.12
-84.71
-89.09
-89.06
-84.35
-75.93
-65.55
-55.13
-46.18
-39.40
-34.81
-31.91
-30.09
-28.86
-27.99
-27.37
-26.94
-26.55
-25.88
-24.59
-22.49
-19.58
-16.18
-12.76
-9.77
-7.53
-6.01
-4.99
-4.14
-3.16
-1.86
-0.16
1.91
4.28
6.85
9.52
12.17
14.71
17.05
19.11
20.80
21.99
22.62
22.77
22.67
22.63
22.87
23.44
24.18
24.83
25.18
25.23
25.10
25.05
25.21
25.63
26.21
26.78
27.18
27.25
26.90
26.05
24.71
23.01
21.17
19.45
17.97
16.64
15.18
13.21
10.48
6.96
2.86
-1.47
-5.72
-9.70
-13.33
-16.49
-18.95
-20.40
-20.55
-19.26
-16.74
-13.53
-10.32
-7.73
-6.15
-5.59
-5.81
-6.45
-7.16
-7.78
-8.26
-8.66
-8.99
-9.20
-9.19
-8.87
-8.20
-7.33
-6.46
-5.85
-5.61
-5.75
-6.09
-6.41
-6.53
-6.38
-6.01
-5.54
-5.02
-4.54
-4.11
-3.83
-3.82
-4.20
-5.01
-6.10
-7.23
-8.11
-8.57
-8.59
-8.36
-8.19
-8.37
-9.06
-10.25
-11.73
-13.12
-14.01
-14.01
-12.90
-10.66
-7.51
-3.86
-0.22
2.97
5.40
6.95
7.71
7.83
7.54
7.05
6.57
6.25
6.25
6.64
7.44
8.51
9.65
10.56
11.02
10.90
10.27
9.31
8.25
7.26
6.39
5.57
4.69
3.72
2.70
1.78
1.13
0.78
0.67
0.62
0.40
-0.13
-0.94
-1.89
-2.77
-3.41
-3.80
-4.07
-4.45
-5.18
-6.38
-7.97
-9.74
-11.32
-12.38
-12.57
-11.68
-9.68
-6.74
-3.23
0.38
3.61
6.16
7.94
9.08
9.81
10.29
10.58
10.66
10.48
10.00
9.28
8.39
7.39
6.36
5.38
4.52
3.86
3.44
3.19
3.02
2.83
2.57
2.24
1.84
1.38
0.87
0.31
-0.23
-0.64
-0.86
-0.88
-0.82
-0.87
-1.21
-1.95
-3.08
-4.45
-5.88
-7.25
-8.46
-9.49
-10.34
-11.03
-11.58
-12.08
-12.69
-13.55
-14.75
-16.15
-17.35
-17.80
-17.01
-14.78
-11.37
-7.37
-3.54
-0.45
1.66
2.87
3.47
3.75
3.88
3.89
3.79
3.60
3.41
3.30
3.35
3.58
4.01
4.59
5.27
5.94
6.48
6.74
6.68
6.34
5.86
5.35
4.87
4.35
3.71
2.89
1.93
0.97
0.16
-0.39
-0.69
-0.85
-1.01
-1.26
-1.69
-2.29
-3.05
-3.91
-4.80
-5.62
-6.31
-6.85
-7.28
-7.70
-8.28
-9.12
-10.29
-11.70
-13.12
-14.22
-14.65
-14.13
-12.55
-10.02
-6.88
-3.57
-0.53
1.95
3.78
5.08
6.05
6.87
7.59
8.14
8.45
8.48
8.34
8.23
8.34
8.74
9.36
10.04
10.58
10.89
10.95
10.81
10.54
10.17
9.71
9.17
8.56
7.89
7.17
6.40
5.55
4.63
3.67
2.73
1.92
1.32
0.95
0.79
0.73
0.63
0.32
-0.31
-1.28
-2.46
-3.69
-4.77
-5.59
-6.21
-6.75
-7.43
-8.46
-9.91
-11.72
-13.62
-15.20
-16.01
-15.72
-14.24
-11.79
-8.82
-5.87
-3.33
-1.38
0.06
1.14
2.03
2.75
3.27
3.55
3.57
3.45
3.36
3.46
3.81
4.41
5.17
5.91
6.47
6.73
6.63
6.21
5.60
4.94
4.32
3.77
3.25
2.74
2.24
1.79
1.45
1.23
1.10
0.97
0.77
0.45
0.04
-0.41
-0.87
-1.36
-1.91
-2.57
-3.35
-4.23
-5.13
-5.94
-6.63
-7.25
-7.92
-8.77
-9.82
-10.94
-11.86
-12.24
-11.85
-10.58
-8.57
-6.08
-3.45
-0.99
1.06
2.54
3.40
3.70
3.54
3.06
2.42
1.78
1.28
1.06
1.24
1.86
2.84
3.99
5.06
5.81
6.15
6.11
5.83
5.47
5.07
4.58
3.90
2.93
1.68
0.27
-1.09
-2.20
-2.94
-3.32
-3.44
-3.52
-3.77
-4.34
-5.29
-6.52
-7.86
-9.12
-10.15
-10.94
-11.58
-12.25
-13.12
-14.22
-15.46
-16.53
-17.11
-16.84
-15.57
-13.30
-10.27
-6.89
-3.59
-0.76
1.35
2.65
3.19
3.13
2.70
2.14
1.67
1.44
1.55
2.00
2.75
3.68
4.66
5.52
6.13
6.40
6.37
6.11
5.77
5.46
5.19
4.94
4.65
4.30
3.93
3.60
3.34
3.11
2.81
2.29
1.48
0.43
-0.68
-1.67
-2.38
-2.81
-3.07
-3.34
-3.81
-4.58
-5.67
-6.99
-8.39
-9.64
-10.48
-10.67
-10.03
-8.53
-6.32
-3.68
-0.99
1.40
3.29
4.62
5.48
6.01
6.33
6.51
6.54
6.37
6.00
5.50
4.99
4.61
4.47
4.56
4.76
4.94
5.02
5.01
4.98
5.00
5.07
5.08
4.88
4.37
3.54
2.55
1.57
0.76
0.12
-0.45
-1.11
-1.96
-2.97
-3.98
-4.82
-5.37
-5.66
-5.86
-6.16
-6.69
-7.44
-8.32
-9.19
-9.96
-10.58
-11.02
-11.18
-10.90
-10.01
-8.43
-6.29
-3.88
-1.60
0.22
1.43
2.12
2.48
2.75
3.05
3.43
3.88
4.32
4.74
5.12
5.45
5.73
5.95
6.12
6.27
6.40
6.47
6.39
6.06
5.39
4.37
3.10
1.70
0.30
-1.03
-2.34
-3.75
-5.40
-7.31
-9.38
-11.39
-13.08
-14.32
-15.16
-15.82
-16.57
-17.61
-19.01
-20.66
-22.38
-23.96
-25.22
-25.98
-25.96
-24.81
-22.13
-17.56
-10.76
-1.48
10.55
25.46
43.02
62.40
81.86
98.92
110.76
115.04
110.49
97.31
77.03
52.00
24.83
-2.17
-27.17
-48.87
-66.44
-79.43
-87.77
-91.76
-92.02
-89.43
-85.06
-79.98
-75.14
-71.19
-68.36
-66.36
-64.54
-62.02
-57.97
-51.83
-43.30
-32.31
-18.82
-2.73
16.11
37.81
62.19
88.67
116.22
143.22
167.56
186.60
197.54
197.95
186.44
163.17
130.01
90.16
47.45
5.66
-31.91
-62.70
-84.91
-97.65
-101.08
-96.53
-86.25
-72.93
-59.01
-46.16
-35.19
-26.31
-19.43
-14.46
-11.32
-9.84
-9.68
-10.38
-11.46
-12.58
-13.57
-14.34
-14.84
-14.96
-14.59
-13.70
-12.43
-11.01
-9.71
-8.67
-7.89
-7.28
-6.70
-6.04
-5.26
-4.36
-3.38
-2.34
-1.28
-0.26
0.72
1.64
2.52
3.39
4.24
5.06
5.81
6.44
6.92
7.21
7.29
7.11
6.69
6.09
5.44
4.88
4.58
4.63
5.05
5.72
6.42
6.85
6.77
6.09
4.96
3.74
2.86
2.66
3.26
4.50
6.11
7.75
9.22
10.45
11.48
12.29
12.84
12.97
12.64
11.89
10.94
10.10
9.65
9.68
10.12
10.76
11.41
11.95
12.35
12.66
12.87
12.94
12.80
12.40
11.74
10.83
9.67
8.29
6.65
4.78
2.76
0.74
-1.11
-2.69
-4.00
-5.17
-6.35
-7.71
-9.24
-10.84
-12.31
-13.51
-14.42
-15.10
-15.72
-16.41
-17.21
-18.11
-19.08
-20.14
-21.31
-22.56
-23.78
-24.69
-24.99
-24.40
-22.81
-20.29
-17.12
-13.60
-10.02
-6.59
-3.48
-0.84
1.22
2.58
3.26
3.40
3.26
3.20
3.50
4.39
5.90
7.97
10.40
12.95
15.33
17.29
18.62
19.23
19.14
18.51
17.53
16.44
15.46
14.71
14.20
13.88
13.63
13.29
12.70
11.71
10.19
8.06
5.35
2.20
-1.18
-4.50
-7.52
-10.00
-11.83
-13.00
-13.59
-13.82
-13.95
-14.24
-14.86
-15.80
-16.87
-17.75
-18.10
-17.67
-16.33
-14.19
-11.48
-8.52
-5.64
-3.07
-0.92
0.86
2.43
3.98
5.60
7.29
8.93
10.36
11.48
12.27
12.80
13.13
13.32
13.35
13.16
12.71
12.01
11.09
10.06
8.98
7.91
6.87
5.87
4.94
4.15
3.53
3.11
2.83
2.57
2.19
1.57
0.70
-0.36
-1.46
-2.44
-3.21
-3.74
-4.11
-4.44
-4.84
-5.39
-6.12
-7.03
-8.08
-9.19
-10.23
-11.10
-11.74
-12.19
-12.57
-13.07
-13.74
-14.49
-15.07
-15.08
-14.25
-12.49
-10.02
-7.22
-4.55
-2.30
-0.58
0.66
1.54
2.13
2.48
2.62
2.63
2.61
2.63
2.71
2.76
2.72
2.55
2.33
2.18
2.18
2.31
2.49
2.56
2.45
2.19
1.87
1.60
1.44
1.37
1.30
1.17
0.96
0.72
0.53
0.44
0.40
0.34
0.19
-0.10
-0.45
-0.76
-0.95
-1.00
-0.97
-0.99
-1.16
-1.55
-2.16
-2.92
-3.75
-4.57
-5.32
-5.99
-6.61
-7.21
-7.83
-8.51
-9.28
-10.08
-10.77
-11.13
-10.90
-9.91
-8.13
-5.80
-3.32
-1.18
0.26
0.88
0.85
0.50
0.20
0.19
0.50
1.01
1.50
1.83
1.97
1.99
2.04
2.16
2.35
2.53
2.65
2.72
2.80
3.01
3.43
4.01
4.63
5.09
5.22
5.00
4.50
3.93
3.49
3.25
3.21
3.21
3.07
2.70
2.13
1.50
0.94
0.56
0.35
0.27
0.26
0.30
0.38
0.46
0.45
0.21
-0.31
-1.10
-2.07
-3.09
-4.10
-5.09
-6.12
-7.21
-8.37
-9.53
-10.58
-11.41
-11.89
-11.85
-11.15
-9.76
-7.78
-5.52
-3.38
-1.76
-0.84
-0.55
-0.56
-0.51
-0.13
0.64
1.64
2.61
3.30
3.57
3.46
3.08
2.64
2.31
2.20
2.34
2.67
3.09
3.47
3.72
3.75
3.53
3.09
2.51
1.90
1.36
0.99
0.81
0.78
0.81
0.79
0.61
0.23
-0.31
-0.95
-1.56
-2.06
-2.44
-2.75
-3.09
-3.50
-3.99
-4.50
-4.95
-5.26
-5.46
-5.59
-5.73
-5.97
-6.34
-6.91
-7.68
-8.60
-9.47
-9.99
-9.88
-8.98
-7.38
-5.36
-3.32
-1.56
-0.19
0.84
1.65
2.32
2.82
3.06
2.96
2.55
1.98
1.44
1.10
1.05
1.31
1.81
2.46
3.15
3.77
4.20
4.41
4.40
4.24
4.01
3.76
3.49
3.15
2.74
2.28
1.85
1.55
1.42
1.45
1.58
1.72
1.82
1.82
1.68
1.38
0.89
0.24
-0.49
-1.21
-1.85
-2.44
-3.04
-3.74
-4.58
-5.57
-6.65
-7.76
-8.79
-9.54
-9.82
-9.40
-8.21
-6.36
-4.15
-2.00
-0.27
0.87
1.48
1.75
1.90
2.08
2.26
2.37
2.30
2.04
1.70
1.44
1.41
1.69
2.22
2.91
3.60
4.17
4.57
4.75
4.72
4.48
4.06
3.54
3.01
2.58
2.28
2.08
1.88
1.58
1.17
0.69
0.22
-0.18
-0.48
-0.71
-0.96
-1.25
-1.62
-2.09
-2.67
-3.44
-4.40
-5.56
-6.82
-8.03
-9.10
-10.02
-10.83
-11.58
-12.18
-12.41
-11.98
-10.73
-8.75
-6.38
-4.08
-2.25
-1.02
-0.27
0.28
0.84
1.47
2.07
2.48
2.63
2.58
2.51
2.57
2.81
3.20
3.64
4.08
4.51
4.92
5.27
5.47
5.41
5.05
4.51
4.02
3.80
3.93
4.28
4.60
4.62
4.22
3.52
2.73
2.07
1.62
1.30
0.96
0.44
-0.28
-1.14
-2.01
-2.81
-3.56
-4.31
-5.13
-6.05
-7.05
-8.09
-9.14
-10.15
-11.03
-11.64
-11.80
-11.35
-10.23
-8.54
-6.49
-4.42
-2.60
-1.23
-0.32
0.25
0.67
1.07
1.53
2.03
2.53
3.00
3.43
3.85
4.26
4.69
5.08
5.42
5.72
5.97
6.21
6.43
6.61
6.69
6.67
6.53
6.29
5.99
5.64
5.24
4.81
4.38
3.96
3.57
3.17
2.71
2.10
1.26
0.17
-1.13
-2.49
-3.72
-4.64
-5.13
-5.23
-5.11
-5.01
-5.16
-5.67
-6.54
-7.62
-8.72
-9.60
-10.02
-9.83
-8.92
-7.33
-5.24
-2.95
-0.82
0.87
1.97
2.47
2.56
2.46
2.43
2.67
3.25
4.12
5.12
6.08
6.89
7.52
8.06
8.59
9.20
9.86
10.52
11.06
11.40
11.49
11.33
10.98
10.53
10.05
9.59
9.12
8.59
7.95
7.25
6.59
6.14
6.01
6.17
6.44
6.63
6.59
6.33
6.00
5.85
6.05
6.68
7.67
8.89
10.18
11.44
12.61
13.63
14.48
15.15
15.79
16.68
18.21
20.76
24.44
29.09
34.30
39.57
44.55
49.13
53.36
57.35
61.19
64.95
68.80
73.02
77.81
82.98
87.72
90.60
89.94
84.35
73.19
56.88
36.71
14.43
-8.19
-29.83
-49.77
-67.91
-84.60
-100.55
-116.55
-133.17
-150.36
-166.90
-180.40
-187.78
-186.30
-174.82
-154.44
-128.46
-101.29
-76.91
-57.70
-44.11
-35.17
-29.51
-26.13
-24.57
-24.62
-25.88
-27.53
-28.64
-28.54
-27.14
-24.87
-22.37
-20.08
-18.01
-15.73
-12.62
-8.28
-2.63
3.92
10.71
16.98
22.13
25.84
28.10
29.15
29.41
29.25
28.93
28.52
27.92
26.96
25.55
23.68
21.47
19.07
16.61
14.14
11.69
9.23
6.83
4.61
2.77
1.45
0.75
0.64
1.04
1.86
2.99
4.37
5.96
7.67
9.41
11.07
12.52
13.73
14.76
15.72
16.72
17.78
18.79
19.51
19.68
19.18
18.08
16.70
15.45
14.67
14.49
14.74
15.13
15.31
15.06
14.35
13.34
12.30
11.53
11.26
11.58
12.44
13.67
14.99
16.15
16.99
17.49
17.79
18.06
18.45
18.97
19.52
19.94
20.09
19.89
19.35
18.51
17.44
16.20
14.89
13.59
12.42
11.44
10.67
10.11
9.75
9.65
9.90
10.57
11.66
13.03
14.45
15.70
16.59
17.13
17.39
17.51
17.59
17.65
17.64
17.48
17.16
16.77
16.50
16.72
17.83
20.11
23.57
27.77
31.91
35.01
36.32
35.65
33.57
31.26
30.09
31.04
34.17
38.52
42.27
43.42
40.51
33.30
22.90
11.57
1.91
-4.01
-5.30
-2.52
2.72
8.54
13.49
17.14
20.05
23.36
28.28
35.72
46.22
59.91
76.46
94.89
113.43
129.69
141.28
146.61
145.51
139.29
130.21
120.47
111.50
103.64
96.34
88.60
79.36
67.71
52.88
34.38
12.17
-13.08
-40.00
-66.88
-92.00
-114.18
-133.16
-149.57
-164.90
-181.32
-201.26
-226.62
-257.74
-292.70
-327.51
-357.43
-378.76
-390.19
-392.77
-388.68
-379.51
-365.10
-343.94
-314.67
-277.60
-235.26
-191.62
-150.60
-114.83
-85.21
-61.41
-42.31
-26.33
-11.33
5.21
25.37
49.88
77.26
103.79
124.72
135.85
135.21
123.72
104.69
82.37
60.28
40.05
21.35
2.72
-17.08
-38.01
-58.53
-76.16
-88.47
-93.95
-92.28
-84.13
-70.62
-53.03
-32.68
-11.01
10.37
30.02
46.98
61.18
73.37
84.85
96.88
110.29
125.15
140.74
155.69
168.26
176.71
179.71
176.71
168.09
155.12
139.70
123.84
109.27
97.03
87.41
80.03
74.22
69.28
64.81
60.76
57.30
54.59
52.51
50.56
48.00
44.07
38.42
31.26
23.41
16.10
10.52
7.51
7.30
9.45
13.14
17.43
21.45
24.45
25.57
23.97
19.24
12.42
6.77
7.74
21.36
51.78
98.74
156.54
215.26
263.77
293.22
299.48
283.54
249.90
204.10
150.91
93.74
35.26
-21.74
-74.56
-121.49
-162.96
-201.58
-240.29
-279.57
-315.28
-339.16
-342.23
-319.56
-273.76
-214.64
-155.28
-106.64
-73.28
-52.59
-37.28
-19.53
5.30
36.77
69.68
96.04
108.09
101.26
76.32
39.67
1.37
-28.39
-42.37
-37.64
-14.86
23.60
74.60
133.70
194.13
246.40
280.42
288.85
270.11
228.92
173.68
112.17
47.85
-20.65
-96.69
-181.24
-269.74
-352.11
-416.23
-452.74
-458.98
-439.91
-405.61
-366.57
-329.47
-295.35
-260.88
-221.04
-171.90
-111.93
-42.20
34.16
112.37
186.31
249.19
294.80
319.22
321.87
305.70
275.85
237.92
196.58
154.99
115.18
78.31
44.89
14.74
-13.10
-40.57
-70.20
-104.18
-142.66
-182.52
-217.16
-237.79
-236.22
-207.45
-152.23
-76.72
10.33
101.16
190.56
274.72
349.08
407.04
441.51
447.04
422.46
372.52
307.00
237.11
171.51
114.56
66.68
26.86
-6.43
-35.14
-60.92
-84.40
-102.68
-112.16
-110.22
-101.84
-91.44
-83.25
-80.40
-86.95
-106.13
-139.72
-187.42
-246.35
-310.92
-372.70
-415.82
-427.80
-404.46
-351.96
-284.21
-215.66
-155.49
-106.13
-65.21
-29.44
1.47
24.63
39.91
49.71
59.19
74.30
99.65
136.84
183.85
233.95
278.27
309.41
321.22
313.34
290.76
261.57
230.62
202.24
177.56
155.03
132.45
108.80
85.62
65.68
50.72
39.81
28.53
11.01
-17.57
-59.35
-113.96
-178.43
-248.41
-313.53
-362.81
-386.93
-382.28
-352.75
-308.09
-260.13
-217.92
-185.34
-161.44
-143.37
-128.47
-115.68
-105.79
-98.06
-90.76
-81.61
-68.98
-52.67
-34.15
-15.45
1.79
17.30
32.35
48.69
67.94
91.06
116.18
141.28
164.77
186.04
205.85
226.30
250.22
280.15
316.84
357.88
397.49
427.48
439.96
430.32
398.93
350.69
292.93
232.69
174.65
120.81
71.50
27.14
-10.61
-39.08
-55.88
-60.60
-55.72
-46.46
-39.15
-39.09
-48.56
-65.90
-86.77
-105.95
-119.53
-125.33
-122.53
-111.54
-93.40
-69.28
-40.38
-8.38
24.58
55.78
82.63
103.34
117.39
125.64
129.97
132.57
134.66
137.00
138.76
138.92
136.81
132.38
126.39
120.15
115.11
111.80
110.24
109.76
109.53
108.69
106.48
102.20
94.95
87.12
79.45
72.17
64.89
57.22
48.88
39.83
30.32
20.80
11.80
3.17
-5.30
-14.30
-24.38
-35.80
-48.47
-61.88
-75.32
-88.08
-100.07
-111.37
-123.11
-136.22
-151.19
-167.78
-185.23
-202.66
-219.32
-235.12
-250.05
-266.04
-284.76
-307.15
-333.52
-363.56
-396.54
-430.94
-464.31
-492.82
-515.36
-531.09
-539.63
-541.11
-536.21
-525.94
-511.44
-493.78
-473.39
-454.84
-441.93
-436.54
-437.84
-443.01
-448.80
-453.07
-455.52
-437.37
-391.06
-318.26
-229.20
-137.61
-54.53
14.57
68.91
105.46
130.24
145.35
152.21
152.54
148.99
144.86
143.26
145.77
152.70
164.50
177.75
189.45
197.93
203.07
205.88
207.61
209.13
211.02
214.42
217.71
219.19
217.69
212.90
205.37
196.22
186.68
178.23
173.18
171.81
173.36
176.42
179.44
181.55
182.86
184.13
187.13
195.27
210.14
231.36
256.92
283.83
309.66
333.29
354.53
375.26
400.81
435.90
483.57
543.66
611.83
679.99
737.73
774.17
783.47
768.98
739.00
703.75
671.57
646.45
628.33
615.00
603.16
571.63
508.98
412.69
290.85
158.71
31.57
-80.18
-163.89
-224.41
-267.00
-292.20
-300.58
-294.34
-278.12
-258.42
-240.54
-227.79
-222.53
-223.74
-227.62
-231.83
-236.38
-243.66
-257.23
-280.35
-315.18
-363.45
-423.96
-492.09
-562.02
-627.42
-682.79
-724.57
-751.47
-763.99
-763.99
-752.11
-727.56
-690.04
-640.96
-584.06
-524.72
-468.26
-418.25
-375.91
-339.83
-307.32
-276.06
-244.72
-212.97
-181.04
-149.59
-119.36
-90.92
-64.42
-39.63
-15.98
7.23
30.73
55.15
80.89
107.91
135.32
161.18
182.78
197.58
204.42
204.44
201.10
199.07
202.56
213.62
231.45
252.99
274.30
292.01
304.21
310.33
310.52
305.04
294.04
277.83
257.32
234.22
210.68
188.74
169.49
152.74
137.23
121.36
104.03
85.31
66.33
48.87
34.50
23.99
17.07
12.63
9.25
5.72
1.44
-3.38
-7.89
-10.90
-11.33
-8.72
-3.38
3.64
10.88
16.95
20.91
22.40
21.63
19.15
15.71
12.06
8.94
6.93
6.31
6.98
8.48
10.16
11.51
12.33
12.74
13.10
13.74
14.77
16.02
17.04
17.33
16.43
14.14
10.58
6.19
1.62
-2.45
-5.44
-7.02
-7.21
-6.37
-5.20
-4.53
-5.10
-7.28
-10.83
-14.94
-18.45
-20.31
-19.98
-17.62
-13.99
-10.03
-6.54
-3.91
-2.18
-1.22
-0.95
-1.27
-2.00
-2.77
-3.07
-2.51
-0.98
1.14
3.20
4.51
4.74
3.99
2.70
1.43
0.54
0.08
-0.09
-0.13
-0.09
0.10
0.52
1.16
1.89
2.57
3.15
3.74
4.51
5.53
6.67
7.64
8.16
8.27
8.29
8.84
10.48
13.48
17.66
22.48
27.26
31.49
34.93
37.69
40.06
42.25
44.24
45.73
46.37
46.04
45.13
44.46
44.92
46.83
49.56
51.54
50.98
46.65
38.61
28.19
17.45
8.14
1.09
-4.06
-8.30
-12.61
-17.36
-22.26
-26.58
-29.50
-30.54
-29.70
-27.40
-24.38
-21.48
-19.31
-18.26
-18.06
-17.81
-16.31
-12.64
-6.71
0.58
7.67
13.33
16.90
19.48
23.30
30.75
42.76
57.55
70.58
75.58
66.88
40.27
-4.71
-64.31
-131.17
-195.68
-248.18
-281.25
-291.49
-279.53
-250.43
-210.27
-164.27
-115.37
-64.18
-9.94
47.82
104.45
159.62
207.39
241.65
257.97
254.85
233.82
198.23
151.25
93.85
25.80
-53.06
-139.30
-223.39
-291.06
-327.80
-324.72
-283.13
-215.75
-143.04
-87.16
-66.27
-86.96
-142.94
-217.72
-290.10
-340.82
-357.81
-337.95
-285.76
-213.88
-136.54
-67.93
-19.57
2.12
-2.20
-24.60
-52.04
-69.30
-68.04
-44.54
-0.85
58.21
128.52
208.06
295.32
376.45
455.76
521.80
565.75
583.47
577.35
555.25
526.72
498.91
474.38
452.86
428.91
399.74
365.29
327.99
290.97
255.82
221.72
185.70
145.37
96.88
39.35
-26.53
-99.68
-179.43
-265.23
-355.33
-445.26
-526.77
-591.77
-633.00
-647.69
-638.53
-612.33
-577.01
-538.59
-499.80
-460.35
-419.82
-378.10
-336.28
-295.87
-257.76
-221.61
-186.19
-150.32
-113.63
-77.21
-43.01
-12.97
11.90
32.04
49.27
66.24
85.63
109.56
139.37
175.38
216.58
260.22
301.70
335.15
354.88
357.23
341.98
312.68
275.47
237.11
203.06
176.26
157.25
144.82
137.02
131.80
127.30
121.90
114.50
104.66
92.83
80.09
67.81
57.12
48.44
41.39
35.02
28.25
20.35
11.38
2.24
-5.39
-9.59
-8.84
-2.65
8.08
21.18
33.73
42.95
47.05
45.78
40.47
33.42
27.11
23.34
22.63
24.14
26.07
26.40
23.63
17.41
8.53
-1.35
-10.39
-17.20
-21.34
-23.27
-24.14
-25.33
-27.85
-31.87
-36.29
-38.47
-34.38
-19.45
9.73
53.15
105.82
157.83
196.75
211.54
196.38
152.65
88.09
13.64
-60.37
-126.90
-182.90
-228.28
-264.54
-293.94
-319.54
-345.10
-374.15
-408.06
-444.35
-476.38
-495.33
-493.58
-467.79
-420.41
-358.54
-291.37
-227.38
-172.61
-130.21
-100.77
-82.72
-72.74
-66.65
-60.81
-53.57
-45.97
-40.76
-40.18
-43.88
-48.25
-47.63
-36.90
-13.58
21.73
66.47
117.82
173.48
231.20
287.69
338.31
377.91
402.83
412.61
410.22
400.69
388.79
377.36
366.90
356.63
345.51
333.10
319.54
304.98
289.21
271.74
252.41
231.95
212.32
195.85
184.49
179.21
179.68
184.63
192.11
199.91
205.85
208.52
206.74
200.12
189.49
177.02
165.34
156.20
149.08
140.75
127.02
103.94
69.97
27.00
-20.16
-65.72
-104.86
-134.94
-160.08
-182.62
-203.38
-221.31
-234.39
-241.18
-241.92
-238.40
-232.98
-227.47
-221.84
-215.22
-206.55
-195.35
-181.92
-167.39
-153.23
-140.69
-130.39
-121.51
-112.87
-103.35
-92.50
-80.51
-68.25
-56.85
-47.21
-39.66
-33.46
-27.54
-20.86
-13.11
-4.60
3.71
10.50
14.68
15.74
14.16
10.83
6.85
2.26
-3.43
-11.28
-22.55
-38.00
-57.43
-79.45
-101.96
-121.69
-137.70
-150.00
-159.49
-167.43
-175.06
-183.44
-193.40
-205.17
-217.50
-227.74
-231.34
-223.49
-201.54
-166.83
-124.70
-82.61
-47.49
-21.18
-2.54
12.06
26.37
42.30
59.53
76.50
91.89
104.41
115.10
124.59
132.82
138.84
141.38
139.45
133.20
123.95
113.63
104.42
97.32
92.34
88.60
84.84
80.01
73.77
66.56
59.30
53.26
49.02
46.50
45.06
43.77
41.86
39.01
35.89
32.87
30.80
30.14
30.87
32.48
34.16
35.27
35.50
35.17
34.90
35.52
37.47
40.59
44.28
47.81
50.90
53.67
56.38
58.89
60.56
60.24
56.79
49.91
39.47
26.27
10.82
-6.65
-25.67
-44.63
-60.60
-70.09
-70.52
-61.69
-46.25
-29.02
-15.07
-7.88
-8.19
-14.35
-23.47
-32.79
-40.47
-45.88
-49.20
-50.96
-51.69
-51.60
-50.76
-49.20
-47.19
-45.10
-43.35
-42.26
-41.49
-40.60
-38.98
-36.21
-32.41
-28.31
-24.42
-20.99
-17.86
-14.45
-10.19
-4.35
3.34
13.94
25.90
37.95
49.09
58.55
65.79
69.70
70.30
67.49
61.27
51.70
39.50
25.56
10.74
-2.73
-14.95
-26.09
-36.34
-45.60
-53.50
-59.27
-62.27
-62.38
-60.30
-57.61
-55.79
-55.85
-57.86
-60.96
-63.59
-64.40
-62.97
-59.96
-57.06
-55.75
-56.80
-60.05
-64.90
-70.66
-76.67
-81.82
-84.00
-80.19
-67.63
-45.37
-15.57
16.80
45.91
67.77
81.83
90.41
96.24
99.98
99.22
90.11
70.55
42.34
11.41
-14.58
-29.76
-32.55
-25.66
-13.99
-1.98
8.43
17.44
25.85
33.45
38.46
38.46
31.95
19.51
3.38
-13.38
-28.37
-40.97
-52.21
-64.02
-78.53
-97.10
-119.50
-143.18
-163.39
-174.17
-170.34
-149.95
-115.52
-73.85
-33.61
-1.94
18.10
27.95
31.77
33.63
35.39
36.69
35.94
32.32
26.98
22.70
22.28
26.88
35.15
43.71
48.80
47.71
39.95
27.51
14.00
2.93
-3.66
-5.91
-8.35
-14.38
-25.93
-42.81
-62.98
-83.52
-101.92
-116.51
-126.29
-130.52
-128.39
-120.43
-109.12
-98.60
-93.09
-94.46
-100.65
-106.19
-105.10
-94.16
-75.52
-55.67
-41.93
-38.23
-42.93
-49.79
-51.74
-44.93
-30.58
-14.32
-2.72
0.37
-4.47
-13.01
-20.16
-22.90
-21.71
-19.51
-19.44
-22.58
-27.08
-29.22
-25.54
-14.90
0.99
18.51
34.08
45.76
53.84
60.38
68.04
78.92
93.90
112.53
133.39
154.51
173.99
190.43
203.26
212.82
219.90
225.16
228.75
230.24
229.04
225.02
218.84
211.95
206.30
203.63
205.29
212.35
225.34
244.02
266.39
288.18
303.45
306.42
292.74
260.65
211.36
148.73
78.74
9.01
-52.32
-97.84
-121.91
-123.20
-105.02
-73.38
-33.70
11.63
63.11
121.09
182.59
241.21
287.31
312.09
311.46
287.64
247.47
198.93
148.47
100.57
60.48
32.93
21.04
24.43
38.38
55.24
67.40
70.23
52.94
14.49
-38.07
-93.04
-140.14
-174.38
-195.31
-204.70
-205.43
-201.17
-194.17
-186.61
-180.11
-175.55
-172.76
-171.65
-172.31
-175.54
-182.99
-195.28
-213.28
-238.16
-267.68
-299.30
-328.38
-348.07
-351.28
-333.71
-295.58
-243.12
-186.77
-137.11
-101.24
-80.43
-71.14
-68.18
-67.71
-67.99
-69.08
-71.43
-74.50
-76.91
-77.02
-73.92
-68.04
-60.82
-54.25
-49.08
-45.17
-41.47
-36.64
-29.60
-20.02
-8.54
3.41
14.09
22.10
26.66
27.92
26.90
24.90
23.05
21.87
20.98
19.14
14.75
6.36
-6.46
-22.59
-39.74
-55.01
-65.70
-70.17
-68.38
-61.45
-51.00
-40.05
-29.44
-18.33
-4.43
15.50
44.77
85.13
135.60
191.14
243.41
281.69
295.50
278.57
231.93
164.70
91.35
27.83
-13.96
-27.99
-15.99
14.51
54.09
94.81
132.22
164.95
195.02
225.71
261.68
305.11
354.19
402.97
442.58
464.50
463.04
439.21
388.34
315.00
229.35
143.48
66.99
4.08
-41.30
-75.10
-103.92
-133.64
-167.08
-205.40
-246.86
-285.43
-313.37
-324.36
-318.07
-299.89
-279.87
-267.02
-266.38
-276.84
-288.33
-289.25
-271.45
-235.20
-187.31
-136.85
-89.28
-46.00
-6.48
29.44
59.92
82.28
94.18
96.28
91.91
86.15
83.06
83.99
86.97
87.68
81.59
65.68
40.09
7.78
-26.87
-57.86
-82.41
-100.59
-114.46
-126.80
-140.04
-155.37
-172.33
-188.50
-199.61
-200.71
-187.49
-158.55
-116.88
-69.52
-25.14
9.21
30.57
40.48
42.77
41.36
38.34
33.81
27.20
18.81
10.37
4.36
2.51
4.54
8.36
11.21
10.97
7.49
2.65
-0.43
1.15
8.57
21.13
36.24
50.81
62.52
70.85
77.06
83.42
92.07
104.30
120.31
139.25
159.22
177.13
188.78
189.73
176.98
150.57
114.26
74.26
37.02
6.65
-16.14
-33.15
-46.47
-56.44
-61.48
-59.53
-50.62
-37.83
-26.42
-21.38
-24.71
-34.50
-45.79
-53.17
-53.46
-47.42
-39.17
-34.41
-38.62
-55.03
-83.60
-120.67
-159.66
-189.81
-201.10
-186.76
-146.30
-86.76
-21.44
34.12
67.27
72.22
51.38
13.08
-31.76
-73.28
-104.66
-122.37
-125.11
-112.92
-87.57
-53.20
-16.96
12.01
25.23
17.87
-9.07
-48.84
-91.00
-124.97
-143.08
-142.11
-122.73
-88.06
-42.31
9.36
60.58
104.22
133.30
144.09
138.82
126.39
119.66
130.07
162.12
210.73
263.14
303.63
320.37
309.89
277.57
234.09
190.19
152.69
120.99
93.13
67.09
42.43
20.90
5.19
-3.46
-5.56
-5.20
-7.26
-15.65
-32.63
-58.94
-94.55
-139.12
-192.15
-252.18
-315.78
-373.35
-413.09
-425.92
-410.49
-373.86
-327.91
-283.93
-248.43
-222.69
-204.58
-193.22
-187.37
-186.59
-189.59
-193.40
-194.08
-188.27
-175.06
-156.31
-135.95
-118.64
-107.49
-102.14
-99.05
-93.27
-80.40
-58.96
-30.97
-1.01
25.98
46.60
61.06
72.81
86.83
108.81
142.51
188.45
242.93
298.26
343.30
368.40
368.81
347.52
317.01
294.36
295.17
327.63
389.56
468.29
547.54
612.04
651.29
663.16
650.86
620.04
576.56
525.29
468.74
410.79
355.91
295.80
227.18
150.41
69.30
-10.48
-75.03
-126.27
-169.95
-211.12
-252.32
-293.25
-329.72
-356.06
-367.66
-362.92
-344.95
-319.78
-295.77
-280.10
-273.89
-273.30
-272.04
-265.68
-252.77
-234.55
-210.98
-180.86
-142.75
-96.29
-45.35
2.72
39.53
57.06
52.84
32.33
5.46
-18.93
-35.77
-47.74
-58.86
-70.01
-77.61
-75.60
-58.72
-25.93
18.83
67.97
112.75
146.13
163.51
163.05
145.44
113.45
70.26
23.39
-17.30
-43.41
-51.26
-42.99
-23.93
0.92
27.61
53.78
77.43
95.75
105.80
106.76
99.28
86.19
71.66
58.43
47.61
37.69
25.22
6.58
-20.71
-57.51
-103.33
-152.23
-198.84
-237.15
-261.09
-265.31
-246.71
-206.57
-151.03
-89.12
-29.24
20.91
63.52
103.26
142.54
179.31
206.74
216.87
205.08
173.11
128.20
80.48
39.03
7.80
-14.44
-33.32
-54.56
-80.85
-110.78
-140.00
-163.38
-177.31
-182.43
-181.95
-181.19
-185.06
-197.17
-219.82
-254.16
-300.08
-355.02
-415.62
-467.44
-495.48
-488.80
-446.54
-379.02
-302.15
-237.05
-187.37
-150.24
-120.73
-96.22
-76.35
-60.88
-50.02
-42.07
-33.42
-18.91
3.73
33.99
68.15
101.10
128.36
147.59
159.79
168.57
179.32
195.63
219.15
248.92
282.10
314.38
340.63
356.16
357.80
345.64
322.47
294.12
267.77
249.61
242.41
244.24
249.33
250.33
241.29
219.28
185.35
143.73
99.95
58.95
23.78
-4.52
-26.33
-42.27
-52.72
-57.62
-56.97
-51.41
-42.61
-32.85
-24.00
-16.76
-10.41
-3.56
4.78
14.30
23.48
30.40
33.92
34.29
32.85
31.19
30.21
29.96
30.10
30.57
31.95
35.11
40.49
47.62
55.18
61.67
66.28
69.25
71.64
74.48
78.21
82.30
85.66
87.38
87.29
86.23
85.81
87.74
93.22
102.61
115.45
130.70
147.20
163.96
180.17
195.13
207.86
216.81
219.92
215.15
201.42
179.53
152.34
124.00
98.37
77.31
60.04
43.81
25.66
4.26
-19.22
-41.71
-59.67
-70.48
-73.08
-67.73
-55.76
-39.38
-21.81
-7.11
0.63
-1.12
-11.79
-27.27
-40.95
-46.27
-39.28
-20.25
6.58
34.83
58.23
72.53
75.95
68.74
51.89
26.46
-5.89
-41.79
-74.99
-96.92
-99.13
-76.91
-32.20
26.07
84.76
131.29
158.09
164.78
156.74
141.77
126.35
113.66
103.77
95.40
87.71
81.01
76.39
74.65
75.54
77.62
78.84
77.47
72.72
64.87
54.89
43.91
32.74
21.70
10.73
-0.33
-11.64
-23.21
-35.09
-47.29
-59.70
-71.89
-82.98
-91.85
-97.50
-99.65
-99.21
-98.31
-99.74
-106.02
-118.41
-136.17
-156.86
-176.84
-192.63
-202.29
-206.32
-207.63
-210.60
-219.82
-238.31
-266.16
-299.35
-329.98
-348.09
-345.07
-317.49
-269.39
-211.97
-159.73
-125.46
-115.51
-128.29
-156.54
-191.71
-227.83
-262.99
-298.85
-338.19
-383.84
-436.12
-492.47
-547.94
-596.12
-630.98
-648.02
-646.91
-630.82
-607.11
-582.44
-560.69
-542.45
-525.90
-508.89
-489.02
-466.54
-442.06
-418.91
-398.60
-381.01
-365.38
-350.78
-337.01
-322.75
-309.37
-298.01
-293.24
-297.44
-310.66
-331.29
-356.28
-382.97
-407.33
-430.09
-422.64
-368.45
-263.16
-117.82
45.19
203.36
323.93
407.99
463.75
499.43
516.35
515.00
500.22
476.19
449.48
426.78
415.87
418.29
432.00
449.45
463.67
470.16
467.60
460.09
453.68
456.05
469.65
492.87
519.18
541.83
556.01
559.92
557.57
555.37
561.27
579.96
613.36
660.32
718.31
783.45
836.65
858.78
833.51
755.37
632.64
485.22
336.26
203.74
96.10
12.83
-49.27
-93.72
-122.18
-135.83
-137.06
-129.93
-119.62
-110.79
-106.36
-105.14
-104.22
-100.47
-91.90
-80.64
-70.73
-66.34
-70.14
-82.76
-101.64
-122.83
-142.39
-158.24
-170.32
-179.37
-185.95
-189.49
-188.99
-182.65
-169.46
-149.94
-127.21
-105.81
-89.57
-80.62
-76.06
-73.34
-69.74
-63.82
-55.82
-48.72
-46.53
-52.66
-69.45
-97.77
-137.97
-188.33
-244.74
-293.66
-321.13
-318.02
-285.02
-232.98
-176.21
-126.76
-89.71
-63.95
-45.21
-30.77
-21.90
-17.43
-14.53
-7.89
7.96
38.49
87.02
153.11
230.72
307.21
366.58
394.84
393.27
368.22
329.89
288.47
250.90
215.24
178.04
136.09
87.95
35.84
-16.09
-62.55
-99.61
-125.55
-142.08
-151.53
-155.58
-156.23
-155.63
-157.44
-165.35
-181.96
-206.55
-235.92
-264.03
-278.71
-272.22
-245.32
-207.39
-170.17
-145.51
-132.70
-126.66
-121.04
-110.19
-89.13
-55.27
-7.01
56.98
134.34
218.91
299.43
362.68
396.96
395.28
358.39
295.48
221.44
151.58
97.14
61.44
41.51
31.54
25.93
21.51
17.76
15.10
13.41
12.03
9.66
5.77
1.04
-3.31
-6.13
-6.92
-6.15
-4.93
-4.26
-4.77
-6.28
-7.93
-8.87
-8.69
-7.56
-6.14
-5.10
-4.62
-4.39
-3.74
-2.07
0.59
3.63
6.08
7.11
6.49
4.79
2.88
1.23
-0.07
-2.30
-6.77
-14.33
-24.94
-37.85
-52.30
-67.75
-83.39
-97.04
-104.96
-102.83
-88.22
-62.88
-32.86
-6.36
9.67
12.83
6.42
-3.06
-9.30
-9.38
-4.54
2.16
8.54
14.48
21.54
31.27
42.63
51.28
51.22
37.44
9.75
-26.82
-64.11
-93.50
-108.71
-108.01
-94.53
-74.44
-53.34
-31.91
-7.05
24.61
63.60
107.10
149.41
184.15
207.86
223.30
236.29
256.06
288.09
329.19
369.35
395.54
396.57
367.26
310.07
235.95
155.02
71.68
-15.56
-107.82
-195.10
-256.92
-274.16
-258.23
-219.09
-169.00
-114.78
-69.45
-42.83
-37.82
-51.00
-76.52
-109.09
-142.70
-175.21
-207.26
-240.73
-274.64
-305.83
-331.12
-350.66
-367.79
-384.03
-399.52
-411.59
-415.44
-404.50
-373.31
-319.63
-246.83
-162.55
-74.57
9.60
84.04
144.25
186.61
204.62
196.41
166.44
123.54
76.85
32.56
-5.91
-37.27
-61.26
-79.77
-92.35
-98.89
-99.17
-92.69
-78.49
-55.74
-24.31
15.51
58.26
97.41
126.65
142.70
145.53
138.44
125.44
108.98
89.51
66.60
46.28
26.83
7.03
-12.90
-29.97
-41.10
-45.53
-44.70
-40.21
-33.90
-23.43
-12.66
-1.60
13.74
37.45
70.13
109.12
151.11
190.89
227.54
261.91
269.74
237.04
167.43
78.64
-10.05
-67.20
-98.83
-113.26
-115.43
-104.78
-86.17
-58.25
-21.71
19.63
63.12
102.35
134.19
156.46
169.10
176.58
184.95
196.96
211.78
230.80
250.69
268.60
281.46
288.28
292.17
298.37
310.35
329.38
360.16
401.01
445.07
481.12
498.44
491.38
460.48
410.81
317.79
184.46
37.17
-91.25
-183.58
-240.60
-270.63
-281.58
-279.43
-269.15
-250.37
-225.84
-201.74
-184.42
-176.69
-177.19
-182.88
-191.74
-203.60
-216.00
-225.32
-232.42
-239.42
-246.72
-252.26
-253.44
-248.98
-239.53
-225.12
-208.03
-193.27
-185.04
-183.82
-185.17
-181.73
-166.68
-136.85
-93.36
-41.99
8.01
48.11
73.09
81.54
74.93
55.67
26.76
-7.63
-41.88
-71.24
-92.99
-107.09
-115.36
-119.45
-119.39
-110.14
-91.16
-63.81
-33.01
-5.60
12.63
19.56
17.28
9.97
1.52
-6.90
-15.39
-24.97
-35.47
-45.15
-51.77
-52.78
-47.26
-36.15
-22.60
-10.33
-3.29
-4.34
-14.02
-29.82
-46.92
-60.22
-66.48
-66.13
-61.65
-56.87
-54.76
-56.07
-59.27
-61.62
-60.89
-56.23
-48.41
-37.89
-25.18
-10.72
5.21
22.59
42.20
65.30
93.99
124.80
157.04
191.42
229.04
270.09
312.39
350.22
375.00
378.13
354.75
307.64
246.78
184.78
132.53
96.26
77.16
73.29
82.24
102.42
133.02
171.94
212.15
242.78
252.93
236.58
195.21
137.11
74.15
10.87
-44.29
-84.46
-107.69
-117.18
-117.56
-112.15
-102.40
-89.35
-74.30
-58.02
-42.35
-29.21
-19.88
-14.85
-14.14
-17.73
-25.92
-38.91
-55.83
-76.27
-97.22
-116.67
-133.37
-146.92
-157.58
-165.80
-171.72
-174.29
-172.77
-166.79
-157.15
-145.29
-132.90
-121.84
-114.06
-111.33
-114.23
-121.50
-128.87
-129.56
-116.06
-84.11
-36.18
17.45
61.71
83.01
75.05
41.31
-7.19
-56.97
-97.05
-121.63
-129.47
-121.71
-100.56
-69.15
-32.14
4.02
33.01
51.28
59.25
60.93
60.75
60.46
58.05
48.96
29.46
-1.26
-39.98
-80.17
-113.86
-133.95
-136.14
-120.16
-89.75
-51.63
-13.69
17.17
36.84
44.63
42.69
34.49
23.34
11.55
0.47
-8.94
-15.92
-20.19
-22.25
-23.47
-25.65
-30.20
-37.49
-46.58
-55.74
-63.35
-68.50
-71.45
-73.18
-75.11
-78.45
-83.63
-90.17
-97.06
-103.27
-108.20
-111.86
-114.47
-116.50
-118.40
-120.05
-120.96
-120.49
-117.97
-112.75
-106.54
-100.08
-93.64
-87.14
-79.72
-70.56
-59.36
-46.35
-32.21
-17.54
-2.08
14.90
34.35
58.19
87.37
121.31
157.85
193.92
226.67
254.80
278.45
298.72
318.74
340.68
364.76
389.25
411.23
428.10
439.07
445.07
448.28
454.15
467.99
493.73
532.33
580.74
631.96
676.82
706.25
698.36
641.82
538.06
402.07
256.27
120.98
7.74
-80.69
-146.94
-195.02
-225.97
-241.07
-242.92
-236.09
-225.16
-215.37
-209.70
-208.88
-212.24
-217.18
-222.35
-227.59
-233.79
-242.35
-254.21
-269.34
-287.07
-307.36
-327.39
-347.24
-369.31
-397.34
-434.09
-478.87
-526.04
-565.44
-586.19
-580.38
-547.27
-493.14
-428.53
-363.69
-305.01
-253.75
-206.84
-160.43
-112.52
-64.47
-19.42
19.83
52.68
80.77
106.91
134.85
167.73
207.54
254.87
308.87
366.90
424.27
474.29
502.90
498.33
456.41
384.44
298.57
216.18
148.55
98.73
63.67
38.59
20.94
10.09
5.89
6.93
10.28
12.79
12.69
9.90
5.78
2.99
3.54
8.05
15.47
23.61
30.19
34.08
34.20
30.08
21.88
9.76
-6.20
-25.90
-49.05
-74.94
-101.21
-126.12
-148.45
-167.54
-183.27
-196.10
-207.07
-217.36
-227.30
-235.41
-238.44
-231.86
-212.43
-180.15
-139.07
-96.16
-58.51
-30.49
-12.36
-1.49
6.51
14.21
22.02
29.25
35.54
41.84
50.11
62.05
77.65
95.19
111.22
122.40
127.11
126.17
122.23
118.56
117.91
121.78
130.64
142.77
154.96
162.84
161.74
148.02
120.73
82.61
38.07
-3.47
-33.92
-49.26
-50.50
-41.96
-28.72
-14.59
-1.59
9.21
17.33
20.70
17.52
7.21
-9.03
-29.21
-51.32
-74.36
-98.78
-126.13
-159.71
-201.91
-252.59
-308.23
-362.24
-406.51
-434.07
-441.56
-425.04
-387.98
-337.78
-282.73
-229.44
-181.76
-141.00
-107.02
-79.18
-56.52
-38.56
-23.92
-10.51
3.66
19.56
36.93
54.71
71.78
88.19
104.50
122.32
143.25
167.79
194.93
222.20
246.68
266.14
279.93
288.88
295.70
304.22
318.03
338.64
363.82
387.24
399.77
392.76
361.37
307.05
237.34
162.76
92.71
32.25
-18.89
-65.02
-111.90
-164.28
-223.94
-288.87
-353.56
-410.27
-451.22
-471.13
-469.13
-448.91
-416.71
-378.65
-338.27
-295.88
-249.86
-198.79
-142.97
-84.53
-26.31
29.67
83.02
134.88
187.27
242.40
302.13
366.94
435.12
502.03
560.31
601.15
616.85
603.36
562.10
500.26
429.58
363.88
315.78
293.40
297.75
322.04
353.38
376.83
380.19
357.82
311.74
249.70
181.42
114.84
54.43
1.39
-44.86
-85.32
-120.85
-152.40
-181.50
-210.11
-240.05
-272.27
-306.55
-341.89
-377.40
-413.47
-451.69
-493.73
-539.12
-583.68
-619.44
-636.97
-629.25
-594.66
-538.03
-468.61
-396.19
-327.62
-265.23
-207.69
-152.45
-97.99
-44.52
6.78
54.94
100.13
143.31
185.38
226.65
266.90
305.88
343.81
380.89
416.14
446.48
466.70
470.95
455.44
420.27
369.75
310.78
250.25
192.65
139.70
90.88
44.80
0.94
-40.55
-79.95
-119.17
-161.67
-210.54
-265.66
-322.05
-370.42
-399.36
-399.94
-369.83
-314.83
-246.80
-178.77
-119.97
-73.49
-36.95
-4.55
29.89
70.64
119.68
177.72
245.20
322.18
406.79
485.18
538.44
549.27
511.13
433.12
335.78
241.35
165.58
114.22
86.95
75.78
73.42
74.72
75.93
73.91
66.12
51.69
31.85
10.89
-5.39
-11.59
-5.72
9.27
26.28
36.79
34.80
19.92
-1.77
-19.69
-23.04
-6.59
25.74
61.49
84.35
81.00
46.55
-14.19
-89.33
-165.10
-231.23
-283.78
-323.95
-355.82
-383.87
-411.79
-442.24
-476.38
-512.87
-547.50
-574.19
-587.17
-583.38
-563.90
-533.16
-496.83
-459.21
-421.81
-383.68
-342.85
-297.88
-248.59
-195.92
-140.96
-84.69
-27.85
28.50
82.57
131.93
174.19
208.13
234.22
254.39
270.30
281.83
286.20
279.23
257.43
220.74
173.21
121.30
71.53
26.77
-14.63
-57.12
-104.28
-156.26
-208.05
-252.12
-282.63
-296.98
-297.46
-289.42
-278.10
-266.10
-253.49
-237.17
-214.09
-183.57
-145.32
-100.02
-48.46
8.91
71.75
137.55
204.82
271.55
334.61
393.45
448.65
501.34
552.34
601.68
646.14
684.12
713.92
716.50
678.29
595.11
475.22
336.26
212.14
112.76
38.42
-15.28
-54.50
-85.90
-111.90
-132.26
-145.39
-149.32
-144.83
-131.26
-108.94
-79.73
-44.18
-5.63
33.08
69.29
101.18
126.47
146.22
161.82
172.41
175.15
165.15
137.35
89.16
23.24
-52.49
-123.80
-174.99
-194.39
-178.24
-132.89
-73.09
-17.33
18.62
26.37
8.02
-26.62
-65.23
-97.84
-119.81
-131.35
-135.13
-133.28
-126.56
-114.75
-98.67
-81.17
-66.40
-58.09
-57.17
-61.42
-66.49
-68.04
-63.60
-53.72
-41.40
-30.51
-24.08
-22.89
-25.49
-29.02
-30.60
-28.58
-23.17
-16.00
-9.32
-4.93
-3.40
-4.10
-5.58
-6.35
-5.50
-3.01
0.40
3.75
6.14
7.26
7.35
6.99
6.85
7.46
9.07
11.68
15.18
19.37
24.13
29.31
34.60
39.49
43.35
45.33
44.71
40.97
33.93
23.96
11.89
-0.93
-12.88
-22.21
-27.51
-27.70
-22.37
-11.95
2.38
18.84
35.28
49.64
60.08
65.29
64.70
58.51
47.34
32.59
15.82
-1.36
-17.37
-31.11
-41.98
-49.79
-54.70
-57.49
-58.90
-59.89
-61.16
-63.09
-65.76
-68.92
-72.84
-76.01
-77.40
-75.79
-70.35
-60.54
-46.28
-28.04
-7.06
14.70
35.12
51.75
62.68
66.56
63.03
52.70
37.03
18.40
-1.52
-21.00
-39.69
-55.92
-68.45
-76.06
-77.95
-73.90
-64.65
-52.14
-39.05
-28.30
-21.75
-19.90
-21.57
-24.34
-25.50
-22.83
-15.57
-4.29
9.10
22.36
32.94
38.32
36.66
27.68
13.51
-1.46
-10.45
-9.36
2.17
20.14
37.99
49.63
52.31
47.26
38.32
29.54
22.86
17.97
13.50
8.51
3.40
-0.51
-2.08
-1.34
0.65
2.06
1.31
-2.01
-7.18
-12.72
-17.07
-19.39
-19.86
-19.42
-19.48
-21.09
-24.54
-29.40
-34.83
-39.91
-44.17
-47.74
-51.00
-54.43
-58.09
-61.46
-63.63
-63.85
-61.08
-54.93
-45.72
-34.21
-21.49
-8.48
4.10
15.68
25.92
34.52
41.10
45.30
46.93
46.02
43.23
39.47
35.65
32.51
30.32
28.82
27.32
25.19
21.96
18.16
14.74
12.66
12.48
13.96
15.90
16.58
14.48
8.85
1.02
-6.62
-11.13
-10.12
-2.67
10.30
26.69
43.98
58.19
69.02
77.49
85.48
94.81
106.79
121.27
136.12
149.42
154.31
144.64
116.68
71.50
15.85
-39.19
-81.44
-101.71
-97.15
-72.45
-37.00
-2.91
19.60
25.91
17.25
-1.72
-25.88
-51.64
-77.42
-101.87
-123.47
-139.76
-148.48
-148.85
-142.37
-131.80
-120.23
-110.17
-102.04
-94.74
-86.31
-75.33
-61.89
-47.51
-34.48
-25.17
-21.09
-22.04
-26.35
-31.51
-35.26
-36.50
-35.16
-31.71
-27.19
-22.54
-17.83
-12.15
-3.80
9.13
25.93
45.95
68.95
93.97
119.82
145.49
170.69
195.97
222.66
252.25
285.76
323.54
362.66
397.22
419.90
424.42
407.56
370.18
316.71
246.79
166.28
84.21
10.56
-46.96
-84.64
-102.70
-103.84
-91.92
-70.85
-43.30
-12.57
17.87
44.78
66.42
82.33
92.99
99.51
103.17
105.77
107.84
109.06
108.83
107.07
104.44
102.27
101.75
103.07
107.67
114.07
119.10
118.93
110.63
93.09
67.24
35.33
-0.27
-37.70
-76.90
-118.71
-164.23
-213.98
-267.78
-324.96
-384.38
-443.84
-499.00
-543.68
-570.93
-575.76
-557.81
-522.11
-477.14
-430.91
-387.68
-346.71
-304.56
-258.29
-208.40
-159.12
-116.11
-83.34
-61.08
-46.41
-35.27
-25.11
-15.83
-9.11
-6.58
-8.01
-10.71
-10.47
-3.48
11.79
33.70
57.97
79.40
93.85
99.70
98.09
92.03
84.93
79.14
75.27
72.21
68.12
61.53
52.26
41.61
31.88
25.35
23.40
26.04
32.01
39.45
46.51
51.72
54.04
52.77
47.58
38.70
27.36
15.75
6.63
2.43
4.35
11.88
22.92
34.47
43.65
48.46
48.34
44.11
37.65
31.20
26.68
24.99
25.68
27.22
27.73
25.98
22.10
17.56
14.50
14.54
17.91
23.21
28.07
30.33
28.90
24.20
17.78
11.51
6.84
4.48
4.46
6.45
9.95
14.29
18.60
21.76
22.57
20.25
14.68
6.65
-2.30
-10.39
-16.11
-18.75
-18.54
-16.64
-14.55
-13.65
-14.65
-17.46
-21.39
-25.53
-29.19
-31.89
-33.41
-33.54
-32.11
-29.19
-25.16
-20.76
-16.71
-13.29
-10.08
-6.15
-0.61
6.84
15.69
24.91
33.43
40.62
46.36
50.70
53.52
54.46
53.11
49.60
44.76
40.01
36.82
35.89
36.84
38.28
38.45
35.95
30.41
22.52
13.79
5.87
-0.05
-3.54
-4.91
-4.88
-4.13
-3.10
-1.92
-0.62
0.75
1.91
2.55
2.45
1.63
0.36
-0.98
-2.17
-3.28
-4.57
-6.40
-8.88
-11.76
-14.52
-16.53
-17.46
-17.46
-17.17
-17.31
-18.39
-20.27
-22.19
-23.12
-22.21
-19.31
-15.08
-10.72
-7.48
-6.05
-6.31
-7.40
-8.20
-7.85
-6.19
-3.74
-1.53
-0.45
-0.95
-2.79
-5.17
-7.19
-8.17
-8.02
-7.15
-6.28
-6.07
-6.85
-8.43
-10.33
-11.93
-12.79
-12.82
-12.31
-11.83
-12.00
-13.34
-16.00
-19.80
-24.18
-28.42
-31.82
-33.95
-34.73
-34.49
-33.78
-33.14
-32.80
-32.61
-31.95
-30.06
-26.44
-21.19
-15.24
-10.19
-7.72
-8.81
-12.95
-17.69
-18.97
-12.00
7.22
40.33
85.46
137.05
186.85
225.92
246.98
246.36
224.67
186.18
137.18
84.22
32.83
-12.94
-50.31
-77.59
-94.00
-99.80
-96.47
-86.54
-73.11
-59.04
-46.38
-36.10
-28.27
-22.46
-18.20
-15.28
-13.81
-14.04
-16.04
-19.47
-23.42
-26.68
-28.10
-27.01
-23.52
-18.43
-12.98
-8.34
-5.28
-3.86
-3.53
-3.48
-3.00
-1.85
-0.28
1.14
1.93
1.99
1.64
1.47
1.89
2.95
4.29
5.46
6.23
6.69
7.17
8.03
9.40
11.09
12.82
14.20
15.06
15.33
15.09
14.39
13.28
11.69
9.54
6.82
3.66
0.37
-2.61
-4.90
-6.31
-6.88
-6.84
-6.49
-6.13
-6.03
-6.55
-7.96
-10.46
-13.85
-17.54
-20.59
-22.09
-21.50
-18.84
-14.56
-9.31
-3.63
2.20
8.07
13.83
19.23
23.88
27.41
29.60
30.48
30.35
29.59
28.60
27.64
26.85
26.14
25.33
24.22
22.70
20.90
19.07
17.51
16.39
15.69
15.15
14.53
13.61
12.39
11.03
9.66
8.41
7.26
6.23
5.31
4.57
4.04
3.68
3.42
3.13
2.72
2.06
1.10
-0.17
-1.64
-3.14
-4.45
-5.45
-6.25
-7.08
-8.18
-9.58
-11.01
-12.00
-12.16
-11.37
-9.80
-7.80
-5.69
-3.60
-1.50
0.68
2.93
5.09
6.96
8.38
9.29
9.79
10.02
10.22
10.57
11.24
12.28
13.60
14.92
15.88
16.19
15.73
14.64
13.27
12.02
11.17
10.78
10.71
10.75
10.70
10.47
10.07
9.56
8.95
8.25
7.37
6.29
5.02
3.61
2.10
0.57
-0.92
-2.30
-3.50
-4.47
-5.21
-5.78
-6.23
-6.65
-7.09
-7.61
-8.30
-9.24
-10.47
-11.84
-13.02
-13.56
-13.07
-11.40
-8.83
-5.85
-3.07
-0.89
0.59
1.50
2.11
2.60
3.07
3.45
3.74
3.99
4.36
5.02
6.06
7.41
8.87
10.12
10.92
11.13
10.83
10.22
9.58
9.05
8.61
8.15
7.49
6.60
5.58
4.62
3.88
3.43
3.18
2.94
2.57
2.00
1.33
0.63
-0.02
-0.62
-1.22
-1.89
-2.70
-3.65
-4.70
-5.73
-6.65
-7.39
-7.98
-8.61
-9.48
-10.72
-12.19
-13.48
-14.05
-13.47
-11.66
-8.92
-5.79
-2.74
-0.03
2.36
4.50
6.38
7.82
8.58
8.56
7.90
6.95
6.10
5.66
5.65
5.97
6.47
7.03
7.59
8.16
8.70
9.11
9.30
9.16
8.63
7.75
6.59
5.26
3.83
2.34
0.83
-0.63
-1.91
-2.83
-3.25
-3.20
-2.84
-2.44
-2.24
-2.29
-2.53
-2.78
-2.97
-3.10
-3.31
-3.70
-4.34
-5.20
-6.22
-7.38
-8.70
-10.25
-12.01
-13.87
-15.49
-16.52
-16.59
-15.51
-13.38
-10.56
-7.63
-5.19
-3.62
-2.96
-2.87
-2.85
-2.44
-1.53
-0.32
0.83
1.64
2.06
2.31
2.72
3.52
4.68
5.95
7.03
7.73
8.08
8.30
8.60
9.10
9.70
10.19
10.34
10.04
9.36
8.49
7.64
6.94
6.38
5.88
5.36
4.79
4.27
3.87
3.65
3.54
3.36
2.95
2.23
1.27
0.24
-0.67
-1.38
-1.91
-2.42
-3.05
-3.89
-4.93
-6.15
-7.49
-8.88
-10.26
-11.44
-12.19
-12.26
-11.48
-9.87
-7.62
-5.01
-2.36
0.08
2.14
3.77
4.94
5.63
5.86
5.62
5.04
4.28
3.60
3.27
3.44
4.13
5.20
6.40
7.48
8.27
8.75
8.99
9.10
9.11
8.97
8.56
7.74
6.45
4.73
2.77
0.87
-0.66
-1.60
-1.92
-1.78
-1.45
-1.20
-1.18
-1.34
-1.57
-1.77
-1.96
-2.28
-2.92
-3.99
-5.41
-6.96
-8.38
-9.50
-10.26
-10.74
-11.05
-11.32
-11.65
-12.14
-12.84
-13.74
-14.66
-15.24
-15.07
-13.86
-11.60
-8.54
-5.17
-1.99
0.65
2.55
3.73
4.26
4.26
3.83
3.00
1.85
0.43
-1.10
-2.52
-3.56
-4.01
-3.81
-3.09
-2.12
-1.12
-0.22
0.70
1.79
3.20
4.93
6.77
8.49
9.83
10.74
11.25
11.48
11.53
11.46
11.24
10.85
10.23
9.37
8.25
6.87
5.19
3.22
1.04
-1.20
-3.30
-5.09
-6.49
-7.58
-8.55
-9.63
-10.97
-12.58
-14.28
-15.74
-16.62
-16.61
-15.62
-13.74
-11.24
-8.50
-5.84
-3.45
-1.37
0.40
1.89
3.06
3.87
4.34
4.56
4.75
5.14
5.82
6.71
7.63
8.33
8.70
8.77
8.66
8.56
8.60
8.78
9.00
9.15
9.01
8.51
7.57
6.25
4.67
3.03
1.54
0.37
-0.33
-0.65
-0.72
-0.78
-1.04
-1.62
-2.51
-3.63
-4.80
-5.87
-6.75
-7.40
-7.86
-8.19
-8.48
-8.83
-9.35
-10.13
-11.16
-12.38
-13.56
-14.45
-14.81
-14.49
-13.50
-11.95
-10.05
-7.95
-5.77
-3.52
-1.16
1.26
3.63
5.73
7.33
8.24
8.45
8.06
7.33
6.59
6.16
6.21
6.75
7.63
8.59
9.44
10.09
10.60
11.11
11.69
12.24
12.51
12.29
11.54
10.46
9.39
8.66
8.29
7.98
7.26
5.70
3.22
0.14
-2.93
-5.41
-7.03
-7.98
-8.71
-9.71
-11.14
-12.82
-14.32
-15.20
-15.26
-14.55
-13.25
-11.57
-9.64
-7.52
-5.27
-2.99
-0.62
2.03
5.34
9.73
15.42
22.30
29.90
37.66
45.09
52.08
58.82
65.59
72.66
80.13
87.94
95.99
104.19
112.46
120.68
128.68
136.25
143.35
150.25
157.59
166.23
176.80
189.27
202.65
215.08
224.18
227.55
223.18
209.74
186.80
154.86
115.41
70.69
23.52
-23.22
-67.00
-105.93
-139.12
-166.97
-191.41
-215.51
-242.15
-272.25
-303.19
-328.75
-340.99
-333.11
-301.97
-249.02
-179.47
-100.74
-21.34
49.73
103.20
130.46
126.14
91.25
34.87
-26.90
-75.42
-95.58
-80.32
-31.99
39.42
120.36
197.98
262.47
307.84
331.61
333.52
315.43
281.34
236.26
186.00
136.14
90.95
52.77
22.32
-2.74
-26.32
-52.11
-83.95
-123.84
-171.09
-222.23
-271.89
-313.25
-343.03
-361.01
-369.28
-373.63
-380.73
-395.21
-417.46
-442.68
-460.39
-462.21
-442.68
-400.53
-342.60
-281.33
-231.12
-204.56
-208.62
-240.49
-294.44
-360.90
-409.91
-414.85
-360.75
-252.18
-112.08
14.82
115.83
190.76
243.68
278.77
299.12
303.72
292.34
266.66
231.28
194.47
159.32
125.50
91.29
53.51
10.93
-27.45
-50.27
-48.53
-19.74
26.20
74.26
112.25
133.50
137.57
128.44
110.39
86.89
61.39
35.05
9.02
-14.71
-34.74
-50.92
-63.87
-76.09
-88.98
-101.83
-113.49
-122.13
-125.80
-123.65
-116.37
-105.78
-94.77
-85.90
-80.21
-77.75
-77.38
-77.38
-76.08
-72.37
-65.63
-55.63
-44.50
-33.28
-22.39
-11.70
-0.98
9.81
20.48
30.69
40.06
48.38
55.98
63.13
70.03
76.68
82.83
88.27
93.03
97.49
102.28
108.42
116.47
126.53
138.17
150.65
163.29
175.76
188.22
201.18
215.63
232.48
252.65
276.34
302.57
328.92
351.74
367.17
372.30
366.45
351.29
330.63
308.49
287.75
269.70
254.21
240.72
228.98
219.30
212.20
208.33
207.27
207.41
206.68
203.23
196.22
186.00
173.84
161.12
149.17
137.34
122.92
102.10
71.49
29.86
-20.84
-75.82
-134.01
-191.46
-244.02
-288.46
-323.11
-348.01
-363.85
-370.63
-367.20
-352.51
-326.19
-290.54
-250.36
-211.33
-178.83
-156.10
-144.45
-143.15
-149.64
-158.97
-164.44
-159.07
-138.23
-103.14
-61.83
-26.59
-8.29
-10.98
-29.54
-52.08
-66.55
-64.90
-46.68
-20.20
2.08
10.77
6.37
-4.42
-13.95
-17.78
-15.10
-7.93
2.46
16.71
36.46
62.32
91.77
119.73
140.56
150.65
149.66
139.85
124.44
106.11
86.40
66.18
47.06
31.79
23.18
22.13
26.44
31.12
30.73
22.12
5.90
-13.63
-30.16
-38.15
-34.86
-21.43
-3.06
12.51
16.92
3.39
-31.31
-86.00
-155.57
-232.25
-304.01
-358.15
-384.63
-379.79
-347.25
-295.46
-233.90
-170.57
-110.88
-58.07
-14.22
19.72
43.67
58.52
66.11
68.01
64.47
54.98
39.53
19.80
0.44
-11.98
-10.84
7.81
43.17
89.43
137.95
180.37
208.67
219.29
213.09
194.01
167.03
136.46
105.26
75.49
48.91
26.97
11.08
1.48
-3.15
-5.46
-8.21
-13.06
-19.86
-26.94
-32.24
-34.14
-32.33
-27.78
-22.04
-16.46
-11.72
-7.81
-4.46
-1.52
1.06
3.09
4.27
4.54
3.92
2.67
1.00
-0.98
-3.41
-6.54
-10.65
-15.92
-22.09
-28.39
-33.58
-36.29
-35.44
-30.73
-22.74
-12.75
-2.33
7.21
15.03
20.85
24.62
26.36
26.04
23.77
19.96
15.41
11.11
7.93
6.26
5.94
6.43
7.07
7.37
7.19
6.60
5.74
4.74
3.59
2.27
0.71
-1.08
-3.04
-5.08
-7.15
-9.17
-11.04
-12.69
-14.12
-15.38
-16.58
-17.79
-18.98
-19.99
-20.55
-20.41
-19.42
-17.64
-15.28
-12.62
-9.98
-7.49
-5.14
-2.73
-0.01
3.18
6.79
10.54
13.90
16.34
17.46
17.13
15.53
12.97
9.85
6.50
3.21
0.28
-1.94
-3.13
-3.15
-2.06
-0.21
1.89
3.75
5.08
5.76
5.87
5.53
4.81
3.77
2.50
1.11
-0.21
-1.35
-2.26
-3.06
-3.91
-5.02
-6.44
-8.09
-9.79
-11.29
-12.42
-13.09
-13.32
-13.24
-13.06
-13.01
-13.34
-14.14
-15.27
-16.38
-17.01
-16.71
-15.32
-12.98
-10.11
-7.23
-4.74
-2.74
-1.14
0.33
1.92
3.77
5.84
7.91
9.62
10.58
10.50
9.28
7.11
4.45
1.90
0.08
-0.65
-0.19
1.20
3.05
4.83
6.09
6.64
6.46
5.74
4.76
3.78
3.05
2.66
2.60
2.73
2.82
2.59
1.90
0.74
-0.69
-2.09
-3.20
-3.84
-4.04
-3.99
-3.97
-4.22
-4.89
-6.04
-7.60
-9.38
-11.14
-12.58
-13.44
-13.58
-13.02
-11.92
-10.52
-8.97
-7.34
-5.55
-3.53
-1.24
1.26
3.84
6.33
8.53
10.31
11.49
12.04
12.02
11.59
11.04
10.60
10.46
10.63
11.06
11.64
12.24
12.75
13.02
12.95
12.51
11.81
11.04
10.33
9.64
8.70
7.25
5.12
2.50
-0.18
-2.46
-4.08
-5.12
-5.95
-7.00
-8.51
-10.45
-12.54
-14.48
-16.15
-17.64
-19.26
-21.23
-23.57
-26.05
-28.28
-29.87
-30.70
-31.06
-31.47
-32.47
-34.24
-36.43
-38.14
-38.29
-36.07
-31.37
-25.05
-18.64
-13.91
-12.07
-13.32
-16.70
-20.44
-22.57
-21.44
-16.37
-7.94
2.12
11.22
16.80
17.25
12.83
6.05
1.20
3.15
15.84
40.97
77.12
119.68
161.83
196.23
217.19
222.52
213.58
194.52
170.43
145.35
121.26
98.38
76.46
56.09
39.30
27.98
22.77
22.37
23.97
24.74
23.20
19.70
15.87
13.20
10.79
4.96
-9.45
-37.17
-80.25
-136.93
-202.26
-269.69
-327.58
-364.44
-372.43
-350.70
-306.00
-248.68
-187.86
-129.05
-74.33
-23.70
22.57
63.42
97.49
123.83
141.30
149.09
146.61
133.28
108.68
73.07
27.60
-20.52
-60.90
-84.10
-85.59
-67.98
-39.91
-12.12
6.89
13.52
9.21
-2.14
-16.89
-32.93
-49.56
-66.44
-83.12
-97.37
-106.33
-107.49
-99.60
-82.62
-57.46
-25.58
11.25
49.81
87.20
120.96
149.48
171.78
187.34
196.37
199.95
200.06
198.89
197.72
195.30
187.71
169.83
138.31
94.19
43.50
-4.85
-42.70
-65.77
-75.08
-75.34
-71.96
-68.40
-65.34
-61.81
-56.97
-51.33
-46.58
-44.46
-45.65
-49.23
-53.19
-55.15
-53.71
-49.08
-42.86
-37.37
-34.52
-34.95
-37.75
-40.97
-42.79
-42.50
-40.57
-37.89
-34.72
-30.11
-22.24
-10.02
5.79
22.69
37.14
46.64
50.87
51.47
50.63
49.76
48.71
46.57
43.17
39.93
38.90
41.74
47.84
54.06
56.11
50.71
37.46
19.58
2.60
-7.88
-8.40
0.62
15.24
29.43
37.49
36.39
26.77
12.18
-2.41
-12.91
-17.80
-17.69
-14.76
-11.06
-7.38
-3.30
1.76
7.62
13.01
15.91
14.65
8.65
-1.35
-13.33
-24.57
-32.69
-36.25
-35.02
-30.25
-23.85
-17.74
-13.00
-9.22
-4.50
3.58
16.94
36.17
59.83
85.44
109.89
130.82
147.19
159.15
167.65
173.72
178.18
181.58
184.53
187.68
191.66
196.58
201.73
205.77
207.61
206.35
201.71
193.96
183.53
170.47
154.53
135.36
113.14
88.76
63.60
38.90
15.35
-6.89
-28.25
-49.09
-69.78
-90.44
-111.00
-131.41
-151.78
-172.60
-194.45
-218.02
-243.16
-268.55
-291.56
-308.77
-317.17
-315.17
-303.27
-283.66
-259.57
-234.09
-209.46
-187.04
-167.34
-150.59
-136.82
-125.68
-116.21
-106.88
-95.87
-82.05
-65.99
-49.76
-36.33
-27.58
-22.76
-18.30
-9.44
7.29
31.52
58.55
81.50
94.24
94.63
85.33
72.32
61.81
57.44
58.87
62.46
63.50
58.13
44.81
24.50
-0.38
-26.91
-52.50
-75.33
-94.25
-108.45
-117.57
-121.59
-120.85
-116.42
-109.59
-101.46
-92.58
-82.51
-70.35
-55.46
-38.10
-19.49
-1.75
13.16
24.10
30.84
33.87
33.68
30.48
24.38
16.02
6.54
-2.36
-8.97
-12.15
-11.48
-7.28
-0.42
7.87
16.02
22.37
25.58
25.02
20.83
13.89
5.32
-3.84
-12.63
-20.28
-25.78
-28.20
-26.89
-22.25
-15.79
-10.12
-8.34
-12.88
-24.88
-43.39
-65.52
-87.02
-103.58
-111.78
-110.01
-98.66
-79.69
-55.77
-29.51
-3.07
22.05
44.82
64.61
81.03
93.95
103.43
109.79
113.72
116.26
118.42
120.84
122.98
123.00
118.26
106.53
87.34
62.72
36.63
13.57
-3.00
-11.85
-14.01
-12.01
-8.78
-6.83
-7.84
-12.82
-22.09
-35.19
-50.97
-67.78
-84.23
-100.15
-117.48
-139.84
-171.06
-212.38
-260.17
-305.77
-337.77
-346.59
-328.88
-289.48
-239.59
-192.11
-156.51
-135.65
-126.36
-122.43
-118.10
-110.50
-99.55
-86.67
-73.26
-60.16
-47.82
-36.72
-27.47
-20.53
-15.77
-12.27
-8.74
-3.90
3.02
12.38
24.17
38.39
54.84
72.74
90.73
106.83
119.11
126.40
128.99
128.41
126.99
126.69
128.23
130.90
133.10
133.12
130.03
124.13
116.64
109.32
103.53
99.57
96.49
92.43
85.37
74.09
58.88
41.54
24.85
11.51
3.33
0.91
3.98
12.03
24.89
42.79
65.75
93.05
122.87
152.46
179.09
200.88
217.39
229.49
238.85
246.95
254.65
262.09
268.93
274.91
280.09
284.87
289.79
295.16
300.85
306.55
311.97
317.12
322.26
327.54
332.46
335.48
334.14
325.52
307.31
278.65
240.36
194.62
144.17
91.43
38.04
-15.07
-67.27
-117.73
-165.34
-208.97
-247.91
-282.42
-313.89
-344.39
-376.24
-410.81
-447.60
-484.02
-515.61
-537.25
-544.66
-535.81
-511.49
-475.03
-431.40
-385.78
-342.51
-304.34
-272.29
-246.02
-224.24
-205.47
-188.37
-172.13
-156.60
-142.03
-128.72
-116.80
-105.97
-95.27
-83.27
-68.30
-48.92
-24.54
4.08
34.88
64.78
90.73
110.85
125.25
135.94
146.06
158.44
174.36
193.06
212.13
228.74
240.87
247.82
250.50
250.88
251.39
254.49
262.22
275.67
294.27
315.47
334.75
346.95
347.83
335.50
311.15
278.51
242.40
207.14
175.53
148.38
125.09
104.51
85.54
67.63
50.84
35.26
20.80
7.05
-6.58
-20.51
-34.63
-48.48
-61.47
-73.34
-84.34
-94.82
-104.64
-112.86
-117.94
-118.50
-114.33
-106.61
-97.63
-89.71
-84.11
-80.73
-78.46
-75.98
-72.40
-67.71
-62.35
-56.80
-51.47
-46.42
-41.58
-36.87
-32.23
-27.58
-22.97
-18.62
-14.77
-11.78
-9.77
-8.49
-7.48
-6.24
-4.48
-2.28
0.04
2.00
3.15
3.02
1.25
-2.44
-7.95
-14.61
-21.28
-26.74
-30.21
-31.71
-32.06
-32.32
-33.41
-35.42
-37.96
-40.22
-41.65
-42.12
-41.97
-41.70
-41.68
-42.12
-42.88
-43.72
-44.24
-43.94
-42.22
-38.45
-32.28
-23.75
-13.51
-2.63
7.64
16.32
22.87
27.32
30.24
32.25
33.90
35.35
36.58
37.51
38.19
38.86
39.69
40.75
41.73
42.02
40.97
38.21
33.93
28.83
24.02
20.50
18.98
19.48
21.54
24.22
26.49
27.56
27.19
25.73
23.76
21.80
19.71
17.06
13.38
8.59
3.35
-1.20
-4.04
-4.91
-4.47
-4.11
-5.08
-7.86
-12.05
-16.63
-20.49
-22.97
-24.09
-24.37
-24.61
-25.53
-27.67
-31.44
-36.80
-43.41
-50.45
-56.72
-60.99
-62.48
-61.09
-57.50
-53.04
-48.81
-45.45
-42.90
-40.44
-37.32
-33.22
-28.50
-23.96
-20.66
-19.14
-19.47
-21.36
-24.22
-27.44
-30.46
-32.72
-33.74
-33.21
-31.10
-27.91
-24.50
-21.77
-20.31
-20.15
-20.54
-20.43
-18.90
-15.48
-10.55
-5.05
-0.13
3.24
4.61
4.20
2.66
0.77
-0.77
-1.56
-1.63
-1.21
-0.74
-0.59
-0.98
-1.86
-3.13
-4.62
-6.23
-7.97
-9.85
-11.83
-13.79
-15.54
-16.99
-18.14
-18.95
-19.49
-19.78
-19.97
-20.38
-21.44
-23.37
-25.91
-28.17
-28.74
-26.40
-20.63
-12.05
-2.35
6.34
12.39
15.21
15.41
14.43
13.63
13.81
14.87
16.09
16.59
15.99
14.47
12.65
11.32
10.79
10.94
11.24
11.09
10.03
8.05
5.50
2.87
0.67
-0.97
-2.17
-3.28
-4.52
-5.98
-7.62
-9.27
-10.98
-12.82
-15.06
-17.76
-20.75
-23.61
-25.79
-27.02
-27.24
-26.88
-26.50
-26.76
-28.03
-30.35
-33.45
-36.81
-39.96
-42.53
-44.40
-45.50
-45.79
-45.21
-43.89
-42.17
-40.83
-40.66
-41.92
-43.97
-45.09
-42.97
-35.56
-21.89
-2.38
21.46
47.74
74.94
101.99
127.95
151.29
169.72
180.67
182.34
174.65
159.35
139.57
118.41
97.99
79.11
61.44
44.40
27.70
11.52
-3.80
-17.89
-30.52
-41.25
-49.23
-53.25
-52.42
-46.29
-35.07
-19.98
-2.96
13.22
26.15
34.63
38.97
40.47
41.28
43.72
49.57
59.76
73.81
90.52
108.43
125.90
140.60
150.82
156.33
158.50
159.96
162.44
167.04
173.89
182.02
187.56
187.21
180.02
167.04
150.39
129.09
101.90
68.74
31.00
-13.09
-62.99
-114.08
-159.38
-191.44
-210.97
-221.10
-225.08
-226.04
-233.83
-254.94
-288.23
-326.09
-357.13
-380.25
-396.85
-408.46
-417.36
-435.35
-470.81
-522.68
-581.63
-633.33
-676.28
-711.71
-740.15
-699.37
-558.73
-341.41
-107.91
62.94
183.77
272.29
339.21
394.67
437.86
456.25
441.01
393.84
327.75
262.29
204.93
159.46
129.15
116.44
116.46
124.52
138.79
159.39
187.63
215.55
236.31
247.95
251.61
245.58
229.32
205.68
180.62
162.12
151.85
149.75
155.00
164.22
169.80
163.41
139.88
99.69
49.73
-1.68
-46.61
-77.43
-90.88
-88.96
-76.93
-59.55
-39.16
-15.64
10.92
39.57
68.43
94.64
116.01
131.19
140.75
146.43
150.19
153.02
154.68
154.42
151.28
145.05
135.41
123.06
108.97
93.76
77.08
57.62
33.42
1.79
-33.13
-69.13
-103.89
-135.42
-162.40
-184.52
-202.68
-218.73
-234.87
-252.36
-271.39
-289.47
-302.04
-304.17
-292.52
-266.66
-229.21
-184.86
-138.83
-96.37
-61.34
-36.24
-22.23
-19.01
-24.41
-34.51
-44.28
-49.02
-46.44
-36.95
-23.39
-9.59
1.15
7.40
9.72
9.73
9.09
8.52
8.23
8.44
9.75
12.92
18.06
24.11
28.94
30.50
27.97
22.53
16.83
13.56
13.96
17.32
21.59
24.64
25.39
24.15
22.03
20.09
18.77
17.84
16.70
14.85
12.04
8.39
4.21
0.02
-3.69
-6.49
-8.14
-8.63
-8.04
-6.47
-3.89
-0.27
4.18
8.95
13.19
16.05
16.98
16.05
13.71
10.63
7.32
4.00
0.82
-1.88
-3.44
-3.11
-0.33
4.80
11.49
18.44
24.29
28.11
29.62
29.17
27.41
25.18
23.18
22.04
22.09
23.36
25.53
28.07
30.40
32.08
32.96
33.04
32.45
31.37
30.10
29.05
28.62
28.96
29.88
30.90
31.39
30.91
29.25
26.38
22.29
17.11
11.17
5.29
0.68
-1.51
-0.66
2.90
7.98
13.05
16.84
18.81
19.19
18.63
17.76
16.97
16.29
15.53
14.45
12.93
11.15
9.51
8.55
8.65
9.92
12.15
15.02
18.19
21.50
24.80
27.74
29.77
30.29
28.92
25.74
21.50
17.24
13.98
12.29
12.02
12.53
13.12
13.38
13.50
14.11
15.73
18.37
21.25
23.13
23.01
20.91
18.04
16.31
17.19
20.79
25.62
29.32
29.89
26.89
21.81
17.41
16.55
20.85
29.95
41.74
53.19
61.54
65.30
64.79
61.81
59.19
59.90
66.02
78.06
94.23
110.35
120.16
117.14
97.08
60.84
15.84
-25.35
-48.94
-45.27
-13.14
38.94
95.71
140.83
162.59
157.31
128.81
84.99
33.50
-21.01
-77.07
-134.22
-190.54
-241.65
-281.66
-305.57
-311.46
-301.37
-280.02
-252.68
-223.29
-193.93
-165.54
-138.88
-115.17
-95.79
-81.50
-72.00
-66.12
-62.40
-59.81
-57.75
-55.55
-52.27
-46.85
-38.47
-27.26
-14.41
-1.78
8.82
16.33
20.79
23.06
24.37
25.78
27.81
30.35
32.79
34.36
34.49
33.15
31.07
29.42
29.51
32.03
36.83
42.84
48.60
52.86
55.07
55.37
54.34
52.45
49.79
46.21
41.68
36.67
32.05
28.74
27.07
26.48
25.66
23.19
18.32
11.41
3.97
-2.09
-5.06
-4.30
-0.38
5.08
9.97
12.52
11.89
8.50
3.80
-0.54
-3.34
-4.46
-4.70
-5.18
-6.60
-8.79
-10.90
-11.95
-11.49
-9.85
-7.89
-6.33
-5.18
-3.75
-1.00
3.67
9.94
16.60
22.11
25.28
25.81
24.32
21.93
19.74
18.39
17.94
18.05
18.38
18.76
19.34
20.37
21.96
23.81
25.31
25.67
24.36
21.40
17.41
13.38
10.28
8.59
8.12
8.16
7.78
6.35
3.73
0.36
-2.97
-5.43
-6.59
-6.44
-5.42
-4.31
-3.76
-4.22
-5.76
-7.98
-10.15
-11.46
-11.30
-9.52
-6.69
-3.88
-2.39
-3.09
-5.95
-9.82
-12.86
-13.38
-10.65
-5.43
0.27
4.04
4.13
0.21
-6.52
-13.98
-20.20
-24.02
-25.39
-24.97
-23.51
-21.37
-18.35
-14.03
-8.20
-1.26
5.91
12.13
16.47
18.54
18.58
17.23
15.23
12.95
10.42
7.39
3.59
-0.94
-5.75
-10.12
-13.32
-14.88
-14.77
-13.31
-11.10
-8.82
-7.05
-6.12
-6.09
-6.76
-7.75
-8.68
-9.34
-9.80
-10.35
-11.24
-12.48
-13.74
-14.63
-14.87
-14.50
-13.85
-13.23
-12.66
-11.82
-10.30
-7.96
-5.15
-2.58
-1.03
-0.91
-2.09
-4.01
-6.00
-7.61
-8.71
-9.39
-9.72
-9.75
-9.36
-8.51
-7.22
-5.53
-3.59
-1.50
0.51
2.24
3.47
4.12
4.40
4.61
5.07
5.79
6.41
6.35
5.20
3.05
0.51
-1.57
-2.60
-2.51
-1.77
-0.94
-0.44
-0.24
-0.11
0.07
0.17
-0.13
-1.08
-2.67
-4.59
-6.46
-8.06
-9.40
-10.59
-11.59
-12.19
-11.96
-10.64
-8.23
-5.05
-1.64
1.46
3.92
5.63
6.76
7.52
8.12
8.54
8.71
8.47
7.84
7.01
6.33
6.02
6.09
6.41
6.75
7.08
7.55
8.30
9.30
10.16
10.38
9.67
8.10
6.24
4.69
3.82
3.43
2.94
1.67
-0.77
-4.32
-8.57
-13.07
-17.52
-21.72
-25.47
-28.33
-29.70
-29.08
-26.49
-22.59
-18.64
-15.94
-15.25
-16.35
-18.10
-19.01
-17.99
-14.85
-10.24
-5.31
-1.01
2.26
4.70
6.75
8.75
10.77
12.63
14.19
15.44
16.49
17.42
18.12
18.24
17.35
15.27
12.25
9.01
6.45
5.25
5.56
6.85
8.20
8.71
8.03
6.36
4.30
2.49
1.30
0.79
0.82
1.24
1.94
2.89
3.89
4.60
4.58
3.61
1.79
-0.43
-2.40
-3.64
-3.96
-3.65
-3.24
-3.34
-4.32
-6.20
-8.62
-10.92
-12.45
-12.74
-11.71
-9.63
-6.95
-4.16
-1.49
1.12
3.87
6.89
9.91
12.35
13.46
12.69
9.89
5.46
0.12
-5.19
-9.54
-12.02
-11.97
-9.11
-3.91
2.34
7.92
11.15
11.20
8.48
4.34
0.53
-1.76
-2.21
-1.36
-0.02
1.28
2.49
4.01
6.06
8.40
10.28
10.78
9.34
6.17
2.29
-0.95
-2.40
-1.81
-0.01
1.38
0.69
-3.03
-9.31
-16.42
-21.89
-23.59
-20.75
-14.25
-6.32
0.53
4.57
5.53
4.44
2.95
2.35
3.00
4.34
5.48
5.80
5.28
4.36
3.49
2.84
2.25
1.52
0.73
0.41
1.26
3.75
7.75
12.41
16.46
18.76
18.79
16.82
13.74
10.56
8.05
6.53
5.94
6.06
6.60
7.26
7.68
7.41
6.16
3.81
0.63
-2.83
-5.96
-8.39
-10.07
-11.28
-12.40
-13.69
-15.31
-17.22
-19.21
-20.98
-22.09
-22.11
-20.78
-18.25
-15.12
-12.35
-10.83
-10.86
-12.06
-13.40
-13.75
-12.51
-9.88
-6.81
-4.48
-3.57
-3.95
-4.77
-4.91
-3.65
-1.03
2.28
5.28
7.34
8.42
9.09
9.99
11.49
13.39
14.94
15.42
14.38
12.06
9.14
6.49
4.72
3.94
3.77
3.56
2.81
1.34
-0.62
-2.73
-4.68
-6.44
-8.15
-9.97
-11.80
-13.16
-13.38
-11.93
-8.76
-4.42
0.18
4.08
6.75
8.08
8.47
8.38
8.21
8.19
8.37
8.80
9.46
10.28
11.03
11.35
10.88
9.46
7.34
5.17
3.71
3.55
4.76
6.79
8.69
9.52
8.72
6.33
2.97
-0.44
-3.09
-4.54
-4.85
-4.44
-3.83
-3.30
-2.87
-2.28
-1.22
0.36
2.25
3.95
4.83
4.41
2.44
-0.93
-5.26
-9.82
-13.79
-16.42
-17.14
-15.79
-12.67
-8.50
-4.29
-1.06
0.38
-0.15
-2.11
-4.31
-5.38
-4.35
-1.13
3.45
7.99
11.24
12.62
12.45
11.57
10.86
10.78
11.18
11.54
11.29
10.19
8.37
6.26
4.33
2.86
1.92
1.38
1.02
0.61
-0.03
-1.01
-2.44
-4.36
-6.65
-9.00
-10.92
-11.95
-11.99
-11.56
-11.67
-13.56
-17.97
-24.56
-31.78
-37.22
-38.60
-34.67
-25.82
-13.82
-1.14
9.94
18.07
23.16
26.52
30.76
39.41
55.78
81.42
114.63
149.87
178.85
193.12
187.27
160.88
118.48
67.38
15.03
-33.00
-73.46
-104.58
-125.35
-135.12
-134.30
-124.80
-110.01
-93.82
-79.26
-67.67
-58.58
-50.62
-42.37
-33.19
-23.33
-13.70
-5.37
0.75
4.18
5.19
4.61
3.58
3.23
4.23
6.61
9.88
13.26
15.96
17.43
17.30
15.48
12.27
8.35
4.77
2.59
2.52
4.62
8.21
12.16
15.40
17.34
18.01
17.96
17.74
17.60
17.38
16.77
15.52
13.83
12.15
10.93
10.31
9.92
9.12
7.38
4.72
1.81
-0.23
-0.39
1.72
5.71
10.54
14.92
17.80
18.71
17.90
16.14
14.38
13.32
13.05
13.03
12.34
10.22
6.44
1.44
-3.77
-8.10
-10.71
-11.35
-10.28
-8.12
-5.52
-3.00
-0.78
1.16
3.04
5.17
7.71
10.60
13.55
16.25
18.56
20.59
22.72
25.31
28.50
32.09
35.67
38.76
41.07
42.55
43.29
43.40
42.87
41.62
39.54
36.68
33.25
29.56
25.83
21.98
17.73
12.84
7.33
1.48
-4.44
-10.70
-18.34
-28.71
-42.83
-60.33
-79.46
-97.68
-112.90
-124.41
-132.92
-139.70
-145.25
-148.81
-148.75
-143.84
-134.39
-122.48
-111.08
-102.40
-96.70
-91.96
-84.73
-71.64
-50.82
-22.54
11.11
47.15
82.60
114.78
140.77
156.75
158.34
141.82
106.41
56.00
-0.91
-53.56
-92.88
-114.90
-121.93
-120.67
-118.55
-120.14
-125.82
-132.86
-137.90
-138.87
-135.46
-128.02
-116.29
-98.91
-74.40
-42.91
-7.32
26.82
53.03
66.41
65.85
54.73
39.93
29.36
28.81
39.87
59.30
80.49
96.10
100.39
90.58
66.64
30.27
-16.10
-69.49
-125.99
-180.09
-224.91
-253.55
-261.06
-246.34
-212.73
-167.29
-118.52
-73.93
-37.92
-11.09
8.95
25.94
43.05
61.77
81.72
101.38
118.80
132.46
141.62
146.34
147.47
146.43
144.89
144.38
145.95
149.86
155.65
162.23
168.09
171.68
171.61
166.95
157.58
144.36
129.12
114.27
102.21
94.62
91.97
93.39
96.99
100.55
102.22
101.03
97.01
91.01
84.25
77.91
72.73
68.87
65.89
62.99
59.31
54.19
47.36
38.87
29.08
18.52
7.88
-2.10
-10.76
-17.57
-22.41
-25.65
-28.14
-31.09
-35.59
-42.37
-51.48
-62.27
-73.57
-84.01
-92.41
-98.16
-101.24
-102.09
-101.31
-99.36
-96.25
-91.70
-85.38
-77.13
-67.18
-56.07
-44.56
-33.42
-23.34
-14.79
-8.01
-2.86
1.19
5.03
9.50
14.98
21.06
26.57
30.13
30.81
28.70
24.99
21.33
19.04
18.40
18.66
18.47
16.83
13.62
9.59
5.84
3.06
1.19
-0.44
-2.55
-5.40
-8.53
-11.02
-12.04
-11.29
-9.13
-6.45
-4.07
-2.60
-2.09
-2.18
-2.30
-1.97
-1.01
0.46
1.93
2.83
2.78
1.81
0.46
-0.45
-0.20
1.48
4.26
7.33
9.78
11.04
11.05
10.22
9.11
8.12
7.33
6.52
5.47
4.16
2.90
2.13
2.13
2.78
3.66
4.15
3.85
2.71
1.04
-0.59
-1.78
-2.34
-2.40
-2.24
-2.22
-2.55
-3.32
-4.44
-5.68
-6.79
-7.55
-7.84
-7.69
-7.33
-7.07
-7.28
-8.30
-10.25
-12.97
-16.00
-18.56
-19.85
-19.26
-16.56
-11.88
-5.81
0.94
7.67
13.71
18.54
21.72
22.99
22.40
20.42
17.88
15.75
14.83
15.42
17.23
19.53
21.43
22.28
21.88
20.43
18.43
16.38
14.65
13.39
12.52
11.81
10.87
9.27
6.65
2.88
-1.89
-7.26
-12.69
-17.56
-21.34
-23.53
-23.77
-21.89
-18.05
-12.73
-6.71
-0.78
4.49
8.85
12.37
15.31
17.91
20.23
22.16
23.47
23.95
23.57
22.48
20.95
19.26
17.58
15.95
14.34
12.84
11.65
10.98
10.94
11.25
11.42
10.88
9.36
6.98
4.28
1.88
0.24
-0.56
-0.78
-0.87
-1.24
-2.13
-3.56
-5.33
-7.08
-8.41
-8.98
-8.57
-7.21
-5.16
-2.89
-0.94
0.23
0.34
-0.56
-2.06
-3.46
-4.01
-3.15
-0.82
2.55
6.11
8.99
10.55
10.67
9.72
8.38
7.28
6.83
7.03
7.54
7.88
7.64
6.68
5.27
3.83
2.82
2.45
2.54
2.70
2.56
2.02
1.32
0.86
0.86
1.22
1.59
1.51
0.74
-0.61
-2.18
-3.50
-4.25
-4.33
-3.83
-2.97
-2.06
-1.39
-1.20
-1.66
-2.66
-3.97
-5.22
-6.06
-6.30
-5.99
-5.28
-4.43
-3.64
-2.89
-2.02
-0.67
1.42
4.23
7.27
9.59
10.18
8.38
4.34
-0.97
-6.07
-9.56
-10.70
-9.62
-7.17
-4.46
-2.43
-1.59
-2.04
-3.61
-6.02
-9.01
-12.31
-15.64
-18.67
-21.09
-22.60
-22.98
-22.16
-20.30
-17.80
-15.13
-12.72
-10.84
-9.48
-8.48
-7.57
-6.52
-5.12
-3.26
-0.91
1.70
3.95
4.86
3.43
-0.97
-8.09
-16.79
-25.26
-31.71
-34.96
-34.79
-31.92
-27.52
-22.80
-18.59
-15.32
-13.03
-11.54
-10.65
-10.13
-9.77
-9.45
-9.04
-8.50
-7.85
-7.19
-6.63
-6.28
-6.12
-6.01
-5.66
-4.78
-3.12
-0.68
2.21
5.02
7.08
7.94
7.47
5.96
4.03
2.37
1.50
1.51
2.07
2.52
2.26
1.03
-0.93
-2.98
-4.50
-5.10
-4.92
-4.45
-4.24
-4.55
-5.22
-5.81
-5.96
-5.63
-5.07
-4.64
-4.50
-4.57
-4.54
-4.06
-3.04
-1.63
-0.21
0.89
1.43
1.44
1.13
0.80
0.81
1.42
2.80
4.98
7.86
11.11
14.30
16.83
18.03
17.38
14.66
10.19
4.79
-0.47
-4.61
-6.97
-7.35
-6.03
-3.53
-0.51
2.34
4.34
4.92
3.72
0.86
-3.07
-7.10
-10.07
-11.10
-9.77
-6.33
-1.66
3.03
6.61
8.28
7.79
5.51
2.13
-1.50
-4.65
-6.84
-7.88
-7.80
-6.87
-5.45
-3.87
-2.44
-1.29
-0.40
0.30
0.93
1.60
2.30
3.05
3.90
4.89
6.03
7.29
8.55
9.64
10.38
10.51
9.79
8.04
5.21
1.56
-2.42
-6.14
-9.07
-10.93
-11.75
-11.84
-11.59
-11.39
-11.55
-12.16
-13.19
-14.31
-15.05
-14.84
-13.26
-10.22
-6.08
-1.50
2.70
5.78
7.29
7.11
5.45
2.85
-0.02
-2.50
-4.00
-4.23
-3.20
-1.23
1.15
3.35
4.88
5.48
5.20
4.32
3.33
2.63
2.53
3.06
4.01
5.12
6.08
6.68
6.73
6.10
4.70
2.61
0.12
-2.34
-4.35
-5.65
-6.25
-6.35
-6.29
-6.31
-6.55
-7.13
-8.17
-9.84
-12.18
-14.95
-17.57
-19.25
-19.39
-17.86
-15.13
-12.03
-9.36
-7.57
-6.58
-5.94
-5.24
-4.36
-3.47
-2.94
-2.99
-3.60
-4.49
-5.27
-5.60
-5.28
-4.36
-2.98
-1.41
0.12
1.37
2.20
2.57
2.57
2.37
2.11
1.91
1.68
1.32
0.74
-0.09
-1.09
-2.16
-3.24
-4.31
-5.37
-6.43
-7.42
-8.20
-8.68
-8.82
-8.74
-8.64
-8.73
-9.14
-9.85
-10.68
-11.23
-11.06
-9.81
-7.38
-4.03
-0.34
3.02
5.46
6.81
7.29
7.31
7.39
7.74
8.35
8.99
9.43
9.54
9.39
9.13
8.86
8.57
8.19
7.66
7.04
6.41
5.86
5.39
4.92
4.34
3.66
2.96
2.44
2.19
2.16
2.14
1.86
1.12
-0.14
-1.85
-3.89
-6.03
-8.08
-9.80
-11.02
-11.63
-11.63
-11.21
-10.68
-10.43
-10.71
-11.45
-12.14
-12.06
-10.52
-7.32
-2.97
1.45
4.77
6.30
6.20
5.30
4.69
5.07
6.50
8.51
10.47
11.99
12.99
13.62
14.01
14.16
13.95
13.38
12.54
11.69
11.01
10.49
9.94
9.15
8.01
6.60
5.13
3.83
2.83
2.14
1.69
1.42
1.34
1.47
1.83
2.36
2.88
3.18
3.01
2.28
1.01
-0.60
-2.35
-4.03
-5.62
-7.27
-9.09
-11.11
-13.02
-14.39
-14.75
-13.94
-12.18
-9.99
-7.97
-6.46
-5.51
-4.85
-4.13
-3.15
-1.87
-0.44
0.95
2.17
3.25
4.29
5.40
6.64
7.93
9.17
10.23
11.03
11.53
11.68
11.37
10.52
9.22
7.72
6.49
5.91
6.12
6.85
7.53
7.54
6.61
4.88
2.81
0.93
-0.50
-1.55
-2.52
-3.63
-4.99
-6.59
-8.46
-10.79
-13.79
-17.51
-21.61
-25.29
-27.54
-27.55
-25.15
-20.80
-15.45
-10.02
-5.07
-0.71
3.30
7.17
10.88
14.05
16.24
17.14
16.87
15.90
14.88
14.37
14.60
15.40
16.35
17.01
17.12
16.73
16.04
15.31
14.66
14.07
13.41
12.55
11.47
10.23
8.90
7.49
6.01
4.44
2.84
1.35
0.09
-0.91
-1.74
-2.60
-3.66
-5.01
-6.64
-8.52
-10.69
-13.25
-16.22
-19.42
-22.36
-24.39
-24.90
-23.61
-20.69
-16.67
-12.17
-7.77
-3.76
-0.22
2.91
5.72
8.22
10.38
12.14
13.52
14.67
15.84
17.28
19.08
21.10
22.92
24.07
24.27
23.53
22.24
20.86
19.70
18.73
17.66
16.21
14.38
12.49
10.95
10.04
9.62
9.22
8.33
6.72
4.63
2.64
1.29
0.79
0.90
1.03
0.62
-0.67
-2.87
-5.83
-9.34
-13.16
-16.98
-20.36
-22.78
-23.79
-23.24
-21.45
-19.04
-16.69
-14.78
-13.32
-11.97
-10.33
-8.11
-5.37
-2.41
0.35
2.67
4.54
6.19
8.02
10.28
13.03
16.03
18.89
21.26
23.05
24.37
25.53
26.89
28.62
30.76
33.11
35.45
37.55
39.27
40.68
42.05
43.74
46.11
49.25
52.95
56.76
60.15
62.87
65.14
67.67
71.46
77.37
85.66
95.74
106.24
115.43
121.97
125.57
127.30
129.33
134.16
143.57
157.82
175.39
193.29
207.84
215.78
215.07
205.60
189.12
168.55
146.70
125.11
103.29
79.22
50.88
17.94
-17.27
-50.25
-76.08
-91.74
-97.38
-96.38
-93.93
-95.55
-105.37
-125.10
-153.55
-186.56
-217.55
-238.80
-243.74
-229.67
-199.60
-162.29
-129.66
-112.94
-118.80
-147.60
-194.19
-251.07
-311.78
-372.63
-431.88
-487.29
-534.08
-564.93
-572.62
-553.63
-510.88
-453.18
-391.92
-336.71
-292.23
-258.02
-230.29
-205.27
-181.29
-158.94
-139.69
-124.14
-111.12
-98.09
-82.26
-61.89
-36.93
-8.96
19.88
47.91
74.75
101.41
129.57
160.33
193.21
225.72
254.19
275.17
286.83
289.64
285.99
278.94
270.89
262.88
254.64
245.43
234.83
223.17
211.25
199.82
189.03
178.41
167.20
154.90
141.60
128.06
115.39
104.54
95.97
89.47
84.35
79.74
74.88
69.23
62.56
54.93
46.71
38.55
31.23
25.49
21.73
19.90
19.48
19.74
20.03
20.00
19.63
19.11
18.62
18.20
17.72
16.97
15.78
14.09
11.98
9.71
7.56
5.80
4.62
4.02
3.89
4.03
4.28
4.50
4.67
4.79
4.82
4.76
4.57
4.30
4.04
3.87
3.73
3.52
3.08
2.31
1.27
0.11
-1.00
-2.00
-2.92
-3.86
-4.88
-5.97
-7.18
-8.57
-10.30
-12.39
-14.66
-16.60
-17.56
-17.01
-14.82
-11.35
-7.34
-3.61
-0.71
1.20
2.30
2.90
3.24
3.38
3.26
2.80
2.11
1.40
1.05
1.34
2.34
3.86
5.55
6.99
7.89
8.20
8.02
7.57
6.98
6.35
5.67
4.97
4.29
3.66
3.16
2.75
2.38
1.97
1.48
0.86
0.11
-0.81
-1.95
-3.32
-4.93
-6.79
-8.90
-11.31
-14.12
-17.31
-20.75
-24.00
-26.38
-27.26
-26.22
-23.32
-19.14
-14.52
-10.17
-6.49
-3.47
-0.89
1.39
3.40
4.97
5.98
6.44
6.63
6.83
7.29
8.09
9.10
10.14
11.04
11.64
11.89
11.79
11.36
10.69
9.80
8.67
7.31
5.68
3.84
1.90
0.02
-1.72
-3.24
-4.58
-5.77
-6.82
-7.74
-8.56
-9.39
-10.34
-11.51
-12.86
-14.35
-15.96
-17.77
-19.89
-22.31
-24.78
-26.69
-27.35
-26.23
-23.27
-18.96
-14.11
-9.57
-5.83
-2.98
-0.81
0.99
2.65
4.20
5.54
6.56
7.18
7.48
7.61
7.81
8.21
8.85
9.63
10.27
10.53
10.22
9.44
8.46
7.59
7.01
6.68
6.41
5.91
5.08
3.97
2.82
1.84
1.10
0.52
-0.11
-0.91
-1.99
-3.27
-4.69
-6.16
-7.68
-9.28
-11.04
-13.12
-15.61
-18.49
-21.42
-23.79
-24.85
-24.13
-21.61
-17.83
-13.68
-9.98
-7.18
-5.25
-3.86
-2.69
-1.60
-0.68
-0.06
0.25
0.45
0.91
1.89
3.55
5.69
7.96
9.92
11.31
12.10
12.52
12.85
13.30
13.87
14.38
14.61
14.43
13.87
13.07
12.19
11.31
10.38
9.37
8.19
6.82
5.29
3.72
2.22
0.90
-0.22
-1.27
-2.44
-3.92
-5.88
-8.37
-11.31
-14.51
-17.68
-20.42
-22.29
-22.97
-22.31
-20.43
-17.72
-14.70
-11.77
-9.12
-6.73
-4.47
-2.17
0.18
2.51
4.63
6.31
7.47
8.08
8.33
8.41
8.55
8.80
9.09
9.26
9.23
9.10
9.06
9.34
9.96
10.71
11.23
11.22
10.61
9.60
8.55
7.74
7.26
6.98
6.66
6.05
5.00
3.58
1.91
0.26
-1.21
-2.40
-3.38
-4.33
-5.51
-7.07
-9.12
-11.58
-14.17
-16.51
-18.06
-18.36
-17.17
-14.59
-11.18
-7.66
-4.70
-2.62
-1.31
-0.40
0.48
1.47
2.47
3.26
3.67
3.83
3.98
4.47
5.44
6.87
8.50
9.97
11.04
11.58
11.77
11.87
12.11
12.63
13.33
13.99
14.36
14.25
13.60
12.52
11.22
10.01
9.20
8.94
9.23
9.80
10.24
10.17
9.40
7.98
6.21
4.41
2.74
1.21
-0.42
-2.39
-4.84
-7.70
-10.65
-13.22
-14.94
-15.53
-14.93
-13.29
-10.90
-7.98
-4.72
-1.25
2.24
5.46
7.99
9.44
9.57
8.44
6.43
4.09
2.06
0.85
0.64
1.32
2.56
3.88
4.89
5.37
5.38
5.15
4.96
4.98
5.19
5.48
5.65
5.50
4.91
3.87
2.48
0.91
-0.68
-2.13
-3.43
-4.59
-5.70
-6.82
-7.92
-8.92
-9.77
-10.43
-10.96
-11.44
-11.99
-12.70
-13.66
-14.93
-16.52
-18.30
-19.92
-20.93
-20.89
-19.55
-17.02
-13.64
-9.98
-6.51
-3.48
-0.97
1.14
2.98
4.68
6.23
7.56
8.58
9.22
9.53
9.70
9.97
10.56
11.53
12.69
13.77
14.54
14.87
14.81
14.50
14.08
13.70
13.45
13.42
13.72
14.36
15.21
16.00
16.41
16.21
15.40
14.17
12.79
11.54
10.51
9.54
8.41
6.88
4.89
2.55
0.11
-2.22
-4.35
-6.30
-8.19
-10.11
-12.12
-14.26
-16.57
-19.08
-21.73
-24.29
-26.39
-27.54
-27.34
-25.67
-22.80
-19.20
-15.42
-11.89
-8.83
-6.27
-4.15
-2.35
-0.81
0.46
1.46
2.19
2.73
3.21
3.83
4.67
5.74
6.95
8.11
9.08
9.82
10.39
10.89
11.43
12.00
12.54
12.94
13.07
12.88
12.38
11.69
10.97
10.41
10.05
9.86
9.70
9.46
9.11
8.69
8.31
8.06
7.95
7.89
7.76
7.45
6.90
6.04
4.83
3.24
1.31
-0.85
-3.08
-5.23
-7.26
-9.17
-11.04
-13.00
-15.21
-17.75
-20.66
-23.80
-26.80
-29.14
-30.20
-29.55
-27.15
-23.37
-18.82
-14.18
-9.92
-6.29
-3.30
-0.88
1.06
2.58
3.76
4.69
5.42
5.99
6.41
6.68
6.86
7.07
7.39
7.94
8.73
9.70
10.78
11.88
12.90
13.74
14.32
14.54
14.38
13.84
12.93
11.75
10.43
9.11
7.93
6.98
6.27
5.74
5.28
4.81
4.37
4.06
3.98
4.17
4.47
4.64
4.40
3.63
2.36
0.80
-0.87
-2.56
-4.29
-6.16
-8.22
-10.37
-12.36
-13.98
-15.09
-15.83
-16.51
-17.49
-19.02
-21.12
-23.47
-25.51
-26.62
-26.27
-24.27
-20.82
-16.44
-11.78
-7.42
-3.72
-0.81
1.41
3.11
4.49
5.64
6.54
7.17
7.49
7.56
7.52
7.56
7.82
8.37
9.11
9.86
10.50
10.99
11.35
11.62
11.78
11.75
11.44
10.81
9.94
9.00
8.17
7.56
7.17
6.90
6.69
6.54
6.53
6.77
7.28
7.92
8.44
8.60
8.23
7.34
6.10
4.73
3.41
2.19
0.94
-0.53
-2.37
-4.59
-7.01
-9.32
-11.23
-12.54
-13.28
-13.68
-14.06
-14.75
-15.90
-17.56
-19.63
-21.91
-24.11
-25.82
-26.61
-26.12
-24.16
-20.89
-16.74
-12.29
-8.12
-4.63
-1.95
-0.04
1.30
2.26
2.91
3.29
3.39
3.22
2.90
2.64
2.65
3.11
4.07
5.31
6.58
7.59
8.24
8.58
8.76
8.89
9.01
9.02
8.78
8.20
7.34
6.33
5.42
4.77
4.51
4.66
5.13
5.70
6.11
6.10
5.53
4.45
3.11
1.81
0.80
0.15
-0.23
-0.50
-0.80
-1.20
-1.65
-2.06
-2.38
-2.63
-2.90
-3.36
-4.22
-5.68
-7.87
-10.78
-14.16
-17.54
-20.34
-22.00
-22.16
-20.76
-18.02
-14.37
-10.32
-6.29
-2.64
0.41
2.73
4.31
5.17
5.44
5.26
4.81
4.28
3.88
3.82
4.17
4.95
5.95
6.97
7.81
8.39
8.77
9.05
9.26
9.37
9.29
8.94
8.37
7.71
7.04
6.42
5.80
5.11
4.35
3.61
2.98
2.53
2.23
1.89
1.37
0.58
-0.44
-1.57
-2.65
-3.64
-4.58
-5.57
-6.67
-7.84
-9.00
-10.09
-11.13
-12.31
-13.78
-15.63
-17.64
-19.34
-20.18
-19.79
-18.11
-15.37
-12.05
-8.61
-5.38
-2.59
-0.35
1.30
2.32
2.76
2.74
2.43
1.99
1.60
1.33
1.28
1.51
2.08
3.02
4.27
5.70
7.06
8.16
8.86
9.15
9.12
8.91
8.68
8.47
8.25
7.91
7.32
6.43
5.32
4.12
3.03
2.22
1.68
1.31
0.95
0.43
-0.33
-1.32
-2.44
-3.64
-4.79
-5.84
-6.74
-7.45
-7.95
-8.39
-9.05
-10.27
-12.34
-15.27
-18.69
-21.96
-24.32
-25.23
-24.56
-22.54
-19.66
-16.40
-13.07
-9.86
-6.83
-4.06
-1.69
0.14
1.40
2.18
2.66
3.06
3.57
4.35
5.50
6.98
8.62
10.12
11.21
11.77
11.92
11.92
12.08
12.49
13.08
13.62
13.86
13.72
13.21
12.45
11.54
10.54
9.49
8.45
7.56
6.91
6.49
6.17
5.76
5.08
4.03
2.59
0.85
-1.07
-3.02
-4.86
-6.50
-7.87
-9.01
-10.06
-11.31
-12.98
-15.22
-17.96
-20.89
-23.57
-25.52
-26.32
-25.78
-23.92
-21.00
-17.40
-13.49
-9.57
-5.79
-2.28
0.87
3.50
5.47
6.71
7.24
7.23
6.92
6.62
6.54
6.85
7.52
8.42
9.39
10.26
10.96
11.55
12.15
12.84
13.58
14.21
14.51
14.34
13.66
12.55
11.20
9.77
8.45
7.35
6.60
6.24
6.23
6.47
6.77
7.01
7.06
6.98
6.77
6.42
5.83
4.86
3.42
1.49
-0.76
-3.07
-5.18
-6.93
-8.32
-9.44
-10.48
-11.57
-12.77
-14.09
-15.52
-17.02
-18.49
-19.71
-20.35
-20.07
-18.63
-16.08
-12.76
-9.21
-5.89
-3.10
-0.87
0.94
2.39
3.56
4.44
5.05
5.48
5.89
6.43
7.14
7.97
8.79
9.52
10.15
10.70
11.21
11.70
12.12
12.44
12.62
12.59
12.28
11.62
10.63
9.39
8.03
6.72
5.66
4.92
4.54
4.44
4.56
4.87
5.31
5.86
6.40
6.83
7.03
6.94
6.56
5.97
5.26
4.48
3.64
2.65
1.40
-0.17
-2.02
-4.08
-6.18
-8.15
-9.82
-11.08
-11.92
-12.47
-12.97
-13.65
-14.73
-16.31
-18.20
-20.05
-21.38
-21.75
-20.94
-18.97
-16.08
-12.66
-9.15
-5.88
-3.10
-0.90
0.80
2.15
3.35
4.55
5.76
6.86
7.70
8.20
8.36
8.36
8.35
8.47
8.78
9.20
9.67
10.12
10.46
10.68
10.73
10.64
10.48
10.38
10.42
10.63
10.88
11.01
10.87
10.40
9.66
8.80
8.00
7.36
6.91
6.58
6.29
5.96
5.52
4.90
4.02
2.90
1.53
0.09
-1.27
-2.37
-3.19
-3.82
-4.44
-5.27
-6.37
-7.68
-9.03
-10.26
-11.25
-12.02
-12.66
-13.29
-14.10
-15.24
-16.76
-18.53
-20.24
-21.38
-21.50
-20.33
-17.93
-14.76
-11.35
-8.20
-5.56
-3.42
-1.68
-0.27
0.79
1.50
1.81
1.86
1.89
2.17
2.89
4.03
5.46
6.86
8.00
8.69
8.96
8.99
9.00
9.24
9.74
10.49
11.36
12.20
12.87
13.28
13.29
12.87
12.02
10.88
9.65
8.56
7.77
7.29
7.00
6.70
6.26
5.65
4.90
4.13
3.41
2.77
2.19
1.61
0.97
0.23
-0.63
-1.60
-2.65
-3.73
-4.80
-5.86
-6.94
-8.17
-9.71
-11.68
-14.05
-16.53
-18.66
-19.87
-19.78
-18.28
-15.63
-12.35
-9.00
-5.99
-3.47
-1.40
0.32
1.78
2.98
3.86
4.38
4.53
4.41
4.17
3.94
3.90
4.13
4.65
5.33
6.05
6.69
7.19
7.57
7.87
8.10
8.21
8.09
7.70
7.04
6.28
5.52
4.85
4.20
3.43
2.39
1.03
-0.52
-2.04
-3.28
-4.08
-4.42
-4.43
-4.35
-4.38
-4.69
-5.28
-6.14
-7.14
-8.19
-9.22
-10.21
-11.22
-12.29
-13.46
-14.79
-16.36
-18.18
-20.15
-22.04
-23.51
-24.22
-23.92
-22.55
-20.22
-17.23
-13.97
-10.83
-8.20
-6.37
-5.50
-5.54
-6.20
-7.10
-7.84
-8.18
-8.10
-7.83
-7.68
-7.93
-8.72
-10.00
-11.54
-13.05
-14.33
-15.37
-16.43
-17.80
-19.74
-22.26
-25.13
-28.01
-30.57
-32.71
-34.44
-35.86
-37.05
-38.21
-39.65
-41.58
-43.59
-44.13
-40.55
-29.87
-10.17
18.39
52.99
89.08
121.68
146.95
162.91
169.37
167.32
158.14
143.26
124.12
102.21
79.07
56.04
34.12
13.97
-3.99
-19.49
-32.31
-42.35
-49.65
-54.38
-56.86
-57.53
-56.85
-55.30
-53.38
-51.52
-50.03
-49.02
-48.38
-47.88
-47.18
-45.99
-44.11
-41.48
-38.16
-34.26
-29.90
-25.12
-20.02
-14.63
-9.01
-3.26
2.46
7.91
12.91
17.40
21.57
25.86
30.76
36.57
43.13
49.80
55.63
59.66
61.25
60.30
57.08
52.10
45.92
39.03
31.85
24.81
18.24
12.39
7.32
2.93
-0.97
-4.50
-7.71
-10.54
-12.94
-14.95
-16.68
-18.33
-20.07
-22.04
-24.26
-26.69
-29.18
-31.42
-33.05
-33.65
-32.95
-30.95
-27.94
-24.44
-21.03
-18.13
-15.84
-14.01
-12.28
-10.31
-7.96
-5.34
-2.66
-0.17
2.01
3.93
5.77
7.69
9.76
11.89
13.89
15.57
16.79
17.53
17.82
17.78
17.51
17.06
16.49
15.84
15.13
14.40
13.74
13.17
12.74
12.40
11.99
11.35
10.39
9.14
7.82
6.64
5.79
5.25
4.88
4.43
3.67
2.56
1.25
-0.04
-1.07
-1.78
-2.27
-2.68
-3.15
-3.68
-4.30
-5.09
-6.23
-7.93
-10.18
-12.68
-14.85
-16.12
-16.07
-14.78
-12.59
-10.05
-7.57
-5.37
-3.49
-1.85
-0.42
0.79
1.72
2.29
2.46
2.32
2.03
1.79
1.84
2.31
3.16
4.17
5.10
5.75
6.13
6.37
6.70
7.31
8.17
9.11
9.83
10.13
9.93
9.34
8.59
7.85
7.19
6.55
5.81
4.90
3.81
2.70
1.74
1.06
0.72
0.66
0.74
0.81
0.74
0.46
-0.00
-0.62
-1.23
-1.70
-1.97
-2.12
-2.31
-2.77
-3.64
-4.86
-6.21
-7.37
-8.06
-8.11
-7.50
-6.30
-4.68
-2.76
-0.74
1.17
2.70
3.63
3.87
3.50
2.82
2.15
1.82
1.99
2.63
3.63
4.81
6.02
7.15
8.17
9.00
9.59
9.92
9.97
9.82
9.56
9.35
9.31
9.56
10.03
10.57
10.95
10.98
10.63
9.96
9.20
8.51
8.03
7.68
7.28
6.63
5.54
3.96
1.90
-0.51
-3.07
-5.50
-7.52
-8.92
-9.63
-9.82
-9.83
-10.07
-10.86
-12.24
-13.98
-15.62
-16.69
-16.89
-16.24
-14.91
-13.26
-11.55
-9.93
-8.48
-7.15
-5.97
-4.97
-4.16
-3.51
-3.00
-2.57
-2.24
-1.98
-1.80
-1.56
-1.16
-0.50
0.39
1.34
2.09
2.50
2.51
2.23
1.85
1.45
1.09
0.74
0.40
0.16
0.08
0.19
0.43
0.73
0.92
0.99
0.93
0.82
0.71
0.56
0.24
-0.38
-1.37
-2.72
-4.27
-5.83
-7.24
-8.36
-9.21
-9.87
-10.40
-10.81
-11.11
-11.35
-11.65
-12.24
-13.22
-14.59
-16.04
-17.17
-17.53
-16.88
-15.25
-12.89
-10.19
-7.46
-5.00
-2.94
-1.31
-0.06
0.95
1.90
2.93
4.04
5.11
6.00
6.67
7.26
8.02
9.17
10.77
12.66
14.44
15.77
16.41
16.41
16.01
15.57
15.34
15.39
15.63
15.82
15.74
15.32
14.64
13.86
13.16
12.53
11.79
10.76
9.30
7.47
5.48
3.55
1.83
0.34
-1.01
-2.29
-3.51
-4.61
-5.54
-6.36
-7.24
-8.37
-9.87
-11.74
-13.77
-15.72
-17.41
-18.76
-19.83
-20.76
-21.65
-22.62
-23.78
-25.09
-26.40
-27.41
-27.64
-26.63
-24.17
-20.40
-15.77
-11.03
-6.81
-3.51
-1.22
0.29
1.32
2.14
2.88
3.50
3.84
3.80
3.38
2.76
2.22
1.99
2.19
2.73
3.41
4.06
4.65
5.25
5.94
6.75
7.55
8.16
8.49
8.55
8.44
8.26
7.98
7.50
6.77
5.84
4.84
4.02
3.51
3.30
3.27
3.25
3.20
3.12
3.08
3.09
3.10
2.93
2.44
1.56
0.41
-0.82
-1.95
-2.92
-3.87
-4.96
-6.36
-8.06
-9.86
-11.50
-12.76
-13.62
-14.24
-14.92
-15.93
-17.34
-18.95
-20.38
-21.11
-20.71
-19.03
-16.26
-12.86
-9.44
-6.47
-4.21
-2.68
-1.72
-1.11
-0.62
-0.11
0.57
1.47
2.56
3.69
4.74
5.60
6.25
6.78
7.26
7.75
8.24
8.68
9.03
9.30
9.49
9.56
9.42
9.03
8.40
7.64
6.86
6.14
5.50
4.87
4.18
3.45
2.77
2.25
1.96
1.83
1.74
1.54
1.14
0.53
-0.22
-0.99
-1.68
-2.22
-2.57
-2.69
-2.55
-2.15
-1.53
-0.85
-0.24
0.09
0.02
-0.49
-1.40
-2.67
-4.26
-6.15
-8.33
-10.74
-13.29
-15.73
-17.75
-18.96
-19.06
-17.97
-15.84
-13.05
-10.08
-7.35
-5.08
-3.26
-1.72
-0.27
1.20
2.60
3.81
4.67
5.16
5.38
5.59
5.99
6.72
7.70
8.67
9.31
9.43
9.09
8.51
8.05
7.95
8.22
8.72
9.20
9.50
9.58
9.56
9.55
9.57
9.54
9.31
8.76
7.89
6.83
5.78
4.86
4.10
3.46
2.81
2.10
1.32
0.60
0.03
-0.33
-0.52
-0.71
-1.04
-1.62
-2.45
-3.45
-4.50
-5.51
-6.45
-7.35
-8.34
-9.52
-11.01
-12.82
-14.84
-16.82
-18.44
-19.33
-19.19
-17.92
-15.64
-12.64
-9.35
-6.16
-3.37
-1.07
0.72
2.12
3.21
4.00
4.45
4.52
4.32
3.96
3.72
3.73
4.00
4.40
4.74
4.90
4.94
5.05
5.42
6.15
7.13
8.12
8.85
9.21
9.28
9.28
9.38
9.66
9.97
10.14
9.96
9.40
8.56
7.71
7.01
6.56
6.36
6.32
6.33
6.29
6.14
5.79
5.20
4.30
3.01
1.39
-0.48
-2.46
-4.40
-6.22
-7.92
-9.64
-11.54
-13.75
-16.21
-18.64
-20.63
-21.69
-21.48
-19.92
-17.19
-13.66
-9.81
-6.06
-2.79
-0.17
1.71
2.86
3.32
3.20
2.63
1.81
1.00
0.45
0.36
0.82
1.72
2.81
3.85
4.61
5.09
5.33
5.50
5.59
5.58
5.36
4.89
4.27
3.65
3.14
2.70
2.14
1.23
-0.11
-1.79
-3.50
-4.94
-5.95
-6.57
-7.04
-7.68
-8.74
-10.33
-12.37
-14.58
-16.44
-17.29
-16.57
-14.10
-10.21
-5.80
-2.03
0.12
0.24
-1.23
-3.32
-4.75
-4.41
-1.64
3.70
11.26
20.29
29.69
38.19
44.52
47.74
47.41
43.65
37.15
28.90
19.95
11.24
3.55
-2.55
-6.77
-9.11
-9.91
-9.75
-9.35
-9.30
-9.99
-11.38
-13.12
-14.60
-15.19
-14.52
-12.68
-10.14
-7.70
-6.06
-5.60
-6.23
-7.47
-8.76
-9.64
-9.86
-9.30
-7.95
-5.77
-2.77
0.87
4.74
8.26
10.87
12.20
12.21
11.14
9.39
7.39
5.46
3.78
2.38
1.16
-0.12
-1.78
-4.11
-7.11
-10.48
-13.63
-15.85
-16.60
-15.65
-13.22
-9.79
-5.95
-2.19
1.14
3.84
5.90
7.34
8.34
9.05
9.63
10.15
10.59
10.89
11.05
11.18
11.45
12.02
12.88
13.92
14.88
15.56
15.92
16.09
16.28
16.58
16.94
17.13
16.94
16.25
15.12
13.70
12.22
10.81
9.50
8.30
7.26
6.39
5.66
4.97
4.12
2.97
1.49
-0.21
-1.89
-3.34
-4.45
-5.33
-6.17
-7.17
-8.46
-9.98
-11.71
-13.60
-15.67
-17.90
-20.14
-22.05
-23.17
-23.07
-21.57
-18.89
-15.52
-12.13
-9.23
-7.02
-5.44
-4.26
-3.27
-2.36
-1.59
-0.98
-0.60
-0.43
-0.37
-0.30
-0.19
-0.04
0.14
0.26
0.34
0.45
0.76
1.49
2.84
4.84
7.34
10.07
12.71
15.06
17.08
18.78
20.15
21.07
21.34
20.85
19.64
17.94
16.06
14.30
12.75
11.35
9.92
8.37
6.68
5.02
3.50
2.23
1.24
0.37
-0.55
-1.75
-3.45
-5.76
-8.52
-11.46
-14.11
-16.02
-16.86
-16.49
-15.04
-12.81
-10.23
-7.69
-5.52
-3.90
-2.90
-2.41
-2.20
-2.06
-1.78
-1.28
-0.51
0.47
1.60
2.75
3.78
4.62
5.23
5.68
6.10
6.60
7.19
7.83
8.33
8.45
8.02
6.91
5.11
2.77
0.14
-2.41
-4.44
-5.74
-6.39
-6.78
-7.53
-9.14
-11.80
-15.18
-18.68
-21.56
-23.34
-24.00
-23.94
-24.05
-25.28
-28.50
-33.88
-40.48
-46.04
-47.33
-41.11
-25.20
0.41
33.52
70.04
104.94
133.34
151.36
156.81
149.55
131.46
106.03
77.64
50.53
27.94
11.65
1.94
-1.97
-1.54
1.55
5.51
8.82
10.46
10.07
8.03
5.09
1.96
-0.97
-3.68
-6.34
-9.08
-11.83
-14.52
-16.99
-19.25
-21.37
-23.40
-25.24
-26.73
-27.67
-28.01
-27.90
-27.58
-27.27
-27.03
-26.81
-26.47
-25.98
-25.42
-24.93
-24.68
-24.71
-24.96
-25.31
-25.66
-26.01
-26.33
-26.57
-26.48
-25.76
-24.13
-21.51
-18.09
-14.25
-10.46
-7.11
-4.39
-2.28
-0.68
0.59
1.60
2.39
2.98
3.37
3.60
3.69
3.77
3.91
4.25
4.81
5.46
6.02
6.29
6.19
5.75
5.18
4.62
4.14
3.71
3.17
2.48
1.66
0.83
0.07
-0.62
-1.38
-2.33
-3.46
-4.62
-5.54
-6.05
-6.11
-5.99
-6.02
-6.50
-7.50
-8.79
-10.06
-10.97
-11.44
-11.53
-11.47
-11.53
-11.91
-12.69
-13.73
-14.82
-15.58
-15.72
-15.02
-13.43
-11.12
-8.33
-5.40
-2.55
0.00
2.19
3.91
5.16
5.95
6.38
6.58
6.62
6.65
6.69
6.81
7.12
7.61
8.26
8.96
9.60
10.07
10.38
10.50
10.48
10.27
9.79
9.01
8.00
6.95
6.06
5.47
5.15
4.98
4.81
4.49
4.03
3.54
3.12
2.87
2.78
2.80
2.78
2.60
2.10
1.28
0.14
-1.26
-2.79
-4.37
-5.92
-7.43
-8.90
-10.45
-12.11
-13.95
-15.95
-17.96
-19.67
-20.72
-20.74
-19.51
-17.12
-13.85
-10.17
-6.58
-3.42
-0.82
1.25
2.95
4.37
5.57
6.48
7.04
7.20
7.04
6.71
6.40
6.28
6.39
6.66
6.95
7.18
7.33
7.54
7.90
8.42
8.97
9.33
9.30
8.80
7.98
7.10
6.43
6.05
5.86
5.63
5.13
4.28
3.19
2.03
1.03
0.26
-0.28
-0.67
-0.99
-1.31
-1.66
-2.11
-2.69
-3.42
-4.26
-5.16
-6.08
-7.03
-8.08
-9.29
-10.68
-12.17
-13.61
-14.79
-15.48
-15.50
