1680166466.00
64.000000
-0.00
-0.00
-0.00
-0.00
-0.00
-0.00
-0.00
-0.00
-0.00
-0.00
0.00
0.01
0.01
-0.00
-0.03
-0.05
-0.05
0.00
0.13
0.36
0.66
1.01
1.37
1.72
2.06
2.40
2.79
3.24
3.80
4.42
5.06
5.66
6.20
6.68
7.15
7.68
8.31
9.14
10.09
11.04
11.88
12.56
13.14
13.76
14.65
15.96
17.91
20.32
22.90
25.38
27.58
29.57
31.68
34.32
37.81
42.54
48.15
54.10
59.83
64.97
69.58
74.14
79.34
85.71
93.76
103.00
112.62
121.73
129.77
136.75
143.30
150.75
157.77
166.64
177.95
191.79
206.97
220.57
228.25
225.36
208.53
176.87
132.76
80.05
23.07
-34.94
-92.44
-149.16
-205.23
-260.37
-313.74
-363.87
-409.83
-450.91
-486.50
-515.74
-537.23
-549.22
-549.96
-538.37
-514.21
-478.67
-433.88
-382.45
-327.02
-269.84
-212.63
-156.66
-102.95
-52.37
-5.90
35.58
71.43
101.35
125.50
144.38
158.69
169.15
176.37
180.75
182.59
182.10
179.55
175.31
169.76
163.32
156.35
149.09
141.70
134.23
126.68
119.07
111.42
103.80
96.31
89.05
82.13
75.57
69.39
63.53
57.94
52.57
47.41
42.50
37.92
33.75
30.03
26.73
23.76
20.98
18.29
15.66
13.17
11.00
9.34
8.34
7.93
7.88
7.85
7.44
6.52
5.22
3.96
3.25
3.48
4.63
6.25
7.61
7.96
7.01
5.09
3.01
1.78
2.13
4.09
6.90
9.33
10.08
8.54
5.01
0.55
-3.56
-6.28
-7.49
-7.94
-9.18
-13.21
-22.00
-37.05
-58.66
-84.80
-110.68
-129.70
-135.48
-124.26
-98.58
-65.82
-35.53
-15.20
-7.03
-7.44
-9.52
-6.78
3.50
19.36
36.25
49.83
58.38
63.60
69.37
79.18
94.85
115.64
137.82
158.00
172.25
176.27
165.80
139.06
96.85
45.92
-1.90
-33.60
-40.27
-22.13
10.90
43.29
60.68
56.31
33.14
1.00
-29.34
-51.19
-64.24
-72.68
-81.70
-94.45
-110.62
-126.75
-138.39
-141.56
-133.67
-114.65
-86.98
-54.62
-24.41
-2.11
9.70
12.04
7.65
-0.42
-10.15
-20.70
-31.74
-42.66
-51.91
-57.63
-58.62
-54.97
-47.85
-38.89
-29.68
-21.32
-14.40
-8.99
-5.01
-1.86
1.19
4.44
7.25
8.27
6.39
1.99
-3.14
-6.10
-4.00
4.44
18.09
33.82
47.60
56.24
58.68
56.11
51.29
47.92
49.40
57.49
71.45
87.35
98.77
98.17
79.13
38.69
-20.23
-88.87
-154.96
-206.43
-235.53
-240.63
-225.89
-197.63
-164.33
-133.26
-108.36
-90.13
-75.51
-61.73
-46.61
-27.86
-2.52
30.14
68.63
107.58
138.80
154.65
151.88
134.35
112.02
97.19
99.11
121.66
162.78
216.29
274.25
328.32
370.54
393.77
393.19
367.67
321.57
264.26
207.34
160.67
129.27
112.31
101.58
88.52
66.65
34.18
-5.82
-47.52
-85.39
-116.29
-139.75
-156.84
-168.26
-174.16
-174.33
-169.00
-159.32
-147.31
-135.13
-124.29
-115.36
-107.86
-100.89
-93.62
-85.50
-76.36
-66.50
-56.31
-46.33
-37.26
-29.74
-24.21
-20.70
-18.68
-17.14
-15.08
-12.11
-8.27
-4.56
-2.86
-4.74
-10.72
-19.75
-29.32
-36.82
-40.00
-38.31
-33.12
-27.55
-24.69
-27.05
-35.89
-50.89
-70.24
-89.67
-102.98
-100.94
-79.00
-38.63
11.39
57.10
84.26
84.15
58.05
14.83
-32.66
-73.07
-99.72
-111.66
-111.85
-101.41
-83.99
-62.02
-37.17
-11.45
11.92
29.47
39.09
41.14
38.35
34.07
31.74
32.90
36.96
41.60
44.33
43.69
39.85
34.44
29.29
26.25
26.02
28.06
30.87
32.90
33.23
31.89
29.71
27.61
26.53
26.79
28.16
30.00
31.67
32.84
33.57
34.13
34.73
35.51
36.43
37.39
38.38
39.48
40.78
42.29
43.72
44.45
43.68
40.63
35.03
27.14
17.72
7.63
-2.40
-12.10
-21.73
-31.29
-41.43
-52.11
-62.62
-71.76
-78.52
-82.19
-82.82
-81.14
-78.26
-75.62
-74.65
-77.05
-83.11
-91.68
-99.34
-100.97
-91.56
-68.75
-34.76
4.00
39.24
64.33
76.65
78.24
73.99
68.81
65.68
65.24
66.92
69.76
72.71
73.72
69.68
57.22
34.56
3.14
-32.35
-65.22
-89.75
-102.59
-103.94
-96.59
-84.07
-69.23
-53.71
-38.40
-24.01
-11.51
-1.75
4.85
8.55
10.30
11.20
11.99
12.67
12.69
11.30
8.01
2.96
-3.13
-8.86
-12.72
-13.69
-11.54
-6.85
-0.78
5.53
11.65
17.14
22.58
28.90
36.80
46.16
55.92
64.25
69.32
69.86
65.49
57.47
47.74
38.19
29.82
22.60
15.67
7.96
-1.51
-13.64
-28.70
-46.54
-65.90
-83.96
-96.46
-99.15
-89.82
-68.96
-42.85
-19.10
-3.96
0.16
-4.98
-14.98
-25.58
-34.50
-41.77
-48.69
-55.74
-62.26
-66.68
-67.67
-65.00
-59.70
-53.37
-47.43
-42.52
-37.38
-30.27
-19.63
-4.91
13.19
32.56
50.51
64.62
73.53
77.51
77.98
76.83
75.58
74.95
74.24
71.98
66.81
58.33
47.72
37.24
29.43
26.04
27.56
32.16
36.69
38.21
35.08
27.85
18.91
11.16
7.19
8.97
16.66
29.13
44.18
58.42
67.75
68.21
56.97
31.83
-1.88
-36.03
-63.13
-79.35
-85.85
-87.28
-88.44
-91.62
-94.33
-90.34
-74.11
-44.13
-4.31
37.12
71.25
93.91
103.77
103.65
98.22
90.48
80.56
66.73
47.23
21.11
-6.89
-31.39
-47.91
-54.66
-53.38
-47.93
-41.79
-37.10
-33.13
-26.88
-15.59
2.50
27.50
57.74
88.87
117.36
139.00
149.26
144.70
124.14
90.49
50.51
12.57
-16.52
-33.58
-40.01
-39.78
-36.71
-33.00
-28.74
-23.17
-16.27
-9.36
-4.26
-2.40
-3.72
-6.68
-9.30
-9.99
-8.35
-5.44
-2.89
-2.09
-3.58
-6.74
-9.96
-11.53
-10.62
-7.52
-3.71
-1.32
-2.20
-7.21
-15.87
-26.61
-37.42
-46.90
-54.19
-59.36
-63.03
-65.73
-67.53
-67.88
-66.07
-61.88
-56.08
-49.93
-45.08
-43.13
-45.23
-52.20
-64.65
-83.03
-103.83
-124.25
-138.72
-140.65
-125.41
-93.09
-49.30
-3.25
35.48
61.13
72.89
75.10
73.41
72.17
73.58
78.37
87.15
100.38
117.91
137.36
154.17
162.36
157.10
137.28
104.86
69.33
40.71
25.12
22.79
29.48
39.46
48.32
54.24
57.19
57.50
54.16
45.61
30.91
10.73
-12.83
-37.24
-60.42
-79.43
-94.48
-107.07
-118.63
-130.03
-141.62
-153.29
-164.23
-172.30
-173.96
-165.35
-143.98
-110.51
-69.29
-27.32
8.23
32.57
44.85
47.40
43.86
37.53
30.46
24.17
20.39
21.36
28.86
42.50
58.33
70.06
71.18
58.04
32.68
2.15
-24.09
-38.46
-38.37
-26.89
-10.93
2.01
6.47
0.97
-12.43
-29.15
-43.72
-51.28
-49.24
-38.16
-21.02
-4.58
5.36
6.15
-1.08
-12.80
-25.30
-36.41
-45.74
-53.74
-60.50
-64.85
-65.27
-60.91
-52.80
-42.87
-33.60
-26.96
-23.46
-22.29
-21.65
-19.86
-15.93
-10.13
-3.67
1.84
5.27
6.31
5.56
4.36
4.06
5.85
9.93
15.68
21.83
27.08
30.48
31.73
31.26
29.88
28.94
29.31
31.29
34.68
39.18
44.72
51.89
62.12
74.29
88.87
106.56
128.12
154.14
184.65
218.49
252.94
283.77
306.27
317.16
315.41
302.85
283.59
262.68
244.54
231.89
225.58
224.80
227.85
231.97
233.57
228.84
214.63
189.60
154.85
113.71
70.64
29.87
-6.09
-37.04
-64.75
-91.98
-121.28
-153.92
-189.23
-224.35
-254.72
-275.22
-281.62
-271.95
-247.44
-212.27
-172.38
-133.47
-99.11
-70.04
-44.73
-21.16
1.56
22.24
37.98
45.83
44.58
35.84
23.75
13.54
9.29
12.42
21.58
33.75
46.11
57.25
67.16
75.99
82.64
84.23
77.19
59.26
31.05
-3.83
-40.47
-74.85
-105.19
-131.72
-155.01
-174.52
-188.36
-194.56
-193.00
-186.40
-179.61
-177.36
-182.06
-192.55
-204.68
-213.37
-214.75
-207.64
-193.55
-175.65
-157.00
-139.30
-122.46
-105.20
-86.07
-64.47
-41.12
-17.78
3.58
21.61
36.04
47.46
56.76
64.41
70.32
74.14
75.99
76.91
78.68
83.02
90.65
100.79
111.44
120.27
125.67
127.32
126.11
123.66
121.64
121.42
123.62
127.85
132.24
133.37
126.84
108.67
77.17
34.28
-14.32
-60.75
-97.76
-121.07
-130.63
-130.08
-124.69
-119.20
-116.14
-115.54
-115.80
-115.19
-112.79
-108.62
-103.35
-97.67
-92.20
-87.64
-84.86
-84.79
-88.34
-95.55
-105.36
-115.84
-124.78
-130.77
-133.38
-132.81
-129.55
-124.76
-119.29
-113.81
-108.83
-104.13
-99.80
-95.43
-89.82
-81.66
-71.71
-61.56
-53.34
-48.94
-48.15
-51.06
-56.84
-63.65
-69.70
-75.98
-83.89
-94.58
-108.24
-122.22
-135.73
-148.18
-158.45
-165.51
-170.95
-175.49
-178.47
-178.09
-170.27
-155.69
-137.73
-120.46
-88.47
-33.59
44.00
134.44
208.19
260.06
290.62
300.88
296.54
280.55
253.81
219.16
181.23
145.25
117.55
98.70
86.24
77.44
70.47
63.68
57.53
53.54
53.11
58.27
67.14
76.60
84.05
88.09
87.80
83.88
78.12
72.93
71.47
74.25
79.72
84.58
85.13
78.51
64.57
46.05
27.48
14.05
8.69
11.86
21.48
34.82
49.63
64.43
77.68
86.88
88.81
80.49
60.75
30.33
-7.26
-46.71
-82.68
-111.42
-131.46
-143.55
-149.07
-142.40
-120.29
-83.88
-39.38
5.41
44.95
77.35
102.56
121.62
134.89
141.63
141.43
134.85
123.66
110.17
96.98
84.39
72.22
59.04
43.01
22.76
-2.67
-34.02
-71.93
-115.80
-163.93
-204.19
-225.79
-221.54
-190.61
-139.21
-78.15
-21.75
26.09
64.45
94.42
116.42
130.48
137.23
139.40
142.26
151.94
171.59
198.90
226.60
244.78
246.03
228.79
198.08
162.38
129.28
102.81
81.73
63.20
45.64
29.60
16.97
9.58
7.44
8.31
8.85
4.84
-5.39
-19.32
-33.30
-44.05
-49.74
-51.21
-51.92
-56.82
-72.60
-103.72
-149.51
-207.29
-272.02
-335.61
-388.78
-423.69
-436.55
-430.52
-411.86
-384.77
-353.81
-322.03
-289.30
-253.87
-214.02
-158.06
-86.05
-21.82
23.22
45.98
43.16
16.27
-27.05
-74.75
-114.62
-140.56
-152.12
-151.25
-144.02
-136.63
-131.61
-128.44
-125.62
-122.42
-120.41
-120.19
-118.30
-111.32
-97.05
-74.31
-43.82
-7.77
31.21
70.51
109.54
150.78
196.53
247.98
305.01
365.06
423.04
472.46
507.42
525.57
529.76
525.35
517.12
506.78
491.64
466.10
424.71
365.18
290.34
208.28
130.23
67.94
30.84
23.06
41.48
76.05
112.38
136.44
139.22
118.58
77.78
21.73
-46.02
-123.56
-208.26
-294.13
-371.38
-429.37
-461.20
-467.12
-454.43
-434.09
-415.67
-403.79
-397.68
-393.13
-385.99
-374.59
-360.00
-344.75
-330.62
-318.18
-306.03
-292.11
-274.78
-253.71
-229.89
-204.91
-180.18
-156.10
-132.63
-109.08
-84.87
-59.96
-34.97
-10.83
11.70
32.41
52.33
71.87
92.38
115.15
140.91
169.22
198.12
224.38
244.45
257.47
261.87
260.52
258.08
259.02
265.66
277.37
291.44
304.64
318.30
328.92
337.87
346.52
354.89
361.09
361.72
353.01
332.10
303.15
261.37
208.70
147.82
82.32
17.13
-41.22
-85.29
-108.73
-101.64
-72.80
-28.28
23.88
77.03
128.50
179.75
233.70
247.90
270.51
284.83
280.90
252.19
198.74
127.28
48.50
-26.86
-91.18
-134.05
-161.23
-172.47
-167.90
-148.21
-115.45
-73.25
-26.01
22.57
75.79
128.94
182.44
234.53
280.51
314.27
330.99
329.25
311.70
287.16
260.25
236.92
219.30
205.80
193.02
177.79
158.38
134.39
107.84
80.20
53.93
30.29
9.47
-8.51
-23.09
-33.00
-37.13
-49.49
-78.21
-122.57
-173.65
-220.38
-255.39
-276.60
-284.99
-283.29
-275.10
-261.87
-245.43
-227.83
-211.11
-196.46
-184.43
-174.36
-165.76
-158.99
-153.17
-148.74
-146.38
-146.66
-149.37
-154.57
-161.41
-169.47
-179.29
-190.87
-204.75
-221.97
-243.94
-266.11
-287.46
-305.45
-315.44
-312.11
-291.60
-254.68
-207.45
-159.04
-118.18
-90.54
-75.95
-70.31
-68.70
-68.01
-67.27
-67.16
-67.97
-69.13
-70.00
-69.59
-67.81
-65.76
-65.19
-67.68
-73.77
-82.19
-90.93
-98.37
-103.25
-105.28
-104.97
-103.07
-99.59
-97.07
-95.60
-94.32
-92.33
-88.86
-83.76
-77.44
-70.62
-63.84
-57.26
-50.00
-41.10
-29.93
-16.39
-1.06
14.88
30.13
43.66
55.03
64.90
74.24
83.86
94.03
104.28
113.53
120.54
124.54
125.53
124.71
123.76
124.23
126.98
131.87
138.07
144.54
150.76
157.15
165.08
176.44
193.10
216.57
247.50
285.09
326.56
367.04
400.27
420.29
423.21
408.60
379.33
340.15
295.53
248.04
197.86
143.63
84.15
19.90
-46.25
-109.46
-164.22
-205.86
-231.83
-242.35
-240.25
-230.23
-217.33
-205.75
-198.04
-195.22
-197.51
-204.86
-217.10
-233.21
-250.62
-265.14
-271.89
-267.15
-249.89
-222.30
-188.99
-154.91
-123.36
-95.16
-69.13
-43.41
-16.83
10.75
39.05
68.38
100.07
135.78
176.14
219.43
261.25
295.47
316.05
319.06
303.86
273.24
232.62
188.54
147.23
113.42
89.61
75.96
70.69
70.84
73.29
75.53
76.03
74.29
70.56
65.67
60.84
57.45
56.63
58.80
63.41
69.15
74.47
78.33
80.56
81.78
82.86
84.36
86.28
87.99
88.51
86.76
81.68
72.44
58.63
40.64
20.06
-0.26
-16.74
-26.13
-26.68
-18.83
-5.01
11.17
26.14
37.33
43.86
46.71
48.15
50.70
55.81
62.81
68.88
70.09
63.23
47.45
24.83
-0.59
-24.92
-46.19
-65.16
-84.82
-109.08
-141.40
-183.62
-235.02
-291.90
-347.74
-394.46
-424.71
-434.39
-424.06
-398.57
-364.93
-329.56
-296.35
-266.27
-238.47
-211.61
-184.91
-157.95
-130.35
-101.32
-69.87
-35.41
1.92
41.39
82.24
124.26
167.86
213.49
260.61
307.04
348.81
381.01
399.08
400.02
383.21
350.44
305.25
251.96
194.57
135.97
77.37
18.55
-41.28
-102.09
-161.87
-216.55
-261.01
-291.03
-305.07
-304.85
-294.60
-279.19
-262.09
-244.38
-224.98
-202.16
-175.04
-144.50
-112.80
-82.43
-54.56
-28.22
-0.41
32.71
74.05
123.79
178.37
230.82
272.14
293.69
289.58
258.63
205.17
138.33
70.17
12.83
-24.24
-36.44
-24.95
3.87
40.43
74.83
99.80
112.49
114.66
110.93
106.20
103.15
101.15
96.76
85.28
62.79
27.69
-18.52
-71.56
-125.25
-173.11
-209.71
-231.91
-239.11
-232.76
-215.30
-189.36
-157.64
-123.31
-90.41
-63.27
-45.10
-36.36
-34.06
-32.72
-26.86
-13.48
6.54
29.24
49.72
64.65
73.72
79.35
85.16
94.05
106.80
121.78
135.61
144.54
145.76
138.47
124.03
105.58
87.17
72.67
64.98
65.48
73.92
88.66
107.06
126.25
143.73
158.03
168.82
176.62
182.20
185.83
187.09
185.16
179.33
169.32
155.22
137.06
114.58
87.31
55.11
18.68
-20.18
-58.87
-94.71
-125.78
-151.53
-172.87
-191.79
-210.41
-230.14
-251.13
-272.18
-291.29
-306.38
-315.88
-319.03
-315.72
-306.27
-291.18
-271.18
-247.32
-220.96
-193.59
-166.50
-140.40
-115.44
-91.19
-66.96
-41.88
-15.08
14.11
45.85
79.22
111.97
140.66
161.50
171.52
169.79
157.83
139.13
118.24
99.46
86.04
79.88
81.55
90.28
104.08
119.97
134.60
145.13
150.04
149.40
144.70
138.17
132.11
128.25
127.30
128.55
129.86
127.99
119.64
102.80
77.89
48.10
18.40
-6.27
-22.93
-31.65
-35.53
-39.20
-46.85
-60.77
-80.52
-103.34
-125.45
-143.49
-155.47
-160.94
-160.40
-154.63
-144.41
-130.86
-115.92
-102.43
-93.26
-89.92
-91.51
-94.63
-94.73
-88.06
-73.29
-51.94
-27.31
-2.84
19.20
38.14
54.30
68.20
80.00
89.69
97.57
104.51
111.92
120.96
131.86
143.49
153.39
158.56
156.39
145.60
126.66
101.69
73.84
46.57
22.76
4.17
-8.84
-17.37
-23.68
-30.65
-40.85
-55.61
-74.14
-93.41
-108.86
-115.84
-111.39
-95.35
-70.47
-41.45
-13.27
10.37
27.78
39.18
45.91
49.48
50.96
50.97
49.94
48.48
47.22
46.51
45.89
44.08
39.32
30.38
17.24
1.37
-14.86
-29.08
-39.97
-47.75
-53.76
-59.79
-67.11
-76.01
-85.76
-94.68
-100.75
-101.93
-96.83
-85.23
-68.54
-49.50
-31.42
-17.08
-7.65
-2.44
0.59
3.93
9.47
17.97
29.07
41.36
52.66
60.31
61.77
55.65
42.76
26.41
11.68
3.59
4.93
15.11
30.43
45.71
56.55
60.96
59.54
54.66
48.85
43.86
40.40
38.68
38.99
42.04
48.70
59.51
74.25
91.90
111.01
130.20
148.35
164.45
177.15
184.47
183.88
173.11
151.04
118.55
78.51
35.21
-6.86
-44.27
-75.58
-101.51
-124.66
-148.73
-177.50
-213.36
-255.81
-300.54
-339.88
-364.78
-368.13
-347.39
-305.88
-251.40
-192.83
-136.43
-83.73
-32.17
21.86
79.70
138.57
192.06
232.27
252.82
250.93
228.06
189.21
141.52
92.89
51.06
22.55
11.08
16.75
35.78
61.73
87.32
106.32
114.89
111.97
98.75
77.12
49.26
17.20
-16.50
-49.01
-77.96
-102.16
-121.72
-134.42
-137.53
-129.56
-112.45
-90.05
-65.93
-42.34
-20.79
-2.70
10.52
16.93
16.16
8.28
-5.32
-22.50
-41.12
-60.12
-80.13
-103.36
-133.44
-170.42
-213.59
-259.76
-303.63
-338.41
-358.28
-359.96
-343.38
-311.29
-267.96
-218.52
-167.40
-118.08
-71.83
-29.13
9.81
44.82
76.00
104.00
129.42
152.77
174.03
194.16
213.55
231.87
248.33
262.48
274.66
285.36
294.79
292.23
270.50
228.77
173.47
114.47
60.30
16.04
-16.70
-38.71
-51.03
-55.48
-53.52
-46.40
-35.29
-20.97
-3.23
19.21
48.58
85.37
130.58
182.97
237.48
285.54
317.74
327.38
313.08
279.10
233.33
185.03
141.12
104.45
74.38
48.67
25.43
3.67
-17.06
-37.52
-58.39
-80.60
-104.94
-131.67
-160.09
-188.32
-213.85
-234.33
-248.38
-255.81
-257.63
-255.31
-250.03
-241.97
-230.54
-215.18
-196.31
-175.59
-155.39
-137.69
-123.17
-110.91
-99.15
-86.43
-72.64
-59.24
-48.61
-42.93
-42.93
-47.31
-53.19
-57.32
-57.69
-54.62
-50.64
-49.19
-52.60
-60.43
-69.20
-73.72
-69.50
-55.00
-32.62
-7.96
12.24
22.63
20.98
8.77
-9.53
-28.13
-41.67
-46.77
-42.74
-31.43
-16.37
-1.59
9.43
14.54
13.17
6.38
-3.40
-12.76
-18.14
-16.78
-7.75
7.72
26.61
45.28
60.83
71.98
79.12
83.67
87.21
90.69
94.33
97.87
101.01
103.63
105.74
107.26
107.90
107.20
104.72
100.39
94.61
88.16
82.02
77.03
73.68
71.98
71.50
71.39
70.70
68.64
64.79
59.34
52.96
46.58
40.94
36.35
32.69
29.52
26.31
22.46
17.40
10.59
1.74
-8.88
-20.37
-31.42
-40.51
-46.52
-48.99
-48.08
-44.30
-38.20
-30.49
-22.13
-14.55
-8.87
-5.66
-4.55
-4.35
-3.67
-1.49
2.19
6.36
9.15
9.43
6.95
2.35
-3.25
-8.96
-14.35
-19.72
-25.72
-33.37
-42.36
-51.33
-58.06
-60.35
-56.68
-46.69
-31.23
-11.93
4.98
13.56
10.05
-4.87
-26.68
-50.33
-72.45
-91.73
-106.10
-115.87
-119.73
-115.82
-103.01
-81.92
-54.77
-24.08
6.56
35.56
62.81
90.21
120.49
156.19
198.65
247.01
297.62
344.07
378.50
393.40
384.76
353.42
304.82
246.86
187.10
130.56
79.09
32.45
-10.47
-50.12
-86.47
-119.81
-151.59
-184.26
-220.31
-260.89
-304.58
-347.61
-384.47
-409.77
-419.98
-414.38
-394.90
-365.00
-328.46
-288.33
-246.99
-206.25
-167.72
-132.61
-101.29
-72.97
-45.81
-17.58
13.59
48.61
87.23
128.28
169.80
209.06
242.64
266.94
279.11
278.14
265.46
244.45
219.33
193.62
169.29
146.60
124.74
102.78
80.15
56.76
32.69
7.90
-17.79
-44.16
-70.20
-93.95
-113.02
-125.56
-131.14
-131.06
-127.77
-123.79
-120.56
-118.05
-115.19
-110.70
-103.97
-95.56
-86.94
-79.94
-76.11
-76.33
-80.51
-87.52
-95.17
-100.38
-99.88
-91.04
-72.67
-45.50
-11.74
25.70
64.21
102.25
139.53
176.77
215.14
255.52
297.69
339.91
379.07
411.51
434.24
445.87
446.80
438.59
422.75
400.03
370.48
334.33
293.01
249.41
207.15
169.21
136.77
108.94
83.66
59.04
34.38
10.45
-11.29
-29.61
-44.41
-56.85
-68.94
-82.80
-100.11
-121.98
-148.87
-180.40
-214.95
-249.33
-279.02
-299.22
-306.39
-299.65
-281.13
-255.04
-226.03
-197.71
-172.05
-149.87
-131.69
-118.31
-110.52
-108.39
-110.58
-114.35
-116.36
-113.99
-106.18
-93.67
-78.52
-62.90
-48.30
-35.05
-22.65
-10.26
2.73
16.40
30.32
43.75
55.97
66.41
74.91
81.63
86.96
91.27
94.71
96.92
97.07
94.23
87.76
77.72
64.86
50.42
35.59
21.15
7.28
-6.17
-19.33
-32.17
-44.45
-55.94
-66.64
-76.68
-86.07
-94.30
-100.36
-103.17
-102.34
-98.72
-94.31
-91.40
-91.40
-94.09
-97.71
-99.82
-98.45
-92.81
-83.26
-70.77
-56.59
-41.83
-27.72
-15.55
-6.29
-0.21
3.34
5.47
6.99
7.91
7.63
5.81
3.15
1.30
1.94
5.61
11.09
16.04
18.43
17.90
16.10
15.58
17.97
22.68
27.03
27.64
22.26
10.96
-4.09
-19.95
-34.24
-45.84
-54.86
-61.73
-66.62
-69.39
-70.11
-69.39
-68.54
-68.90
-71.20
-75.40
-81.21
-88.83
-99.23
-113.39
-131.09
-150.00
-165.97
-174.45
-172.41
-159.50
-138.02
-111.59
-83.59
-56.12
-29.90
-4.89
19.04
41.98
64.29
87.07
112.60
144.09
184.94
237.05
299.20
366.09
428.78
477.10
502.94
503.16
480.62
442.74
398.34
354.40
314.39
278.56
245.70
214.88
186.27
160.58
138.13
118.21
99.34
80.07
59.77
38.82
18.34
-0.50
-17.23
-32.22
-46.60
-61.93
-79.65
-100.60
-124.49
-149.70
-173.56
-193.28
-207.00
-214.64
-217.79
-218.93
-220.23
-222.65
-225.98
-229.38
-232.05
-233.23
-231.89
-226.38
-214.60
-195.08
-168.08
-136.01
-102.70
-72.29
-48.12
-32.53
-26.64
-30.09
-40.49
-53.08
-61.64
-60.65
-47.79
-25.34
0.55
22.79
36.59
41.28
39.73
35.74
31.24
25.46
15.96
1.19
-17.35
-35.02
-45.90
-45.64
-33.69
-13.83
7.82
25.55
36.32
40.43
39.91
36.33
29.33
16.83
-2.92
-29.24
-58.37
-84.65
-103.10
-112.03
-113.96
-114.51
-119.69
-132.79
-152.53
-174.05
-191.45
-200.51
-200.42
-193.47
-183.33
-172.95
-163.26
-152.85
-140.16
-125.04
-108.85
-93.50
-80.06
-67.97
-55.59
-41.21
-23.16
-1.69
21.45
44.23
65.71
86.70
109.63
137.80
174.12
220.58
275.02
330.46
376.72
404.15
407.18
386.36
347.93
294.03
231.90
170.70
117.94
76.40
44.98
21.36
3.89
-8.51
-17.15
-22.66
-26.42
-30.14
-35.26
-42.21
-50.61
-60.13
-70.75
-82.68
-95.20
-108.10
-121.51
-135.93
-151.39
-167.76
-185.10
-204.14
-226.18
-251.84
-280.71
-310.37
-336.13
-351.55
-351.19
-333.34
-301.12
-261.33
-221.28
-186.16
-157.05
-134.87
-118.31
-105.40
-94.85
-86.30
-79.70
-74.48
-69.56
-63.88
-57.22
-49.86
-42.69
-36.90
-33.12
-31.07
-29.63
-27.38
-23.28
-17.17
-9.46
-1.15
6.58
12.90
17.60
21.06
23.98
26.86
29.81
32.70
35.13
36.65
37.01
36.30
34.88
33.26
31.85
30.76
30.01
29.39
28.63
27.54
26.03
24.16
22.06
19.87
17.68
15.55
13.51
11.51
9.52
7.54
5.64
3.94
2.62
1.83
1.70
2.21
3.25
4.68
6.34
8.20
10.40
13.16
16.79
21.48
27.24
33.91
41.20
48.82
56.67
64.84
73.57
83.18
93.83
105.47
117.84
130.64
143.63
156.75
170.12
183.84
198.13
213.21
229.48
247.44
267.28
288.34
308.74
325.43
334.95
334.50
322.77
300.32
269.18
232.10
191.93
151.15
111.82
75.68
44.11
17.99
-2.48
-17.63
-28.03
-33.98
-35.31
-31.41
-21.54
-5.26
17.11
44.22
73.59
101.73
124.90
139.75
144.22
138.08
122.82
101.14
76.19
50.84
27.23
6.86
-9.52
-21.63
-29.80
-35.02
-38.89
-43.38
-50.17
-59.85
-71.17
-80.80
-84.04
-76.33
-55.45
-22.93
15.75
52.79
80.80
95.55
97.14
89.36
77.40
65.52
55.79
48.37
42.76
38.89
37.21
37.98
40.40
42.37
41.21
35.22
24.63
11.77
-0.01
-8.03
-11.72
-13.04
-15.40
-21.56
-31.59
-42.14
-47.63
-42.95
-26.42
-1.01
26.56
48.86
61.01
62.54
56.76
48.48
41.45
37.08
34.82
33.45
32.25
31.24
30.57
29.91
28.40
25.24
20.22
14.13
8.34
4.11
1.95
1.42
1.48
1.13
-0.05
-1.71
-2.97
-2.96
-1.42
1.00
2.88
2.58
-0.98
-7.65
-16.17
-24.59
-31.23
-35.22
-36.70
-36.43
-35.17
-33.31
-30.90
-27.98
-24.93
-22.49
-21.40
-21.81
-23.01
-23.62
-22.12
-17.56
-10.13
-1.02
8.05
15.53
20.59
23.28
24.20
23.90
22.50
19.57
14.55
7.41
-1.00
-9.04
-14.83
-17.12
-15.87
-12.30
-8.42
-6.26
-7.05
-11.05
-17.49
-25.05
-32.23
-37.74
-40.66
-40.63
-37.83
-32.97
-27.20
-21.67
-17.39
-14.86
-14.02
-14.39
-15.38
-16.49
-17.40
-17.94
-17.83
-16.67
-13.93
-9.24
-2.57
5.52
14.03
21.67
27.28
30.19
30.56
29.14
26.95
25.01
24.11
24.80
27.30
31.34
36.09
40.30
42.42
41.14
35.91
27.53
17.76
8.75
2.13
-1.63
-2.55
-1.16
1.93
6.29
11.56
17.19
22.38
26.22
28.19
29.92
33.46
40.32
50.42
62.04
72.72
80.47
84.66
86.20
89.49
97.87
111.83
128.42
143.12
152.54
156.16
156.04
155.08
159.66
173.73
197.84
229.74
266.37
305.59
346.22
386.84
425.39
465.28
509.63
559.59
612.44
661.78
699.80
720.06
719.67
665.19
541.75
355.58
134.51
-85.42
-276.80
-427.88
-538.85
-615.30
-663.90
-685.48
-681.88
-657.53
-620.10
-578.40
-539.33
-506.10
-479.01
-456.86
-433.90
-405.90
-371.58
-333.24
-295.25
-261.32
-233.15
-210.61
-192.67
-175.53
-156.90
-135.51
-112.40
-90.16
-70.88
-55.33
-43.11
-33.23
-23.39
-11.82
2.28
18.50
35.20
51.01
65.20
77.58
88.33
98.19
107.82
117.73
128.04
137.98
146.98
154.69
160.86
165.16
167.08
165.69
159.46
151.24
141.75
131.37
120.36
108.87
97.06
85.05
73.00
61.17
49.93
39.00
28.41
18.36
9.13
1.10
-5.34
-9.82
-12.02
-11.69
-9.31
-5.35
-0.36
5.05
10.29
14.83
18.27
20.39
21.22
20.61
18.69
15.72
12.06
8.10
4.21
0.69
-2.17
-4.19
-5.39
-5.78
-5.41
-4.32
-2.56
-0.19
2.74
6.17
10.07
14.31
18.78
23.36
27.93
32.37
36.55
40.34
43.63
46.32
48.33
49.62
50.16
49.96
49.04
47.48
45.33
42.67
39.60
36.20
32.53
28.71
24.80
20.87
16.98
13.21
9.59
6.18
3.01
0.10
-2.54
-4.92
-7.04
-8.95
-10.66
-12.22
-13.66
-15.01
-16.30
-17.53
-18.70
-19.83
-20.89
-21.89
-22.80
-23.63
-24.36
-25.01
-25.54
-27.05
-30.17
-33.28
-35.48
-36.98
-37.92
-38.35
-38.31
-37.85
-38.05
-39.63
-40.99
-41.72
-42.33
-42.95
-43.48
-43.84
-44.07
-46.96
-54.36
-62.53
-69.89
-77.38
-85.34
-93.75
-102.49
-111.54
-128.18
-156.91
-186.91
-213.17
-237.84
-261.61
-284.31
-305.61
-325.38
-358.57
-414.42
-470.65
-517.66
-559.97
-598.59
-632.43
-660.09
-680.96
-718.88
-788.96
-856.42
-908.15
-953.06
-993.84
-1029.18
-1057.34
-1078.00
-1122.90
-1212.22
-1300.88
-1372.84
-1439.48
-1502.51
-1557.64
-1600.35
-1434.53
-975.75
-538.17
-233.58
-4.36
160.07
272.59
348.33
399.82
434.43
424.55
352.62
337.35
427.17
590.96
774.09
933.94
1054.12
1136.67
1166.97
1140.01
1098.91
1057.48
1007.99
952.19
897.93
852.62
819.71
784.24
735.51
690.03
651.95
613.59
574.84
540.58
515.44
500.98
488.87
472.47
460.48
451.91
440.75
426.11
410.43
395.94
382.90
367.09
344.31
318.33
288.09
250.95
206.94
158.08
106.54
53.74
0.19
-53.99
-109.09
-166.39
-226.38
-287.39
-345.66
-396.54
-435.92
-461.12
-471.14
-466.54
-449.21
-421.88
-387.66
-349.89
-312.01
-277.28
-248.19
-225.52
-208.69
-196.70
-188.68
-184.16
-182.85
-184.52
-188.99
-195.95
-203.42
-209.14
-211.70
-210.80
-206.72
-199.54
-189.26
-176.07
-160.63
-140.84
-114.60
-81.81
-44.83
-6.95
29.34
62.59
91.82
116.05
139.31
166.64
200.32
239.16
280.51
322.79
365.39
407.86
449.16
494.22
549.32
617.03
695.36
780.51
870.15
963.53
1061.16
1118.27
1099.76
997.66
834.20
643.60
451.73
272.60
113.04
-21.96
-122.61
-191.57
-232.67
-255.53
-273.66
-298.43
-331.76
-368.71
-399.86
-416.04
-409.19
-371.74
-310.13
-241.26
-184.69
-154.31
-156.20
-186.51
-234.49
-284.49
-321.22
-336.46
-329.20
-303.71
-258.16
-200.19
-143.50
-100.53
-75.37
-63.91
-60.70
-61.66
-64.31
-66.63
-68.20
-68.08
-65.46
-60.38
-53.91
-48.51
-46.37
-47.99
-52.07
-57.53
-62.64
-65.78
-66.37
-64.91
-62.88
-61.39
-60.56
-59.61
-58.68
-56.52
-52.15
-45.47
-37.45
-29.80
-24.24
-21.86
-23.04
-27.96
-36.19
-46.83
-59.06
-72.33
-86.36
-100.93
-115.75
-130.48
-144.94
-158.96
-172.23
-184.71
-196.53
-207.91
-218.70
-228.60
-237.19
-243.74
-249.44
-254.45
-258.54
-261.24
-261.99
-260.01
-254.70
-245.88
-233.83
-219.17
-202.34
-183.88
-164.34
-144.19
-123.14
-101.04
-78.20
-55.47
-33.91
-14.11
3.66
19.47
33.59
48.54
66.24
87.15
110.09
133.01
154.30
173.10
189.29
203.18
219.66
242.64
273.13
308.90
346.19
382.00
414.98
445.22
473.51
507.69
553.81
612.87
680.27
748.66
811.62
865.37
908.63
941.50
973.56
1012.67
1060.38
1111.23
1156.42
1188.48
1203.61
1201.34
1123.83
942.29
664.02
330.53
-5.11
-302.99
-545.14
-730.57
-866.94
-958.84
-1011.67
-1028.81
-1015.86
-982.56
-940.26
-897.91
-860.05
-827.33
-800.07
-770.74
-732.31
-682.76
-625.67
-567.48
-513.73
-467.35
-428.85
-397.44
-367.71
-334.56
-296.23
-254.76
-214.09
-177.73
-147.62
-124.27
-107.45
-94.60
-83.23
-72.46
-63.30
-57.57
-56.77
-61.39
-71.04
-84.75
-100.51
-115.94
-129.30
-139.75
-147.05
-151.12
-151.79
-148.71
-141.57
-130.19
-114.27
-93.82
-69.28
-41.41
-11.21
20.18
51.63
81.99
110.14
135.54
157.63
175.75
189.27
197.77
201.29
200.43
196.14
189.41
182.71
177.88
175.81
176.40
178.98
183.04
188.57
195.89
205.14
219.31
240.19
267.62
299.56
333.02
365.45
395.72
423.88
450.24
480.17
517.52
563.28
615.22
669.04
720.59
767.64
810.39
850.83
898.84
961.99
1041.80
1131.48
1217.49
1284.71
1322.26
1326.98
1258.49
1098.13
848.89
537.73
205.91
-107.58
-377.49
-593.33
-755.11
-868.97
-937.04
-964.04
-957.51
-927.62
-885.38
-840.26
-797.75
-759.93
-727.17
-693.84
-655.62
-610.95
-561.68
-511.98
-466.57
-428.67
-398.92
-377.04
-359.19
-342.26
-324.80
-307.39
-291.80
-280.25
-273.24
-269.74
-268.14
-265.11
-258.02
-245.51
-227.80
-202.71
-172.89
-141.43
-110.87
-82.98
-58.26
-36.73
-18.20
-2.58
10.20
19.75
26.37
30.76
33.63
35.53
36.89
37.98
38.84
39.64
39.97
39.95
39.85
39.94
40.31
40.94
41.72
42.29
42.45
41.74
40.00
37.08
33.16
28.33
22.71
16.49
9.75
2.95
-3.50
-8.94
-12.64
-14.04
-12.84
-9.08
-2.24
6.27
15.35
24.09
31.92
38.05
42.56
45.22
45.49
42.69
36.02
25.39
11.33
-4.96
-20.61
-34.26
-45.09
-53.06
-58.89
-63.85
-68.85
-74.14
-79.18
-82.90
-84.58
-83.89
-81.40
-78.33
-76.04
-75.56
-77.56
-82.42
-89.93
-98.83
-106.09
-107.27
-98.12
-76.73
-45.07
-8.86
24.45
48.70
61.36
64.00
60.68
55.43
50.43
45.80
40.68
34.67
28.47
23.40
20.47
19.58
19.52
18.70
15.77
10.58
3.96
-2.60
-7.76
-10.76
-11.80
-11.69
-11.46
-11.83
-12.84
-13.95
-14.32
-13.27
-10.57
-6.63
-2.26
1.64
4.43
5.94
6.41
6.37
6.31
6.55
7.17
7.96
8.71
9.17
9.30
9.12
8.70
8.13
7.44
6.60
5.52
4.14
2.39
0.35
-1.94
-4.40
-6.97
-9.60
-12.24
-14.96
-17.79
-20.84
-24.15
-27.76
-31.69
-35.96
-40.46
-45.09
-49.87
-54.82
-59.96
-65.34
-70.93
-76.70
-82.64
-88.51
-94.21
-99.80
-105.42
-111.19
-117.15
-123.18
-129.08
-134.66
-139.43
-143.17
-145.91
-147.79
-148.77
-148.44
-145.82
-139.33
-130.15
-118.44
-104.57
-89.14
-73.04
-57.06
-41.67
-26.74
-11.67
4.30
22.18
42.26
64.28
87.37
110.45
132.58
153.23
172.54
191.35
211.61
235.32
263.83
296.11
327.99
352.49
361.98
350.84
317.72
266.43
204.46
141.30
85.14
41.21
11.66
-3.65
-6.27
1.02
14.36
28.87
41.14
48.59
50.14
46.45
39.74
33.23
29.90
31.70
38.93
53.20
74.89
103.02
135.60
170.56
206.59
243.51
282.28
324.58
375.26
436.69
506.22
575.36
631.87
663.84
663.92
631.84
553.98
431.50
277.67
113.83
-39.27
-168.62
-269.98
-344.38
-394.76
-424.71
-435.41
-429.90
-413.28
-391.62
-370.01
-351.18
-335.22
-320.91
-307.09
-290.97
-271.51
-249.64
-227.63
-207.77
-191.14
-177.43
-165.61
-154.75
-142.95
-129.44
-114.67
-99.96
-86.69
-75.51
-66.26
-58.30
-51.01
-43.31
-34.57
-24.76
-14.32
-3.77
6.55
16.53
26.05
34.83
42.46
48.55
52.49
53.62
51.52
46.17
37.89
27.30
15.55
3.33
-8.66
-19.82
-29.58
-37.48
-43.22
-46.73
-48.23
-48.19
-47.39
-46.57
-46.27
-46.60
-47.34
-48.02
-48.22
-47.79
-46.90
-46.24
-46.57
-48.41
-51.71
-55.93
-60.15
-63.55
-65.95
-67.39
-67.87
-67.71
-67.14
-66.35
-65.44
-64.35
-62.41
-58.25
-49.91
-35.84
-16.05
7.52
31.26
51.29
64.98
71.93
73.81
73.27
72.45
72.07
71.55
69.85
66.31
61.02
54.71
48.07
41.59
35.28
29.04
22.79
16.90
12.06
9.02
8.22
9.52
12.27
15.50
18.24
19.91
20.39
19.96
19.11
18.37
18.24
19.06
20.96
23.70
26.70
29.29
30.91
31.38
31.02
30.49
30.55
31.71
33.93
36.77
39.55
41.57
42.32
41.53
39.10
34.99
29.79
23.99
18.13
12.72
8.16
4.67
2.22
0.47
-1.05
-2.90
-5.52
-9.11
-13.50
-18.25
-22.84
-26.82
-29.97
-32.30
-33.98
-35.29
-36.43
-37.55
-38.62
-39.55
-40.20
-40.42
-40.12
-39.33
-38.22
-37.02
-35.91
-34.95
-34.06
-33.13
-32.13
-31.07
-30.07
-29.23
-28.51
-27.78
-26.84
-25.63
-24.19
-22.70
-21.38
-20.38
-19.71
-19.28
-18.92
-18.49
-17.89
-17.12
-16.22
-15.26
-14.39
-13.77
-13.63
-14.11
-15.08
-16.08
-16.32
-14.96
-11.45
-5.86
1.19
8.72
15.84
21.91
26.53
29.47
30.43
29.21
25.88
20.91
15.03
8.94
2.88
-3.27
-9.71
-16.26
-22.17
-26.36
-28.05
-27.27
-24.96
-22.39
-20.54
-19.48
-18.44
-16.28
-12.15
-5.94
1.77
10.03
17.99
25.08
31.07
35.88
39.38
41.44
41.94
40.94
38.76
35.85
32.69
29.64
26.81
24.06
21.12
17.73
13.82
9.49
4.95
0.46
-3.83
-7.82
-11.50
-14.85
-17.94
-20.83
-23.67
-26.58
-29.62
-32.69
-35.60
-38.18
-40.36
-42.14
-43.57
-44.68
-45.50
-46.00
-46.29
-46.48
-46.69
-46.89
-46.96
-46.77
-46.26
-45.54
-44.80
-44.22
-43.79
-43.25
-42.12
-39.72
-35.45
-28.85
-19.92
-9.12
2.58
14.02
24.16
32.36
38.56
43.14
46.66
49.57
52.03
53.92
55.03
55.23
54.60
53.43
52.03
50.71
49.51
48.28
46.75
44.68
42.07
39.18
36.51
34.57
33.69
33.82
34.51
34.94
34.22
31.68
27.17
21.26
15.13
10.12
7.31
6.99
8.56
10.70
12.02
11.45
8.67
4.10
-1.29
-6.16
-9.13
-8.86
-4.48
4.14
16.30
30.56
45.22
58.86
70.71
80.56
88.56
94.77
99.01
100.95
100.38
97.29
91.58
82.86
70.30
53.31
32.23
9.00
-13.22
-31.03
-42.26
-46.88
-46.86
-45.13
-44.21
-45.45
-49.01
-54.58
-61.97
-71.25
-82.26
-94.12
-105.09
-113.14
-116.84
-115.98
-111.64
-105.67
-99.89
-95.34
-92.01
-89.02
-85.06
-79.15
-71.12
-61.78
-52.67
-45.45
-41.10
-39.23
-38.00
-34.51
-25.65
-9.15
15.64
47.36
82.87
117.91
148.06
169.65
180.50
180.35
170.74
154.51
135.06
115.48
97.92
83.28
71.26
60.68
50.15
38.61
25.83
12.50
-0.12
-10.76
-18.67
-23.95
-27.32
-29.73
-32.02
-34.71
-38.21
-42.89
-49.17
-57.23
-66.67
-76.40
-84.77
-90.23
-91.83
-89.53
-84.12
-76.83
-68.87
-61.22
-54.55
-49.26
-45.58
-43.56
-42.97
-43.37
-44.13
-44.65
-44.55
-43.78
-42.61
-41.47
-40.55
-39.46
-37.00
-31.33
-20.54
-3.40
19.92
47.68
76.93
104.32
127.11
143.68
153.65
157.56
156.40
151.32
143.61
134.68
126.04
118.85
113.58
109.75
106.14
101.39
94.74
86.42
77.59
69.72
63.89
60.28
58.11
55.95
52.27
45.74
35.56
21.32
3.15
-18.49
-42.78
-68.87
-96.12
-124.06
-152.11
-179.05
-202.68
-220.03
-228.35
-226.30
-215.05
-198.23
-180.72
-166.61
-157.24
-150.41
-141.45
-125.66
-100.77
-68.22
-32.62
0.19
25.36
40.50
45.91
43.76
37.12
29.22
23.09
21.23
25.02
34.26
46.97
60.07
70.38
75.91
76.35
72.84
67.10
60.84
55.22
50.93
48.32
47.39
47.78
48.80
49.42
48.69
46.11
41.88
36.87
32.33
29.37
28.59
29.83
32.28
34.73
35.97
35.07
31.76
26.46
20.11
13.84
8.46
4.16
0.42
-3.61
-8.69
-14.89
-21.52
-27.39
-31.29
-32.67
-31.79
-29.63
-27.36
-25.77
-25.01
-24.58
-23.94
-22.98
-22.35
-23.29
-26.97
-33.81
-43.11
-53.41
-63.06
-70.90
-76.53
-80.07
-81.71
-81.49
-79.40
-75.60
-70.79
-65.98
-62.06
-59.27
-56.88
-53.47
-47.50
-37.92
-24.70
-8.91
7.55
22.45
33.91
40.93
43.65
43.14
40.96
38.48
36.50
35.18
34.38
34.02
34.34
35.71
38.42
42.36
47.07
51.78
55.85
58.92
60.95
62.05
62.30
61.59
59.65
56.13
50.88
44.04
36.20
28.14
20.68
14.41
9.58
6.09
3.64
1.98
0.89
0.24
-0.17
-0.55
-1.13
-2.05
-3.31
-4.87
-6.68
-8.80
-11.35
-14.44
-18.03
-21.97
-26.08
-30.28
-34.61
-39.09
-43.53
-47.56
-50.57
-52.11
-51.97
-50.36
-47.78
-44.76
-41.83
-39.35
-37.48
-36.11
-34.80
-32.75
-29.03
-22.85
-14.01
-3.15
8.51
19.50
28.68
35.57
40.43
44.05
47.39
51.22
55.91
61.25
66.61
71.01
73.48
73.31
70.30
64.77
57.43
49.19
40.92
33.40
27.17
22.65
19.96
19.00
19.28
20.14
20.86
20.79
19.48
16.72
12.59
7.50
2.14
-2.69
-6.40
-8.83
-10.45
-12.09
-14.78
-19.30
-26.06
-35.08
-46.20
-59.12
-73.54
-88.98
-104.71
-119.66
-132.47
-141.72
-146.27
-145.65
-140.15
-130.81
-118.95
-105.60
-91.24
-75.74
-58.80
-40.56
-21.83
-3.91
11.89
24.92
35.45
44.41
52.83
61.34
69.82
77.69
84.33
89.43
93.15
95.87
97.79
98.66
97.75
94.14
87.24
77.16
64.77
51.36
38.27
26.46
16.42
8.25
1.83
-2.98
-6.27
-8.17
-8.88
-8.71
-8.06
-7.25
-6.53
-5.96
-5.46
-4.87
-4.11
-3.16
-2.15
-1.25
-0.61
-0.23
0.00
0.28
0.81
1.67
2.84
4.20
5.58
6.82
7.86
8.74
9.56
10.47
11.52
12.63
13.66
14.34
14.50
14.12
13.29
12.21
11.09
10.08
9.29
8.77
8.54
8.54
8.63
8.59
8.10
6.94
4.94
2.19
-1.06
-4.43
-7.57
-10.23
-12.30
-13.78
-14.75
-15.26
-15.40
-15.32
-15.20
-15.27
-15.69
-16.51
-17.58
-18.65
-19.45
-19.88
-19.96
-19.83
-19.65
-19.48
-19.33
-19.16
-18.89
-18.57
-18.27
-18.05
-17.99
-18.11
-18.36
-18.77
-19.28
-19.95
-20.88
-22.20
-23.98
-26.21
-28.75
-31.36
-33.85
-36.09
-38.02
-39.61
-40.80
-41.46
-41.45
-40.61
-38.86
-36.15
-32.50
-27.94
-22.60
-16.65
-10.45
-4.41
1.12
6.00
10.40
14.74
19.53
25.11
31.56
38.58
45.77
52.78
59.48
65.89
72.04
77.79
82.85
86.90
89.76
91.57
92.68
93.40
93.87
93.96
93.38
91.85
89.22
85.44
80.45
74.14
66.37
57.16
46.74
35.58
24.20
12.99
2.15
-8.25
-18.14
-27.30
-35.37
-42.01
-47.09
-50.75
-53.23
-54.74
-55.38
-55.08
-53.84
-51.79
-49.23
-46.56
-44.10
-42.01
-40.25
-38.66
-37.01
-35.14
-32.98
-30.61
-28.24
-26.14
-24.44
-23.10
-21.90
-20.38
-18.14
-14.96
-10.96
-6.77
-3.29
-1.47
-1.99
-5.04
-10.23
-16.74
-23.59
-29.88
-34.94
-38.42
-40.18
-40.28
-38.85
-35.99
-31.63
-25.49
-17.08
-5.91
8.20
24.90
43.19
61.64
78.76
93.36
104.87
113.36
119.34
123.51
126.41
128.21
128.67
127.28
123.46
116.83
107.39
95.53
81.93
67.40
52.66
38.18
24.27
11.08
-1.18
-12.23
-21.78
-29.65
-35.93
-40.94
-45.11
-48.77
-51.97
-54.55
-56.23
-56.89
-56.68
-55.96
-55.20
-54.66
-54.32
-53.88
-52.99
-51.32
-48.92
-46.13
-43.60
-41.93
-41.46
-42.02
-42.95
-43.32
-42.24
-39.15
-34.03
-27.32
-19.74
-12.14
-5.36
-0.08
3.08
3.77
1.94
-2.03
-7.33
-12.86
-17.51
-20.37
-20.88
-18.79
-14.22
-7.56
0.56
9.27
17.59
24.66
29.90
33.26
35.14
36.26
37.20
38.28
39.36
40.03
39.81
38.46
35.97
32.59
28.69
24.55
20.44
16.53
13.10
10.36
8.40
7.06
5.84
4.19
1.65
-1.84
-5.93
-10.02
-13.53
-16.17
-17.94
-19.07
-19.87
-20.56
-21.24
-21.94
-22.74
-23.69
-24.81
-26.06
-27.32
-28.41
-29.21
-29.71
-30.00
-30.34
-31.00
-32.18
-33.88
-35.89
-37.66
-38.57
-38.04
-35.78
-31.93
-27.05
-21.94
-17.28
-13.42
-10.20
-7.27
-4.33
-1.36
1.40
3.77
5.80
7.91
10.62
14.23
18.54
22.89
26.50
28.87
29.90
29.79
28.69
26.60
23.33
18.92
13.81
8.97
5.45
4.02
4.78
7.11
10.11
12.95
15.26
17.12
18.76
20.32
21.61
22.33
22.18
21.17
19.57
17.90
16.57
15.82
15.59
15.70
15.84
15.77
15.32
14.44
13.17
11.65
9.96
8.17
6.27
4.30
2.17
-0.22
-2.88
-5.62
-8.17
-10.27
-11.80
-12.84
-13.46
-13.82
-14.01
-13.95
-13.52
-12.51
-10.96
-9.03
-6.97
-4.61
-1.87
1.31
4.83
8.47
11.94
14.53
15.67
15.26
14.50
14.56
16.29
19.87
24.82
30.46
35.12
37.40
36.66
34.72
33.14
32.99
34.25
36.04
37.34
35.69
28.87
15.77
-1.07
-19.54
-38.16
-56.69
-75.46
-94.18
-114.08
-136.41
-162.13
-188.85
-215.63
-242.36
-269.60
-297.46
-313.21
-306.03
-270.96
-229.43
-192.79
-166.71
-146.76
-124.58
-96.45
-61.55
-23.80
11.45
39.94
63.08
82.83
101.20
118.71
134.54
147.88
156.39
158.09
152.32
142.39
131.59
122.78
117.28
114.88
114.68
114.23
111.02
103.43
92.75
80.85
69.89
61.26
55.12
50.91
47.06
41.62
33.15
21.51
6.56
-11.36
-31.10
-50.17
-64.37
-69.31
-62.49
-44.91
-20.58
2.16
16.05
17.70
8.34
-7.51
-24.74
-40.35
-53.65
-65.60
-77.08
-87.42
-95.10
-98.76
-98.28
-94.28
-88.40
-82.29
-76.87
-72.15
-66.92
-60.19
-51.65
-41.48
-30.66
-20.81
-13.33
-8.94
-7.46
-7.01
-6.00
-3.29
2.40
11.24
21.98
32.51
40.75
45.08
45.95
43.97
40.05
37.03
37.31
42.21
52.11
67.77
84.63
101.97
119.79
138.31
160.05
186.32
216.54
248.13
277.78
303.02
323.29
338.35
332.46
297.87
235.98
157.07
73.66
-5.15
-74.56
-132.73
-180.06
-217.63
-244.13
-259.36
-264.11
-261.96
-256.86
-250.62
-243.38
-234.72
-223.44
-206.58
-182.49
-151.19
-114.09
-78.46
-49.03
-28.59
-17.86
-14.54
-14.61
-15.48
-16.86
-14.36
-10.77
-7.95
-6.67
-6.58
-4.33
3.84
20.46
46.61
75.67
103.26
128.27
151.02
172.70
197.90
230.28
270.97
317.78
366.29
411.59
450.50
481.08
483.76
449.33
380.56
291.57
199.37
116.00
45.99
-10.91
-57.53
-96.82
-127.35
-147.56
-156.51
-155.03
-144.08
-126.73
-106.57
-88.42
-78.15
-78.62
-91.01
-113.18
-140.24
-165.67
-183.45
-190.40
-187.51
-179.28
-168.23
-157.59
-148.79
-143.28
-141.28
-141.03
-139.79
-135.45
-128.01
-118.74
-110.42
-106.30
-106.07
-107.62
-108.05
-105.20
-98.52
-89.40
-79.64
-70.53
-61.29
-50.87
-38.57
-24.65
-10.51
2.37
13.66
24.89
39.03
59.04
86.14
118.51
151.30
178.42
194.50
196.52
184.45
161.50
133.32
107.23
90.56
88.96
105.31
138.41
182.50
227.42
260.71
270.57
249.55
197.13
119.47
28.51
-61.72
-138.90
-195.70
-230.52
-246.45
-248.54
-236.92
-213.39
-182.45
-151.42
-127.16
-112.59
-105.01
-97.57
-82.85
-57.00
-22.89
11.81
38.40
51.58
51.39
42.21
29.92
18.72
9.90
1.87
-7.00
-16.92
-26.38
-33.36
-36.71
-36.45
-33.46
-28.70
-23.27
-17.80
-12.82
-8.74
-6.02
-5.59
-7.85
-13.29
-21.65
-31.52
-40.00
-43.53
-39.59
-28.37
-13.46
-0.32
6.32
5.09
-1.08
-6.22
-5.05
4.11
18.65
33.53
44.33
49.36
49.80
48.16
46.24
44.23
41.35
37.16
32.15
27.87
25.85
26.51
28.80
30.73
30.26
26.51
20.33
14.07
10.29
11.37
18.77
32.27
49.52
65.96
75.38
72.91
56.84
29.85
-1.65
-30.10
-49.95
-59.62
-61.37
-59.14
-56.04
-53.13
-49.73
-45.00
-39.34
-34.55
-32.71
-34.68
-39.31
-44.07
-46.28
-44.39
-38.86
-31.79
-26.08
-24.19
-27.43
-35.25
-45.32
-54.03
-57.22
-51.52
-35.77
-11.85
15.66
40.84
58.36
65.41
62.51
52.56
40.65
30.94
25.53
24.32
25.82
28.25
30.42
31.90
32.79
33.18
32.82
31.38
28.66
25.20
22.03
20.38
20.87
23.27
26.44
28.89
29.43
27.77
24.55
20.89
18.26
17.77
19.78
23.31
26.03
24.90
17.46
3.07
-16.60
-37.86
-56.64
-69.87
-76.01
-75.82
-70.63
-61.42
-48.33
-31.53
-12.03
7.42
22.89
30.68
28.52
16.88
-1.54
-22.28
-40.47
-51.84
-53.79
-46.03
-30.36
-10.59
9.04
24.51
33.33
34.63
29.02
18.33
4.88
-8.72
-20.21
-27.52
-29.44
-25.72
-17.13
-5.60
6.65
17.25
24.41
26.79
24.08
16.88
6.47
-5.21
-16.28
-24.81
-29.57
-29.71
-25.29
-17.36
-7.73
1.22
7.68
10.53
9.80
6.06
0.18
-6.99
-14.53
-20.92
-24.20
-22.09
-13.23
2.16
21.43
40.78
56.68
66.83
70.88
69.76
65.18
58.60
51.20
43.92
37.73
33.86
33.23
36.19
41.56
46.49
46.87
39.26
21.67
-4.40
-33.79
-59.57
-75.42
-78.09
-68.20
-49.63
-27.56
-6.48
11.01
24.20
33.26
38.55
40.08
37.67
31.29
21.48
9.46
-2.93
-13.71
-21.42
-25.55
-26.60
-25.92
-25.15
-25.51
-27.34
-29.98
-32.23
-32.80
-31.04
-27.17
-21.38
-14.89
-9.20
-5.42
-3.81
-3.88
-4.72
-5.66
-6.58
-7.71
-9.39
-11.38
-12.78
-12.45
-9.71
-4.66
1.68
7.89
12.68
15.11
14.86
12.00
6.91
0.21
-7.11
-13.79
-18.53
-20.31
-18.91
-14.83
-9.20
-3.29
1.79
5.27
6.76
6.02
3.09
-1.83
-8.17
-15.05
-21.47
-26.42
-29.31
-29.91
-28.51
-25.52
-21.48
-16.87
-12.22
-8.13
-5.16
-3.94
-4.79
-7.76
-12.21
-16.83
-19.97
-20.43
-17.77
-12.36
-5.51
1.19
6.30
9.34
10.93
12.35
14.40
17.27
20.58
23.31
24.39
22.91
18.90
13.73
9.49
7.64
8.99
13.50
19.78
25.44
27.58
24.32
16.32
6.90
0.42
1.86
15.55
43.26
82.48
125.13
159.59
175.72
174.41
159.32
135.81
110.12
85.95
67.13
54.81
46.85
38.67
24.82
0.19
-36.87
-82.83
-128.79
-164.11
-182.21
-183.12
-171.57
-153.03
-131.64
-109.13
-86.04
-63.49
-43.62
-29.15
-21.56
-19.87
-21.15
-22.22
-20.74
-15.88
-8.47
-0.54
5.51
8.14
7.54
5.28
3.27
2.97
4.95
8.75
13.20
16.82
18.64
18.63
17.57
16.45
16.10
16.92
18.80
21.25
23.64
25.55
26.92
27.98
29.13
30.60
32.42
34.37
36.09
37.13
37.04
35.79
33.46
30.15
26.06
21.45
16.61
11.85
7.47
3.69
0.72
-1.38
-2.86
-3.92
-4.69
-5.20
-5.46
-5.40
-4.93
-3.99
-2.44
-0.56
1.57
4.07
7.14
10.93
15.48
20.73
26.50
32.59
38.18
42.71
45.80
47.54
48.09
47.70
46.64
44.98
42.90
39.95
35.91
30.44
23.59
15.26
5.15
-7.36
-23.98
-36.83
-43.34
-43.73
-40.19
-34.58
-28.08
-21.16
-13.68
-6.51
-4.88
-7.27
-11.23
-15.51
-19.02
-21.44
-23.00
-24.32
-28.53
-38.26
-55.66
-74.98
-93.73
-110.42
-124.66
-136.63
-146.71
-158.02
-172.30
-189.14
-206.33
-222.21
-235.34
-245.26
-251.91
-238.24
-197.12
-133.36
-60.81
7.26
63.58
107.12
139.62
163.72
181.93
193.46
198.19
197.37
193.60
188.84
184.17
179.35
173.56
166.12
154.31
136.79
113.60
86.36
56.74
28.90
4.30
-16.48
-33.13
-46.89
-58.32
-67.89
-75.32
-80.69
-84.12
-86.28
-87.36
-87.00
-88.08
-88.64
-87.62
-84.44
-79.68
-74.09
-69.03
-65.45
-63.25
-62.10
-61.24
-60.71
-61.09
-64.99
-75.38
-94.71
-122.92
-155.33
-184.21
-201.49
-202.27
-179.21
-133.18
-70.06
0.99
69.88
128.58
170.10
189.30
184.26
159.13
123.19
89.58
70.14
71.21
93.96
133.11
179.89
225.62
265.01
295.66
317.46
330.50
320.70
281.77
218.86
146.19
77.90
22.04
-20.37
-51.79
-76.16
-96.74
-113.25
-124.80
-131.07
-133.22
-132.64
-131.00
-129.83
-130.50
-133.49
-137.05
-139.36
-139.31
-137.23
-133.14
-127.22
-120.15
-112.41
-104.00
-94.12
-82.38
-69.00
-55.37
-41.54
-27.55
-13.76
-0.93
10.79
21.84
32.41
42.71
52.38
63.40
77.56
95.72
111.60
123.33
130.72
133.44
136.78
139.42
142.07
146.15
153.47
165.51
183.51
207.16
232.90
255.75
262.64
248.31
213.26
163.10
106.45
46.47
-8.65
-51.86
-80.68
-97.66
-105.03
-104.86
-98.92
-89.50
-78.79
-68.21
-59.32
-53.20
-49.86
-46.92
-42.78
-37.39
-32.35
-29.19
-28.42
-30.73
-36.84
-46.51
-58.04
-70.28
-83.07
-97.31
-113.71
-132.66
-154.91
-180.98
-208.98
-233.86
-249.18
-249.23
-231.39
-196.45
-148.78
-90.84
-30.28
25.75
72.95
109.84
136.66
149.29
145.23
125.96
96.87
64.68
35.14
11.27
-6.75
-20.63
-32.61
-43.16
-51.25
-55.31
-53.37
-44.06
-27.40
-4.93
21.11
48.66
77.55
109.11
139.58
166.63
189.35
208.13
223.74
235.94
242.26
238.76
221.17
187.34
140.11
86.94
37.47
-0.13
-22.21
-30.55
-29.98
-25.76
-21.16
-16.47
-10.61
-3.26
4.40
10.19
11.91
8.96
2.22
-6.71
-15.90
-24.32
-32.49
-41.63
-51.55
-62.85
-74.96
-86.52
-95.82
-101.52
-102.97
-100.99
-96.98
-92.32
-88.12
-84.39
-80.70
-76.11
-71.43
-64.95
-56.41
-46.10
-34.43
-22.00
-8.95
4.39
17.86
31.17
44.17
56.29
67.01
76.18
83.77
90.25
95.81
100.88
105.90
111.29
117.23
123.71
130.83
138.49
146.76
155.06
162.90
169.60
174.64
177.69
178.38
176.24
170.15
162.11
152.64
142.02
130.35
117.84
105.05
92.70
81.62
72.47
65.68
60.98
57.79
54.77
50.81
45.56
39.21
32.21
24.99
17.73
10.20
2.06
-8.93
-23.83
-41.69
-60.08
-76.61
-89.70
-98.96
-104.98
-109.13
-117.09
-132.26
-154.30
-179.85
-205.62
-229.79
-252.29
-273.86
-295.62
-325.12
-366.20
-417.57
-474.48
-532.93
-590.45
-644.55
-691.21
-725.04
-749.68
-766.75
-774.53
-769.41
-749.90
-717.76
-676.29
-629.10
-527.62
-360.94
-156.70
38.01
190.45
293.38
355.22
388.41
403.43
407.65
397.00
370.22
332.11
291.83
257.13
231.48
214.97
205.12
200.57
193.18
178.35
157.33
135.05
115.89
101.26
90.17
81.05
72.35
58.77
37.73
10.84
-17.62
-43.37
-63.72
-79.81
-92.17
-101.24
-109.33
-117.68
-125.68
-131.78
-134.72
-134.04
-130.22
-123.91
-116.05
-108.25
-101.47
-95.63
-90.05
-83.97
-76.72
-68.14
-58.12
-46.96
-35.09
-22.88
-10.51
1.76
13.53
24.90
35.54
44.90
52.02
56.31
57.94
57.77
57.20
57.46
61.54
71.16
86.41
105.64
126.76
148.59
170.91
194.21
218.78
248.82
286.66
331.39
378.96
424.33
464.13
497.24
525.00
550.52
584.56
634.80
701.40
775.36
842.12
887.80
903.29
886.37
841.00
783.85
730.35
689.29
662.02
646.32
641.05
646.09
660.25
625.07
506.46
305.79
60.57
-181.57
-388.52
-548.83
-665.24
-746.84
-803.25
-833.68
-837.60
-818.73
-785.70
-749.58
-718.08
-694.56
-679.10
-669.74
-657.43
-635.49
-602.63
-563.06
-523.23
-487.54
-457.16
-432.83
-413.39
-393.10
-367.69
-336.34
-301.83
-268.49
-239.57
-216.54
-199.44
-187.20
-176.50
-164.71
-150.91
-135.89
-121.22
-108.06
-96.88
-87.70
-80.16
-73.17
-65.91
-58.01
-49.45
-40.29
-30.32
-19.17
-6.67
7.12
21.79
36.81
51.83
66.93
82.57
99.41
117.89
137.98
159.08
180.31
200.77
219.95
237.92
255.23
272.68
291.22
311.85
335.39
361.97
390.29
417.22
438.18
448.47
444.92
427.29
398.40
362.94
325.72
290.03
257.17
226.96
198.89
172.85
149.28
128.66
110.92
95.22
80.25
64.91
48.85
32.69
17.71
5.20
-4.28
-11.14
-16.59
-21.88
-27.59
-33.30
-37.96
-40.59
-40.93
-39.67
-38.13
-37.57
-38.75
-41.73
-46.14
-51.41
-57.09
-62.92
-68.77
-74.54
-80.15
-85.52
-90.49
-94.80
-98.17
-100.24
-100.74
-99.48
-96.40
-91.54
-85.07
-77.36
-68.93
-60.34
-51.85
-43.33
-34.23
-23.86
-11.67
2.41
17.94
34.06
49.82
64.48
77.49
88.46
96.95
102.53
104.89
104.00
100.26
94.42
87.37
79.74
71.85
63.68
55.07
45.96
36.51
27.11
18.18
10.07
2.93
-3.31
-8.77
-13.62
-17.86
-21.44
-24.19
-26.08
-27.18
-27.77
-28.12
-28.37
-28.45
-28.10
-27.07
-25.34
-23.20
-21.20
-19.93
-19.77
-20.69
-22.35
-24.20
-25.71
-26.61
-26.92
-26.90
-26.91
-27.26
-28.10
-29.38
-30.93
-32.52
-33.83
-34.60
-34.61
-33.78
-32.28
-30.44
-28.72
-27.48
-26.81
-26.52
-26.23
-25.69
-24.87
-23.95
-23.16
-22.58
-22.02
-21.09
-19.41
-16.73
-13.01
-8.43
-3.36
1.79
6.55
10.52
13.47
15.40
16.56
17.14
17.15
16.41
14.80
12.40
9.63
7.23
6.21
7.36
10.89
16.25
22.43
28.48
33.75
37.87
40.91
43.50
46.61
51.02
56.99
64.33
72.59
81.14
89.13
96.01
102.21
109.12
118.23
130.17
143.89
156.41
162.93
157.50
134.87
92.93
33.74
-37.33
-113.34
-187.48
-251.85
-295.92
-311.47
-297.43
-260.04
-209.15
-154.36
-103.19
-60.63
-29.04
-8.91
2.05
6.29
6.38
4.44
1.29
-3.83
-12.65
-27.10
-48.71
-76.37
-107.78
-138.46
-162.55
-174.89
-173.27
-159.31
-138.16
-116.39
-99.65
-90.86
-88.70
-88.95
-86.76
-79.50
-67.78
-55.05
-45.56
-42.22
-45.15
-51.06
-54.88
-52.09
-40.90
-22.67
-0.98
20.51
39.66
56.00
70.39
83.50
95.08
103.81
108.18
107.36
101.67
92.43
81.17
69.57
58.82
49.87
43.36
39.56
38.42
39.45
41.85
44.51
46.39
46.61
44.74
40.77
35.09
28.54
22.05
16.61
12.86
11.05
10.88
11.55
11.96
10.96
7.86
2.56
-4.25
-11.52
-18.20
-23.60
-27.63
-30.57
-32.74
-34.30
-35.18
-35.21
-34.29
-32.52
-30.01
-26.76
-22.48
-16.96
-10.16
-2.44
5.51
13.02
19.61
25.11
29.40
32.31
33.41
32.34
29.01
23.83
17.74
11.76
6.65
2.61
-0.60
-3.38
-5.92
-8.02
-9.18
-8.86
-6.83
-3.30
1.20
5.95
10.34
13.92
16.57
18.24
19.19
19.81
20.80
22.95
26.77
32.22
38.27
43.21
44.93
41.70
32.58
17.52
-2.88
-27.87
-56.69
-88.36
-121.30
-153.04
-180.22
-199.26
-207.22
-202.55
-185.52
-158.05
-123.35
-85.30
-47.81
-14.31
12.82
32.50
45.19
52.41
56.20
58.38
59.87
60.82
60.73
58.98
55.08
48.87
40.40
29.92
17.87
4.88
-7.99
-19.53
-28.50
-33.95
-35.47
-33.30
-28.37
-21.91
-15.27
-9.43
-4.92
-1.71
0.72
3.01
5.68
9.00
13.14
18.22
24.43
31.90
40.60
50.33
60.48
70.12
77.95
82.22
80.95
72.30
55.33
30.63
0.63
-31.09
-60.66
-85.09
-102.80
-113.47
-117.45
-115.13
-106.94
-93.54
-76.40
-57.61
-39.32
-23.15
-9.55
1.93
12.04
21.23
29.34
35.95
40.90
44.69
48.32
52.90
58.93
66.02
73.10
78.94
82.78
84.58
84.89
84.26
82.89
80.33
75.75
68.40
57.99
44.97
30.38
15.53
1.70
-10.12
-19.39
-26.07
-30.52
-33.68
-36.66
-40.49
-45.65
-51.80
-57.84
-62.22
-63.69
-61.55
-55.94
-47.60
-37.56
-26.91
-16.57
-7.49
-0.47
3.79
4.98
3.32
-0.41
-5.04
-9.31
-11.98
-12.19
-9.51
-4.22
2.72
9.77
15.16
17.69
17.00
13.89
9.91
6.81
5.89
7.71
12.24
19.06
27.67
37.42
47.54
56.86
64.06
67.96
67.91
64.11
57.43
49.14
40.42
32.11
24.72
18.40
13.21
9.01
5.62
2.78
0.23
-2.19
-4.62
-7.07
-9.66
-12.44
-15.42
-18.43
-21.10
-23.04
-24.02
-24.17
-23.80
-23.31
-22.90
-22.61
-22.42
-22.35
-22.67
-23.68
-25.58
-28.28
-31.42
-34.60
-37.54
-40.32
-43.15
-46.30
-49.85
-53.71
-57.75
-61.98
-66.68
-72.10
-78.45
-85.42
-92.26
-97.91
-101.37
-102.06
-99.95
-95.70
-90.14
-84.14
-78.17
-72.19
-65.68
-57.77
-47.66
-34.79
-19.45
-2.82
12.83
24.76
30.35
27.62
15.94
-4.15
-30.87
-61.39
-91.89
-117.96
-135.27
-140.61
-132.98
-114.12
-88.37
-61.57
-39.94
-29.12
-33.49
-55.28
-93.43
-142.89
-194.64
-237.82
-262.91
-264.98
-245.29
-210.24
-168.39
-126.89
-89.55
-56.62
-26.66
1.65
28.49
52.84
73.65
90.62
104.20
115.40
125.14
133.92
141.94
149.63
158.24
169.88
186.91
210.44
239.29
269.59
295.76
312.50
316.85
309.12
292.50
271.59
250.41
231.35
214.96
200.59
187.36
174.67
162.29
149.99
137.45
124.23
110.16
95.51
81.04
67.86
56.91
48.55
42.31
37.16
31.94
25.89
19.12
12.32
6.42
2.05
-0.76
-2.61
-4.28
-6.42
-9.20
-12.25
-14.90
-16.44
-16.43
-14.82
-11.96
-8.42
-4.73
-1.37
1.51
3.94
5.93
7.37
8.01
7.58
6.09
4.01
2.05
0.95
1.09
2.28
3.89
5.21
5.79
5.71
5.49
5.82
7.13
9.51
12.57
15.65
18.04
19.01
17.89
14.08
7.27
-2.40
-14.04
-26.17
-36.94
-44.76
-48.94
-49.87
-48.83
-47.26
-46.06
-45.17
-43.90
-41.41
-37.27
-31.77
-25.59
-19.35
-13.38
-7.62
-1.96
3.44
8.05
11.19
12.29
11.33
8.88
5.81
2.98
1.04
0.33
0.82
2.37
4.69
7.55
10.81
14.32
17.88
21.31
24.49
27.28
29.56
31.19
32.19
32.67
32.84
32.82
32.71
32.59
32.49
32.31
32.01
31.71
31.78
32.65
34.68
38.08
43.15
49.92
57.99
66.53
74.58
81.48
87.09
91.80
96.33
101.81
108.56
115.72
121.52
124.19
122.80
117.32
108.00
94.81
78.20
58.68
37.34
15.88
-3.75
-20.39
-34.55
-48.57
-69.96
-101.77
-140.95
-179.02
-206.94
-220.06
-219.37
-209.22
-194.58
-178.96
-163.21
-147.36
-131.37
-115.93
-102.15
-90.83
-82.08
-75.48
-70.32
-65.37
-60.03
-53.86
-46.84
-39.01
-30.41
-20.97
-10.95
-1.08
7.81
14.53
18.21
18.42
15.05
8.18
-1.98
-15.40
-32.06
-51.60
-74.06
-98.68
-124.48
-150.06
-173.07
-189.79
-195.76
-187.06
-158.90
-116.56
-69.52
-28.24
-0.56
10.61
7.38
-5.14
-21.37
-37.52
-52.59
-66.02
-77.02
-84.13
-85.99
-82.22
-73.95
-62.83
-50.99
-40.59
-32.15
-25.17
-18.81
-12.64
-6.92
-2.50
0.25
1.19
0.56
-0.32
0.25
3.87
11.81
25.14
40.83
57.67
75.07
92.91
111.88
133.15
157.77
186.00
216.40
245.57
269.23
282.90
283.50
270.80
247.43
217.74
186.31
156.36
129.27
105.51
84.78
66.73
51.16
37.83
26.23
15.72
5.70
-3.86
-12.10
-17.90
-20.26
-18.90
-14.62
-9.35
-5.64
-5.95
-11.64
-22.35
-36.13
-50.13
-61.44
-67.85
-68.31
-62.78
-52.00
-37.20
-19.80
-1.32
16.88
33.69
48.39
60.35
68.80
72.59
70.42
61.55
46.42
27.04
6.39
-12.48
-27.56
-38.38
-45.77
-51.10
-55.44
-59.08
-61.72
-62.94
-62.59
-60.93
-58.58
-56.05
-53.64
-51.35
-48.98
-46.44
-43.80
-41.36
-39.55
-38.80
-39.24
-40.69
-42.76
-45.03
-47.47
-50.51
-54.94
-61.55
-70.64
-81.66
-93.12
-102.91
-108.77
-108.87
-102.32
-89.38
-71.37
-50.26
-28.08
-6.44
13.68
31.94
48.23
62.50
74.55
84.14
91.07
95.14
96.05
93.27
86.22
74.59
58.84
40.47
21.81
5.51
-6.20
-12.12
-12.23
-7.51
0.43
9.81
18.99
26.64
31.86
34.18
33.58
30.44
25.36
18.94
11.41
2.49
-8.47
-22.20
-38.82
-57.33
-75.26
-89.07
-95.09
-90.78
-75.93
-52.89
-26.07
-0.53
19.56
32.11
37.41
37.48
34.95
31.92
29.33
27.09
24.39
20.38
14.42
6.33
-3.67
-14.85
-26.09
-35.84
-42.37
-44.16
-40.28
-30.81
-16.84
-0.30
16.61
31.92
44.28
53.13
58.56
61.09
61.23
59.33
55.52
49.86
42.47
33.71
24.13
14.35
4.84
-4.23
-12.92
-21.43
-29.84
-38.14
-46.14
-53.59
-60.26
-65.81
-69.80
-71.63
-70.75
-66.89
-60.29
-51.77
-42.41
-33.26
-24.95
-17.64
-11.08
-4.94
0.90
6.36
11.17
15.00
17.59
18.87
18.79
17.36
14.56
10.39
5.02
-1.22
-7.69
-13.65
-18.16
-20.48
-20.17
-17.20
-11.90
-4.87
3.08
11.10
18.27
23.87
27.38
28.64
27.91
25.64
22.38
18.55
14.35
9.89
5.17
0.13
-5.36
-11.48
-18.53
-26.66
-35.78
-45.46
-54.97
-63.59
-70.79
-76.44
-80.78
-84.28
-87.34
-89.95
-91.52
-90.98
-87.04
-78.62
-65.37
-47.83
-27.30
-5.48
16.12
36.55
55.44
72.76
88.50
102.40
114.01
122.69
127.88
129.13
126.13
118.81
107.44
92.75
76.09
59.21
43.95
31.82
23.57
19.12
17.67
18.12
19.42
20.81
21.85
22.35
22.19
21.21
19.23
16.17
12.08
7.22
1.93
-3.49
-8.89
-14.36
-20.08
-26.15
-32.41
-38.53
-44.15
-49.13
-53.68
-58.26
-63.44
-69.51
-76.31
-83.14
-89.02
-93.00
-94.35
-92.64
-87.58
-78.91
-66.62
-51.06
-33.19
-14.51
3.21
18.57
30.90
40.44
48.10
54.83
61.26
67.45
72.99
77.15
79.12
78.16
73.81
66.08
55.63
43.76
32.17
22.53
16.05
13.23
13.76
16.85
21.40
26.38
30.99
34.80
37.55
39.25
39.87
39.39
37.74
34.96
31.19
26.64
21.52
15.86
9.62
2.66
-5.10
-13.65
-22.86
-32.57
-42.64
-52.90
-63.15
-73.08
-82.30
-90.47
-97.29
-102.54
-106.11
-108.05
-108.54
-107.87
-106.29
-103.78
-99.89
-93.72
-84.34
-71.16
-54.42
-35.26
-15.45
3.10
19.05
31.77
41.51
48.86
54.52
58.98
62.48
65.08
66.69
67.18
66.44
64.38
61.08
56.92
52.58
48.95
46.83
46.67
48.36
51.22
54.18
56.02
55.67
52.46
46.22
37.28
26.42
14.65
2.89
-8.12
-18.13
-27.37
-36.48
-46.24
-57.28
-69.66
-82.81
-95.63
-106.81
-115.21
-120.16
-121.48
-119.24
-113.77
-105.32
-94.24
-80.93
-65.97
-50.07
-33.87
-17.72
-1.67
14.15
29.51
43.93
56.86
67.95
77.21
84.90
91.32
96.29
98.37
95.74
87.29
73.83
58.37
45.27
38.77
41.57
54.13
73.29
94.51
113.67
128.68
139.64
147.87
154.76
161.05
166.92
169.44
165.27
151.92
129.03
98.12
61.46
21.13
-21.11
-63.11
-106.04
-151.56
-201.14
-255.26
-313.37
-374.45
-436.92
-498.22
-539.07
-542.91
-501.27
-420.33
-317.74
-212.37
-116.92
-37.09
22.57
67.23
98.28
116.65
125.45
131.16
142.03
164.64
200.93
248.13
301.65
353.19
395.30
422.23
429.99
415.96
379.11
321.51
249.90
175.75
108.40
53.45
10.99
-23.25
-55.11
-89.13
-126.45
-164.69
-193.14
-202.78
-189.71
-157.80
-115.81
-72.08
-31.28
5.65
39.70
72.05
101.31
124.66
140.00
146.24
143.64
132.75
114.93
92.63
69.08
46.26
24.48
2.29
-19.57
-40.59
-61.92
-84.12
-105.98
-124.39
-136.82
-142.46
-142.70
-140.13
-137.69
-140.18
-151.18
-171.85
-200.62
-234.98
-272.09
-308.33
-338.55
-341.47
-303.90
-228.99
-136.23
-48.65
18.86
62.58
86.43
97.24
100.66
97.65
87.11
70.77
54.34
45.20
49.18
68.38
100.78
140.64
178.05
203.47
207.14
185.86
145.27
97.85
57.28
32.51
24.78
27.91
33.61
36.24
35.39
33.87
34.57
38.28
43.66
48.58
51.21
51.06
48.98
47.16
47.17
49.29
52.42
55.23
55.61
52.12
44.07
31.52
15.35
-3.60
-25.06
-49.59
-76.69
-105.18
-131.56
-150.08
-154.74
-141.89
-112.92
-74.39
-35.88
-6.13
10.21
13.88
9.46
2.28
-4.11
-8.91
-13.10
-17.87
-23.38
-28.62
-32.00
-32.33
-29.56
-24.01
-16.66
-8.39
0.19
9.00
18.08
27.65
37.69
47.77
57.40
66.44
75.73
86.44
98.81
110.99
118.82
117.40
103.13
75.97
39.88
1.35
-33.59
-61.54
-81.88
-95.45
-102.08
-100.74
-90.76
-73.29
-52.26
-33.90
-24.75
-29.12
-47.98
-77.96
-113.48
-147.35
-171.50
-178.64
-164.20
-128.60
-77.28
-19.60
35.68
82.14
112.29
121.19
109.70
84.58
53.19
24.51
-1.62
-25.05
-43.71
-54.61
-56.05
-47.34
-28.98
-4.19
22.41
46.37
66.60
84.42
102.09
122.35
147.77
181.33
223.10
269.30
312.24
343.51
355.80
344.99
312.14
252.49
172.92
88.86
16.72
-35.14
-67.11
-84.16
-91.27
-91.34
-85.68
-74.58
-59.57
-43.22
-28.80
-18.12
-11.21
-7.69
-7.51
-10.96
-18.08
-28.68
-42.18
-58.20
-75.79
-93.71
-111.11
-128.04
-145.96
-167.75
-196.47
-229.29
-262.46
-289.55
-302.78
-295.75
-266.18
-209.35
-133.46
-56.18
4.73
40.16
52.59
50.98
44.23
37.90
33.87
31.08
29.19
29.18
32.31
39.67
51.63
67.71
87.79
111.52
139.48
171.96
207.07
239.50
261.85
267.22
251.94
217.96
166.90
109.60
60.66
30.09
18.24
17.09
19.05
19.26
15.85
7.15
-6.38
-24.21
-46.54
-73.76
-105.49
-140.21
-176.53
-213.70
-252.49
-290.65
-323.26
-343.86
-346.01
-325.40
-281.80
-220.43
-143.58
-65.19
-1.69
36.60
49.49
43.77
27.54
7.28
-12.88
-30.19
-44.02
-53.45
-57.36
-55.73
-49.62
-40.64
-29.66
-16.80
-1.74
14.73
32.80
53.40
75.58
98.58
121.90
145.88
171.84
201.75
237.00
278.55
325.52
373.70
416.08
444.57
453.01
439.54
407.03
361.20
308.69
254.87
202.75
153.84
109.24
70.16
37.51
10.86
-12.22
-35.25
-61.09
-90.42
-121.36
-150.56
-174.81
-192.56
-204.65
-213.59
-222.79
-235.57
-254.31
-279.49
-308.61
-335.86
-353.24
-353.45
-333.55
-297.67
-256.67
-223.99
-209.70
-215.29
-232.48
-246.90
-244.56
-217.90
-168.05
-103.19
-34.39
29.01
81.69
122.41
152.44
173.70
187.66
195.03
196.43
193.10
187.12
181.49
179.73
185.40
201.03
226.64
258.98
291.74
317.23
328.99
324.01
303.66
272.82
237.69
202.90
170.17
138.41
105.51
70.37
33.84
-1.70
-33.86
-61.80
-86.74
-111.23
-137.54
-166.14
-195.14
-220.96
-240.16
-251.21
-255.38
-256.10
-257.24
-261.32
-268.61
-277.50
-285.74
-291.83
-295.66
-298.16
-300.70
-304.42
-309.93
-317.25
-325.70
-333.79
-339.33
-339.76
-332.89
-317.49
-293.76
-263.29
-228.60
-192.71
-158.52
-128.48
-104.19
-86.35
-74.57
-67.60
-63.65
-60.92
-57.80
-53.12
-46.22
-36.68
-24.33
-9.21
8.44
28.08
48.79
69.49
89.10
106.79
122.21
135.55
147.60
159.54
172.74
188.56
207.94
230.94
256.33
281.58
303.36
318.44
324.64
321.44
310.08
292.86
272.37
250.75
229.56
209.91
192.73
178.79
168.43
161.27
156.19
151.45
145.33
136.58
124.92
111.13
96.91
84.34
75.27
70.67
70.31
72.89
76.49
79.31
80.47
80.11
79.22
78.98
80.23
83.11
87.05
91.12
94.56
97.26
100.18
105.15
114.32
128.80
147.60
167.02
181.20
183.74
169.72
137.45
89.22
31.05
-28.84
-81.63
-119.77
-138.37
-135.82
-113.69
-75.95
-28.19
23.29
71.92
111.82
138.48
149.71
146.08
130.68
107.84
81.25
52.68
21.88
-12.25
-49.91
-89.39
-127.08
-158.93
-181.84
-194.67
-198.07
-193.76
-183.78
-169.98
-153.92
-136.85
-120.01
-104.40
-90.77
-79.42
-70.34
-63.55
-59.11
-57.11
-57.34
-59.20
-61.45
-62.53
-60.80
-55.09
-45.14
-31.74
-16.54
-1.61
11.10
20.28
25.51
27.43
27.35
26.67
26.42
27.41
30.09
34.57
40.51
47.08
53.15
57.57
59.46
58.50
55.92
53.96
54.87
59.55
66.92
74.59
79.75
80.36
75.69
67.72
59.73
54.71
53.38
53.74
52.42
46.11
32.69
11.41
-15.40
-42.96
-64.82
-74.33
-65.88
-35.86
16.23
86.61
157.07
205.46
214.89
183.85
125.42
57.23
-7.27
-61.22
-103.21
-135.19
-158.44
-172.96
-178.20
-174.78
-164.52
-149.78
-132.15
-111.68
-88.12
-61.00
-31.18
-1.88
21.34
32.42
25.30
-2.78
-46.07
-92.77
-129.75
-148.94
-149.87
-137.71
-119.14
-99.03
-79.28
-60.19
-42.78
-28.90
-20.26
-17.12
-17.92
-19.95
-20.39
-17.29
-10.28
-1.06
7.43
12.71
13.97
12.51
10.89
11.34
15.14
22.08
29.94
35.58
36.37
30.82
18.73
1.00
-20.34
-41.80
-58.67
-65.34
-58.85
-40.27
-14.64
10.92
30.03
39.42
39.74
34.30
26.78
19.51
13.18
7.71
3.18
0.10
-1.18
-1.19
-1.40
-3.78
-9.61
-18.81
-29.70
-39.21
-43.88
-40.82
-28.61
-8.30
16.12
38.33
51.43
51.00
37.55
16.44
-4.45
-18.26
-22.03
-17.39
-8.89
-1.08
3.82
6.42
8.53
11.52
15.25
18.38
19.54
18.39
15.84
13.57
13.43
16.21
21.58
28.31
35.04
40.79
45.31
48.87
51.89
54.63
56.39
55.85
51.57
42.60
28.90
11.51
-7.64
-26.17
-41.76
-52.73
-58.25
-58.32
-53.58
-45.17
-34.33
-22.43
-10.72
-0.25
8.09
13.79
16.78
17.36
16.23
14.27
12.28
10.89
10.60
11.50
13.52
16.49
20.15
24.28
28.84
33.56
38.23
42.84
47.38
51.90
56.47
61.19
66.15
71.59
77.23
82.94
88.71
94.56
100.55
106.72
113.13
119.89
127.20
134.54
141.53
147.89
153.25
157.21
159.13
158.00
152.17
144.52
135.68
126.00
115.68
104.89
93.75
82.42
71.04
59.85
49.17
38.64
28.10
17.52
6.87
-3.86
-14.67
-25.55
-36.40
-46.97
-57.41
-67.57
-77.06
-85.34
-91.80
-95.78
-96.68
-93.99
-87.33
-76.89
-62.98
-46.13
-27.10
-6.87
13.52
32.96
50.41
65.08
76.20
83.43
86.78
86.54
83.17
77.15
68.90
58.83
47.29
34.64
21.29
7.74
-5.53
-18.25
-30.36
-42.14
-53.90
-65.91
-78.23
-90.60
-102.57
-113.63
-123.47
-132.18
-140.17
-148.09
-156.66
-166.47
-177.93
-191.38
-207.05
-225.01
-244.94
-266.18
-287.77
-309.25
-331.48
-356.66
-387.34
-424.37
-464.73
-501.11
-523.91
-524.93
-500.82
-454.79
-395.67
-334.62
-281.89
-245.13
-229.18
-236.29
-265.40
-310.94
-362.27
-405.55
-427.28
-418.76
-379.08
-314.95
-237.24
-156.57
-79.99
-10.32
51.70
106.12
152.95
192.33
225.09
253.62
281.90
314.41
354.39
400.81
450.01
496.96
536.38
563.22
573.58
565.84
541.26
503.64
455.46
401.86
351.08
311.42
286.35
272.19
260.51
242.35
212.02
163.80
98.79
25.25
-45.73
-106.59
-155.46
-193.26
-221.01
-239.36
-256.22
-278.14
-306.68
-339.23
-373.17
-407.40
-439.45
-464.29
-432.87
-324.60
-165.14
-9.04
102.59
159.17
172.68
165.96
161.50
171.86
189.87
200.75
193.34
164.27
121.75
75.38
33.80
2.31
-19.52
-40.24
-65.69
-93.00
-111.18
-108.93
-81.92
-34.28
29.08
94.23
144.42
170.22
168.62
146.44
115.58
86.38
63.52
46.32
30.97
13.73
-7.03
-29.06
-47.97
-60.52
-64.79
-61.26
-52.44
-42.11
-32.66
-23.87
-14.16
-1.07
17.10
42.99
77.62
118.89
162.46
205.06
244.00
276.95
301.91
302.91
271.10
208.69
126.32
37.08
-47.02
-119.74
-179.41
-226.92
-264.89
-292.93
-309.76
-317.88
-321.18
-319.19
-312.04
-300.98
-287.98
-274.19
-256.68
-232.27
-201.86
-167.51
-124.81
-71.27
-7.30
64.10
127.61
170.77
211.54
263.39
320.83
386.95
462.15
542.42
620.04
686.56
737.84
771.20
783.69
736.90
618.31
441.79
240.89
49.17
-113.26
-229.62
-310.39
-367.58
-409.92
-435.58
-443.25
-434.61
-414.11
-387.12
-357.08
-327.47
-300.27
-276.92
-252.68
-224.08
-190.45
-153.73
-116.42
-79.13
-41.77
-2.64
38.41
81.91
124.14
158.25
177.77
180.54
170.71
155.83
144.37
140.79
145.95
156.59
168.00
176.77
181.75
183.27
181.01
174.01
160.65
140.80
116.55
91.80
70.99
57.30
51.46
51.61
54.64
57.33
57.38
53.94
47.13
37.90
27.50
17.30
8.69
2.82
0.43
1.61
5.91
12.22
19.36
26.39
32.76
38.33
43.20
47.52
51.45
55.16
58.41
61.03
63.18
65.25
67.76
71.01
75.11
80.06
85.87
91.28
94.82
95.28
92.14
85.72
77.20
68.62
62.67
61.62
64.25
67.57
68.26
63.93
53.68
38.07
19.02
-0.76
-18.87
-37.61
-60.42
-89.63
-125.03
-164.47
-205.37
-245.58
-283.62
-318.93
-355.91
-398.31
-446.48
-496.53
-542.84
-580.96
-609.01
-627.22
-610.39
-544.30
-433.08
-299.44
-169.36
-58.71
28.40
94.28
143.24
179.19
201.26
209.20
205.72
197.07
189.78
188.08
192.98
203.37
216.47
226.56
230.08
225.73
215.47
201.43
184.47
163.68
138.04
106.28
67.48
23.24
-22.42
-63.64
-95.98
-117.20
-128.07
-130.52
-129.43
-129.76
-135.55
-149.04
-164.21
-175.61
-176.82
-162.03
-127.23
-75.23
-11.90
54.82
118.18
174.84
225.09
272.20
311.65
352.04
387.25
410.29
415.30
400.44
367.90
323.45
274.56
227.11
184.20
143.32
102.32
60.61
19.84
-18.70
-53.25
-82.10
-104.96
-122.77
-139.25
-156.30
-174.00
-190.46
-205.80
-218.93
-227.45
-229.68
-226.19
-221.01
-217.88
-219.82
-228.57
-248.55
-280.49
-319.74
-357.70
-385.23
-395.91
-386.43
-358.16
-293.34
-196.37
-90.72
-2.46
57.34
91.94
109.00
114.58
111.71
102.87
88.02
70.80
56.52
50.77
54.08
62.28
69.76
72.50
70.69
65.58
62.33
68.20
89.37
128.36
183.32
249.89
317.05
370.32
394.19
381.67
337.83
276.36
212.53
157.80
117.57
91.18
75.21
65.94
61.86
64.09
73.38
87.83
102.67
112.22
111.71
99.41
76.41
46.37
15.07
-11.35
-28.30
-34.86
-34.39
-33.82
-40.35
-58.01
-85.35
-116.01
-141.99
-157.36
-160.82
-155.38
-145.91
-136.75
-130.44
-128.02
-129.77
-135.95
-146.22
-158.94
-171.08
-178.71
-179.08
-172.39
-161.72
-151.28
-144.30
-141.65
-142.01
-143.00
-141.68
-136.55
-128.38
-119.58
-112.36
-107.78
-105.56
-104.48
-102.89
-97.60
-84.87
-61.94
-27.93
16.06
67.03
120.23
171.06
208.28
223.21
216.09
193.87
163.96
131.46
99.39
69.54
42.77
19.31
-0.25
-15.70
-27.93
-38.86
-49.91
-61.33
-72.43
-82.25
-90.02
-94.71
-96.64
-96.00
-94.38
-93.63
-94.86
-98.54
-104.79
-113.36
-123.42
-134.01
-144.46
-154.74
-164.78
-173.73
-180.50
-184.02
-183.48
-178.28
-168.12
-152.99
-132.85
-110.75
-88.61
-67.78
-49.03
-32.79
-19.24
-8.49
-0.66
4.00
5.51
4.95
3.83
3.95
6.85
13.39
23.45
36.12
49.89
63.30
75.95
88.16
100.86
114.95
130.77
147.79
164.81
180.43
193.78
205.07
215.30
226.05
239.05
256.03
278.47
306.98
340.19
373.90
401.21
413.90
405.22
372.57
318.85
251.46
179.70
111.42
51.19
0.20
-42.06
-75.64
-98.92
-108.96
-102.99
-80.07
-41.90
7.57
63.34
120.43
174.42
221.19
256.56
276.36
277.38
258.71
222.71
174.91
122.59
72.74
29.73
-5.68
-36.21
-66.41
-100.75
-141.51
-187.81
-235.98
-280.92
-318.39
-346.56
-366.21
-379.40
-387.43
-389.11
-380.89
-358.66
-320.38
-268.03
-207.53
-146.69
-91.89
-45.92
-7.41
27.61
63.03
101.03
141.65
183.91
226.83
269.62
310.72
346.80
372.84
383.94
378.32
359.34
335.01
314.69
304.54
304.40
307.87
305.62
289.92
258.27
213.72
162.50
110.60
61.21
14.58
-30.41
-74.07
-115.08
-150.86
-179.42
-200.74
-216.97
-231.54
-247.48
-266.28
-287.46
-309.23
-329.30
-345.57
-356.45
-360.87
-358.31
-349.07
-334.30
-315.65
-294.59
-271.50
-245.39
-214.51
-177.61
-135.28
-90.36
-47.15
-9.91
18.73
38.40
50.64
57.94
62.72
66.77
71.09
76.28
82.76
90.87
100.67
111.69
122.57
131.29
135.45
133.06
123.22
106.88
86.68
66.47
50.17
40.56
38.79
44.22
55.06
68.97
83.43
95.91
104.01
105.59
99.27
84.96
64.30
40.54
17.66
-0.79
-12.45
-16.45
-13.09
-3.52
10.51
26.61
41.80
52.89
57.18
53.27
41.49
23.97
4.01
-14.81
-29.40
-37.67
-38.62
-32.38
-20.02
-3.50
14.47
30.88
42.71
47.51
44.02
32.57
15.21
-4.69
-23.14
-36.50
-42.25
-39.37
-28.29
-10.75
10.35
31.21
47.57
55.65
53.24
40.55
20.33
-2.89
-24.16
-39.51
-46.80
-45.88
-38.09
-25.60
-10.99
3.01
13.60
18.26
15.38
4.89
-11.48
-30.52
-48.52
-62.30
-70.01
-71.31
-66.91
-57.98
-45.68
-31.26
-16.25
-2.62
7.52
12.49
11.61
5.53
-4.04
-14.75
-24.43
-31.42
-34.82
-34.42
-30.58
-24.09
-15.97
-7.33
0.73
7.18
11.33
12.74
11.39
7.66
2.31
-3.62
-9.07
-13.07
-14.89
-14.11
-10.65
-4.77
2.94
11.52
19.80
26.53
30.60
31.23
28.13
21.53
12.22
1.50
-9.08
-18.02
-24.19
-27.01
-26.27
-22.11
-14.90
-5.16
6.16
17.52
26.92
32.27
32.11
26.33
16.24
4.25
-6.89
-14.79
-17.90
-15.42
-7.20
6.27
23.76
43.22
61.94
77.11
86.44
88.55
83.32
71.75
55.72
37.94
21.91
11.50
10.40
20.96
43.09
73.89
108.02
138.95
160.71
169.39
163.95
146.55
121.90
96.22
75.58
63.93
61.58
64.84
67.15
61.45
42.96
10.87
-31.59
-78.61
-124.17
-163.80
-195.50
-219.61
-238.12
-253.51
-267.39
-279.25
-285.79
-281.47
-260.31
-218.35
-155.63
-76.84
9.81
94.36
167.09
220.09
248.16
250.02
228.99
193.03
153.12
120.11
101.12
97.05
102.79
109.58
109.03
96.49
72.59
42.50
13.57
-7.55
-17.22
-15.83
-7.34
2.17
6.66
1.87
-13.64
-38.68
-70.32
-105.13
-140.11
-173.25
-203.69
-231.47
-257.04
-280.36
-300.54
-315.66
-323.58
-322.99
-314.33
-300.00
-283.39
-267.57
-253.80
-241.09
-227.07
-209.27
-186.31
-158.40
-126.76
-92.61
-56.44
-18.27
21.23
59.38
91.14
110.54
113.43
100.02
75.56
48.63
27.50
16.85
16.53
22.80
31.12
38.74
45.30
51.69
58.37
64.41
68.06
68.04
64.57
59.24
53.95
50.01
47.61
46.22
45.39
45.23
46.24
48.79
52.61
56.72
59.95
61.51
61.27
59.46
56.34
51.91
45.96
38.71
31.18
25.07
22.18
23.65
29.25
37.25
44.99
49.56
48.64
41.03
26.83
7.41
-14.95
-37.38
-57.11
-71.79
-79.96
-81.17
-75.92
-65.64
-52.43
-38.86
-27.47
-20.20
-17.82
-19.81
-24.63
-30.50
-36.05
-40.71
-44.57
-47.83
-50.26
-51.04
-49.15
-44.09
-36.29
-27.16
-18.41
-11.26
-5.86
-1.44
3.16
8.58
14.46
19.69
22.90
23.44
21.68
18.62
14.93
9.97
1.55
-13.27
-36.23
-66.27
-98.69
-126.32
-141.79
-140.27
-120.97
-86.97
-44.01
1.02
40.64
67.33
74.66
59.44
23.95
-23.40
-70.07
-103.89
-117.45
-110.71
-89.61
-62.33
-35.22
-10.68
12.05
34.55
57.04
77.76
93.78
102.74
104.24
100.29
95.10
93.89
101.03
117.95
142.10
167.47
187.16
196.73
196.31
190.28
184.40
182.24
183.13
183.11
177.93
166.40
151.88
140.74
139.13
149.60
169.16
190.17
203.05
199.50
174.90
129.24
66.95
-4.08
-73.94
-132.88
-173.81
-194.46
-198.15
-192.19
-184.47
-179.77
-177.59
-172.86
-159.11
-132.17
-92.42
-44.57
4.80
50.14
88.49
119.25
142.96
159.77
169.23
170.81
164.98
153.94
141.69
133.36
133.64
145.19
167.30
195.79
224.09
245.61
255.79
253.41
240.26
219.44
193.42
162.64
125.66
80.24
25.29
-37.82
-104.75
-168.56
-221.02
-254.02
-261.20
-239.04
-188.11
-113.85
-26.93
58.17
125.98
164.30
168.41
142.63
98.48
49.93
7.91
-23.04
-44.27
-59.71
-72.05
-80.79
-83.24
-77.48
-64.60
-48.76
-34.96
-26.02
-21.17
-16.92
-9.49
2.54
17.01
29.21
34.34
30.02
17.73
2.35
-9.88
-14.04
-8.85
3.07
16.31
25.15
25.79
17.46
2.01
-17.33
-37.28
-55.30
-69.59
-79.08
-83.36
-82.96
-79.41
-74.93
-71.61
-70.55
-71.57
-73.42
-74.58
-73.93
-71.04
-65.93
-58.81
-49.91
-39.64
-28.94
-19.43
-12.98
-11.05
-13.86
-20.26
-27.84
-33.69
-35.29
-31.02
-20.43
-4.05
16.67
39.62
62.22
82.01
97.15
106.92
112.11
114.86
118.19
125.00
137.14
154.80
176.03
196.79
211.51
214.20
200.04
167.19
117.20
54.98
-12.36
-77.42
-134.10
-178.73
-210.13
-229.11
-237.00
-236.36
-230.90
-225.02
-222.87
-227.05
-237.92
-253.51
-270.20
-282.52
-286.25
-279.30
-261.51
-233.95
-198.32
-156.92
-112.64
-68.39
-24.27
19.69
63.47
107.24
151.84
199.01
250.24
305.56
362.48
418.02
465.08
494.31
497.62
472.09
421.77
355.91
285.31
201.87
107.18
10.24
-76.32
-143.67
-189.40
-215.29
-224.91
-222.61
-213.12
-198.34
-180.85
-162.94
-147.63
-137.55
-134.14
-137.52
-146.38
-157.81
-165.64
-165.20
-155.00
-137.83
-120.56
-110.58
-112.02
-124.25
-142.68
-159.75
-171.77
-177.22
-176.24
-169.09
-155.09
-133.13
-102.75
-64.91
-20.81
25.88
71.60
114.03
153.02
191.02
231.66
277.43
327.08
374.72
410.36
423.77
408.31
363.87
297.91
223.09
153.43
100.31
69.70
60.96
68.17
81.67
90.54
85.66
61.91
19.49
-36.14
-95.67
-148.50
-185.04
-199.14
-189.64
-160.71
-120.88
-80.68
-49.50
-32.85
-31.24
-41.02
-57.10
-75.75
-95.90
-118.67
-145.20
-174.42
-202.25
-222.63
-229.86
-221.23
-198.63
-167.76
-136.08
-109.78
-91.82
-81.63
-76.45
-73.29
-70.48
-68.06
-66.64
-66.28
-65.63
-62.34
-54.15
-40.11
-21.11
0.53
21.76
39.98
53.53
61.96
65.72
65.84
63.47
59.49
54.31
47.79
39.65
29.81
18.70
7.50
-2.16
-8.72
-11.17
-9.25
-3.43
5.41
16.08
27.22
37.60
46.09
51.88
54.52
53.93
50.31
44.30
36.85
29.52
24.36
23.67
29.40
42.41
62.05
86.01
110.86
132.82
148.89
157.60
159.28
155.90
150.41
145.83
144.57
148.04
156.30
168.01
180.43
189.52
190.88
180.79
157.31
121.11
75.17
23.49
-30.05
-82.69
-132.61
-177.86
-215.60
-242.39
-255.36
-253.88
-240.39
-219.69
-197.19
-176.92
-160.57
-148.05
-138.82
-133.11
-132.13
-136.88
-146.74
-158.69
-167.89
-169.31
-159.74
-138.86
-109.17
-75.04
-41.10
-10.94
13.43
31.44
43.62
50.88
54.28
54.88
53.63
51.35
48.80
46.88
46.88
50.60
59.87
75.66
97.10
120.99
142.34
155.74
157.30
145.81
122.75
91.10
53.90
13.28
-29.27
-71.85
-111.39
-143.45
-163.37
-167.61
-155.01
-126.99
-87.09
-40.03
9.21
55.79
95.47
124.96
142.44
147.87
142.91
130.30
112.91
93.13
72.43
51.50
30.76
10.84
-6.96
-20.69
-28.11
-27.44
-18.14
-1.43
19.84
41.79
60.26
71.66
73.43
64.41
45.15
18.08
-12.51
-41.12
-62.70
-74.58
-77.81
-77.15
-78.94
-88.20
-106.05
-128.98
-150.15
-162.18
-159.88
-141.87
-110.51
-70.66
-27.91
12.63
46.96
72.48
87.98
93.88
92.08
85.39
76.64
67.90
59.99
52.67
45.17
36.75
27.12
16.34
4.75
-7.18
-18.87
-29.49
-38.17
-44.21
-47.38
-48.00
-46.74
-44.61
-42.89
-43.42
-48.37
-59.47
-76.79
-97.91
-118.01
-131.59
-134.72
-126.95
-111.60
-94.37
-80.78
-73.98
-73.97
-78.18
-83.09
-85.63
-83.94
-77.49
-66.77
-52.92
-37.55
-22.76
-10.86
-3.95
-3.27
-8.53
-17.70
-27.23
-32.90
-31.16
-20.24
-0.79
24.18
50.25
72.93
88.84
96.55
96.58
90.71
81.05
69.35
56.61
43.35
30.28
18.56
9.89
6.22
9.11
19.34
36.63
59.39
84.97
110.03
131.31
146.60
155.46
159.31
160.63
161.84
164.33
168.34
173.57
179.81
187.24
195.77
204.24
209.78
208.47
196.74
173.11
139.25
99.42
59.19
23.31
-5.50
-26.83
-41.80
-52.04
-59.02
-64.01
-68.38
-73.69
-81.35
-91.80
-103.87
-114.79
-121.08
-120.00
-110.55
-93.85
-72.45
-49.36
-27.14
-7.63
7.80
17.92
21.44
17.56
6.35
-10.71
-30.68
-49.72
-63.89
-70.22
-67.39
-56.38
-40.11
-22.92
-9.39
-3.05
-5.54
-16.20
-32.42
-50.42
-66.33
-77.01
-80.65
-76.90
-66.82
-52.60
-37.10
-23.39
-14.15
-10.96
-13.75
-20.54
-27.74
-31.14
-27.20
-14.27
6.78
32.76
59.10
81.08
95.04
99.05
93.13
78.98
59.50
38.18
18.54
3.58
-4.73
-5.41
1.51
15.33
34.66
57.45
80.87
101.50
115.89
121.38
116.82
102.84
81.48
55.35
26.86
-2.12
-30.14
-55.80
-77.61
-94.15
-104.78
-110.04
-111.94
-113.54
-117.96
-127.20
-141.17
-157.42
-171.42
-178.05
-173.02
-154.44
-123.72
-85.37
-45.86
-11.75
12.02
23.49
23.82
16.67
6.68
-2.05
-7.14
-8.40
-7.29
-5.80
-5.29
-5.92
-6.67
-6.28
-4.51
-2.92
-4.99
-15.23
-37.70
-74.39
-123.95
-181.01
-236.73
-280.50
-302.36
-295.86
-260.00
-199.73
-124.63
-46.20
25.25
82.86
124.11
150.32
165.07
172.67
177.19
181.79
188.52
198.14
209.96
221.92
230.95
233.46
226.36
208.17
179.57
143.40
103.86
65.32
31.06
2.97
-18.52
-33.76
-43.48
-48.62
-50.42
-50.53
-51.33
-55.58
-66.12
-84.78
-111.31
-142.70
-173.10
-194.91
-200.93
-187.06
-153.87
-106.52
-52.62
0.84
49.67
93.03
132.04
167.49
198.06
220.50
231.63
230.64
220.38
206.39
194.59
188.50
187.72
187.47
180.66
161.01
125.77
76.97
20.31
-36.61
-86.89
-125.92
-153.24
-171.88
-186.44
-200.50
-214.83
-227.54
-234.56
-231.11
-213.01
-179.77
-135.50
-88.71
-50.06
-29.32
-32.94
-61.43
-109.27
-161.06
-197.62
-203.40
-176.20
-126.97
-70.65
-18.29
25.39
59.26
87.13
110.43
129.31
144.69
159.43
177.76
197.58
214.48
221.97
215.83
195.11
162.38
121.93
78.09
34.55
-5.61
-39.25
-63.58
-76.33
-77.98
-72.30
-63.11
-53.32
-44.29
-36.11
-28.07
-19.82
-10.33
1.27
15.84
33.40
52.15
68.33
77.18
75.40
59.95
33.14
0.89
-29.54
-52.51
-65.94
-71.27
-72.01
-71.88
-73.80
-79.10
-88.51
-102.20
-119.77
-139.59
-158.40
-171.59
-173.98
-161.75
-133.58
-91.69
-41.24
11.85
63.45
112.97
162.71
215.33
270.50
323.11
363.72
381.69
369.30
325.06
255.17
171.33
87.75
17.83
-28.63
-47.60
-42.00
-20.99
3.04
19.21
21.38
10.00
-8.94
-27.42
-39.29
-42.50
-38.14
-27.90
-12.02
9.57
35.11
59.89
76.76
78.73
61.89
27.58
-20.01
-70.02
-109.44
-129.20
-128.30
-112.75
-90.58
-67.91
-47.57
-29.60
-12.33
5.34
23.05
39.66
53.86
65.42
75.14
84.35
93.89
104.18
115.16
125.03
131.96
134.29
131.46
124.09
113.39
99.64
83.17
64.43
44.18
23.89
4.95
-11.51
-24.35
-32.82
-39.29
-46.72
-57.57
-73.42
-88.37
-98.20
-101.10
-96.11
-83.39
-67.87
-55.02
-48.45
-48.83
-54.92
-65.00
-80.70
-103.72
-134.56
-176.69
-231.22
-295.34
-363.26
-428.92
-487.16
-537.85
-580.38
-583.89
-528.66
-416.69
-272.74
-128.18
-17.34
62.98
119.65
159.77
190.46
213.53
230.18
243.63
255.93
266.17
271.22
264.50
244.32
214.83
179.30
140.90
102.23
65.17
31.64
4.29
-17.03
-32.19
-41.08
-46.53
-51.71
-58.39
-67.55
-76.65
-82.00
-82.05
-75.84
-63.00
-45.23
-24.84
-4.07
15.23
32.59
48.24
62.26
75.45
89.25
104.72
122.98
145.67
169.90
195.58
223.55
254.07
285.55
313.66
332.09
334.96
319.48
286.62
242.43
195.38
154.18
124.78
109.05
105.07
108.65
114.84
117.06
109.32
86.71
47.48
-6.36
-68.83
-130.54
-180.43
-209.10
-214.88
-203.84
-187.93
-179.48
-187.10
-213.13
-253.45
-299.65
-330.25
-327.15
-284.96
-215.14
-135.62
-59.20
9.85
72.39
130.08
182.83
226.40
256.93
272.22
273.89
266.36
254.25
240.46
225.49
207.78
183.22
147.38
96.65
32.37
-41.84
-121.61
-201.93
-276.22
-336.38
-375.10
-387.73
-374.01
-337.94
-287.13
-230.18
-174.02
-122.01
-74.16
-29.14
14.45
57.75
102.46
150.62
203.71
260.73
317.16
365.24
396.00
402.71
383.85
344.05
291.87
236.41
184.15
138.00
98.31
64.67
37.28
16.86
3.48
-4.73
-11.64
-21.89
-38.41
-60.98
-86.40
-109.96
-127.84
-139.19
-146.55
-155.04
-170.74
-197.63
-236.07
-282.57
-330.60
-371.99
-398.88
-405.65
-390.62
-357.85
-314.96
-271.44
-236.73
-217.66
-216.13
-227.69
-242.77
-250.98
-247.39
-233.13
-214.79
-201.03
-197.47
-202.66
-207.96
-202.58
-180.59
-146.51
-110.13
-80.12
-58.86
-41.37
-18.68
16.48
64.58
129.45
198.67
252.59
277.82
275.71
257.98
236.70
218.16
202.29
185.55
162.93
133.53
100.89
70.42
46.25
29.38
18.24
9.86
1.22
-10.69
-26.81
-43.93
-58.16
-66.88
-69.95
-68.97
-66.40
-64.48
-65.50
-69.86
-76.22
-82.97
-88.80
-93.63
-98.03
-102.59
-107.50
-112.79
-117.35
-119.02
-118.68
-116.42
-112.70
-108.15
-103.35
-98.62
-94.22
-90.17
-86.26
-82.52
-78.73
-74.95
-71.19
-67.34
-63.04
-57.79
-51.06
-42.54
-32.39
-20.84
-8.62
3.46
14.73
24.87
33.97
42.43
50.58
58.48
66.07
72.93
78.79
83.72
88.41
93.99
101.70
112.38
125.98
141.76
158.38
174.60
189.70
203.87
217.94
233.23
251.18
273.10
299.74
330.54
362.93
392.06
411.81
416.64
403.81
374.74
334.69
290.76
249.35
214.23
186.22
164.18
146.47
131.98
120.13
110.36
101.51
92.04
80.60
66.82
51.56
36.54
23.66
14.14
7.98
4.01
0.32
-4.73
-11.69
-19.44
-25.66
-27.81
-24.56
-16.70
-6.92
1.08
4.23
1.40
-6.10
-15.51
-23.89
-29.49
-31.95
-31.99
-31.00
-30.81
-33.56
-41.38
-55.44
-74.73
-95.54
-112.24
-119.39
-115.34
-103.78
-92.69
-90.59
-102.19
-125.99
-154.81
-179.07
-189.83
-182.99
-159.85
-125.47
-85.80
-45.67
-8.28
24.52
51.52
74.04
93.12
109.26
122.57
133.67
143.70
153.67
163.90
173.37
183.32
193.49
202.48
208.92
213.09
217.48
226.04
242.77
269.31
307.98
355.04
400.55
431.73
438.14
415.98
368.99
306.70
214.89
94.84
-39.07
-165.10
-265.57
-333.29
-369.22
-378.61
-366.71
-343.25
-313.95
-285.40
-264.73
-257.87
-267.18
-290.35
-324.45
-359.53
-384.59
-389.74
-374.78
-348.69
-323.86
-309.15
-306.27
-310.87
-316.59
-319.75
-317.87
-311.58
-302.90
-293.33
-282.74
-269.84
-253.16
-231.68
-207.10
-181.06
-155.42
-131.62
-110.22
-90.80
-72.37
-53.96
-34.90
-15.47
4.31
24.08
43.41
62.01
79.85
97.00
113.57
129.62
145.21
161.75
180.80
203.45
229.30
255.91
278.58
291.36
288.78
267.87
231.47
185.92
139.60
100.89
76.52
70.09
81.56
107.57
142.90
185.04
231.36
279.36
326.84
372.61
416.68
459.99
503.48
546.59
589.53
627.20
650.00
647.24
612.39
546.55
458.50
361.33
246.02
116.13
-17.06
-138.41
-236.32
-306.56
-350.87
-374.02
-381.68
-379.60
-369.23
-352.69
-332.81
-312.74
-294.35
-277.96
-262.25
-245.66
-227.54
-205.79
-181.13
-157.16
-139.75
-134.33
-143.33
-165.01
-193.75
-221.90
-240.89
-246.40
-236.37
-213.97
-184.99
-155.66
-131.61
-117.39
-116.28
-128.77
-152.69
-183.28
-214.85
-242.68
-264.93
-282.53
-297.15
-308.21
-311.14
-299.48
-268.36
-217.79
-153.01
-82.11
-12.61
50.82
106.43
153.83
192.72
222.26
242.19
254.30
262.92
273.81
292.31
321.57
361.52
408.83
457.09
498.12
523.96
529.65
515.83
489.36
461.33
442.70
439.39
449.49
464.35
472.76
466.11
441.61
402.03
352.85
298.71
241.74
182.03
119.85
57.33
-1.38
-51.26
-88.75
-112.99
-125.78
-130.30
-129.68
-125.80
-118.93
-108.67
-95.00
-79.31
-64.41
-53.89
-50.90
-57.10
-72.11
-93.74
-118.97
-145.11
-170.69
-195.77
-221.62
-250.08
-282.58
-319.19
-357.90
-394.79
-424.72
-442.85
-446.19
-434.70
-411.37
-381.31
-350.00
-321.65
-298.35
-280.06
-265.35
-252.34
-239.46
-225.58
-210.03
-192.37
-172.37
-150.06
-125.78
-100.12
-73.74
-47.22
-21.07
4.03
26.97
46.23
60.28
68.03
69.41
65.35
57.59
47.98
38.05
28.82
20.88
14.65
10.32
7.72
6.21
4.73
2.17
-2.17
-8.23
-15.19
-21.85
-27.17
-30.65
-32.36
-32.87
-32.99
-33.72
-36.33
-42.43
-53.92
-72.58
-99.62
-135.09
-177.63
-224.24
-270.69
-312.19
-344.22
-363.48
-368.29
-358.84
-336.77
-304.60
-265.09
-220.87
-174.25
-127.33
-82.03
-40.10
-2.93
28.61
54.29
74.51
90.18
102.33
111.90
119.32
124.40
126.49
124.90
119.29
110.05
98.32
85.66
73.74
63.94
57.07
53.20
51.73
51.13
48.96
42.30
28.43
6.21
-22.85
-54.38
-82.29
-100.47
-104.95
-94.96
-72.49
-41.05
-3.97
36.33
78.35
120.71
161.84
200.33
235.73
268.87
301.08
332.73
361.84
384.12
394.57
390.00
370.85
341.42
308.28
277.48
252.66
234.32
220.67
209.41
199.07
189.46
181.21
175.10
171.19
168.96
167.51
165.76
162.75
157.67
149.84
138.53
123.06
102.97
78.36
50.03
19.50
-11.14
-39.65
-64.04
-83.10
-96.71
-105.71
-111.37
-114.77
-116.42
-116.18
-113.66
-108.52
-101.12
-92.48
-84.04
-76.99
-71.96
-69.02
-67.83
-68.09
-69.27
-71.36
-74.55
-78.79
-83.25
-86.52
-87.20
-84.72
-79.67
-72.71
-65.36
-59.12
-54.50
-50.51
-45.24
-36.94
-25.01
-10.11
7.78
27.52
47.40
66.06
83.42
100.90
120.95
146.26
178.80
220.22
267.40
312.04
342.52
348.34
324.18
271.60
198.36
104.59
1.30
-95.16
-170.18
-218.29
-242.43
-248.43
-241.50
-225.94
-206.14
-184.85
-165.46
-149.96
-138.77
-130.42
-121.97
-110.77
-97.04
-83.90
-74.78
-74.24
-85.98
-112.35
-152.32
-200.77
-249.40
-287.43
-305.84
-301.43
-281.97
-255.95
-232.12
-216.42
-210.24
-211.52
-216.97
-224.17
-231.75
-240.36
-249.50
-258.28
-265.11
-268.39
-267.71
-264.45
-261.29
-260.99
-265.27
-273.62
-284.38
-294.95
-302.60
-305.26
-302.05
-293.23
-279.51
-261.59
-239.15
-211.71
-178.72
-139.76
-94.89
-44.77
9.21
65.18
120.84
173.92
221.85
261.95
291.57
308.55
311.46
299.85
274.62
237.86
192.64
142.43
90.58
40.00
-6.99
-48.55
-83.20
-109.20
-125.03
-129.70
-122.94
-105.19
-77.70
-42.02
-0.17
45.56
93.21
140.92
186.71
228.69
265.31
295.56
319.46
337.68
351.42
363.11
374.87
387.94
402.78
419.67
438.66
460.31
483.96
507.12
528.66
546.50
558.02
561.29
556.97
547.49
538.83
535.77
540.10
556.48
586.03
624.28
661.49
686.32
686.91
660.01
607.02
532.92
454.72
388.01
339.67
306.28
279.74
249.73
217.67
189.24
170.73
179.67
228.72
318.64
438.11
570.88
697.11
809.82
905.19
903.31
760.57
489.41
153.96
-173.90
-416.71
-590.70
-717.33
-810.05
-875.35
-908.24
-902.16
-860.65
-798.35
-733.26
-684.41
-654.81
-642.30
-644.45
-650.77
-654.46
-654.20
-652.54
-650.40
-648.25
-636.18
-604.49
-548.81
-465.57
-358.96
-239.38
-120.95
-16.33
63.79
114.09
133.19
125.81
112.56
105.07
106.44
110.75
111.06
99.58
73.16
32.95
-16.63
-68.58
-117.57
-159.39
-191.87
-214.36
-228.08
-234.22
-233.77
-227.92
-218.44
-208.53
-200.20
-194.09
-189.40
-184.79
-178.77
-169.60
-155.64
-135.60
-109.32
-76.56
-37.53
6.60
53.18
98.26
137.54
167.14
184.30
187.68
177.97
157.62
130.16
99.39
68.90
41.73
19.90
4.21
-5.93
-11.93
-15.55
-18.36
-21.31
-24.58
-27.70
-29.88
-30.50
-29.38
-26.74
-23.01
-18.64
-13.82
-8.54
-2.70
3.78
10.81
18.06
25.03
31.25
36.31
40.00
42.29
43.33
43.33
42.61
41.33
39.61
37.51
35.01
32.20
29.11
25.84
22.41
18.85
15.06
10.84
6.10
0.91
-4.35
-9.04
-12.36
-13.65
-12.54
-9.17
-4.05
2.01
8.11
13.54
17.78
20.55
21.76
21.38
19.45
16.12
11.79
6.94
2.35
-1.32
-3.65
-4.62
-4.64
-4.38
-4.52
-5.55
-7.74
-10.95
-14.90
-19.26
-23.65
-27.82
-31.54
-34.65
-36.89
-38.06
-37.91
-36.24
-33.07
-28.57
-23.19
-17.50
-12.10
-7.47
-3.95
-1.73
-0.83
-1.36
-3.36
-6.89
-11.87
-17.96
-24.58
-30.97
-36.32
-39.92
-41.40
-40.68
-37.90
-33.33
-27.12
-19.39
-10.19
0.31
11.78
23.64
35.14
45.69
54.80
62.28
68.01
71.86
73.64
73.27
70.87
67.00
62.51
58.12
54.20
50.50
46.39
41.28
35.00
27.92
20.76
14.31
8.91
4.62
1.35
-0.90
-1.79
-1.04
1.30
4.44
6.98
7.23
4.03
-2.74
-12.19
-22.78
-33.08
-42.25
-50.08
-56.56
-61.52
-64.30
-64.04
-60.17
-52.86
-43.08
-32.23
-21.55
-11.65
-2.51
6.29
15.15
24.06
32.65
40.24
46.20
50.07
51.69
51.07
48.29
43.46
36.73
28.41
18.91
8.75
-1.63
-12.00
-22.37
-32.89
-43.78
-55.19
-67.17
-79.72
-92.64
-105.46
-117.29
-126.87
-132.64
-133.15
-127.43
-115.21
-97.08
-74.35
-48.76
-22.18
3.59
26.99
46.80
62.23
73.03
79.38
81.87
81.29
78.53
74.43
69.78
65.29
61.59
59.25
58.45
59.04
60.31
61.22
60.69
57.87
52.38
44.35
34.38
23.29
12.00
1.32
-8.15
-15.89
-21.46
-24.63
-25.46
-24.31
-21.88
-18.88
-15.98
-13.54
-11.67
-10.29
-9.43
-9.28
-10.09
-12.18
-15.50
-19.73
-24.27
-28.45
-31.69
-33.61
-34.11
-33.32
-31.54
-29.17
-26.62
-24.22
-22.14
-20.43
-18.94
-17.50
-15.83
-13.75
-11.05
-7.63
-3.45
1.40
6.68
12.14
17.56
22.90
28.21
33.63
39.22
44.83
50.25
55.20
59.58
63.43
66.82
69.63
71.40
71.50
69.36
64.82
58.27
50.35
41.59
32.11
21.60
9.65
-3.62
-17.24
-29.50
-38.49
-42.97
-42.78
-38.89
-32.97
-26.71
-21.29
-17.29
-14.82
-13.75
-13.98
-15.28
-17.26
-19.23
-20.38
-19.99
-17.64
-13.48
-7.91
-1.68
4.61
10.47
15.59
19.86
23.28
26.01
28.20
30.04
31.47
32.32
32.14
30.42
26.80
21.03
13.07
2.89
-9.46
-23.92
-40.11
-57.24
-74.01
-88.71
-99.73
-105.88
-106.73
-102.55
-94.23
-82.87
-69.58
-55.41
-41.25
-27.94
-16.24
-6.75
0.19
4.43
6.03
5.26
2.37
-2.25
-8.18
-14.83
-21.64
-27.96
-33.26
-37.05
-38.93
-38.63
-36.09
-31.49
-25.17
-17.67
-9.44
-0.73
8.47
18.35
29.12
40.88
53.55
66.82
80.11
92.71
103.77
112.39
117.79
119.36
116.81
110.24
100.16
87.41
73.16
58.60
44.82
32.65
22.51
14.44
8.22
3.44
-0.41
-3.82
-7.23
-10.89
-14.81
-18.82
-22.64
-25.95
-28.58
-30.49
-31.80
-32.70
-33.40
-33.90
-34.16
-33.96
-33.04
-31.32
-28.89
-26.05
-23.16
-20.59
-18.48
-16.84
-15.61
-14.68
-14.21
-14.36
-15.29
-17.02
-19.43
-22.17
-24.88
-27.32
-29.25
-30.72
-31.75
-32.32
-32.43
-31.93
-30.59
-28.19
-24.61
-19.72
-13.58
-6.29
1.97
10.85
19.95
28.72
36.47
42.48
46.33
48.05
48.23
47.89
48.13
49.97
54.06
60.38
68.23
76.63
84.58
91.44
96.82
100.37
101.74
100.53
95.67
85.80
69.95
48.27
22.52
-4.54
-29.91
-50.93
-65.60
-73.64
-75.84
-73.10
-65.51
-52.36
-33.15
-8.85
17.93
43.40
62.44
70.12
63.03
40.14
2.47
-48.21
-110.23
-181.74
-251.99
-305.97
-329.92
-319.32
-280.83
-226.84
-169.07
-115.51
-69.90
-32.82
-4.09
16.27
28.28
32.86
32.17
28.95
25.57
23.88
25.06
28.93
34.24
39.55
44.15
48.10
51.83
55.45
58.79
61.51
62.35
59.40
50.86
36.64
18.98
1.92
-10.10
-13.95
-9.08
2.28
16.45
29.20
38.62
44.96
49.22
51.54
51.05
46.47
37.54
25.76
13.81
4.85
1.02
1.89
5.76
10.86
15.87
20.21
24.07
27.90
32.51
38.30
45.17
52.80
60.71
68.00
73.27
74.83
71.22
62.84
51.42
39.75
31.08
28.49
34.04
48.04
68.97
93.60
116.18
129.48
126.45
102.27
56.60
-6.32
-79.33
-154.95
-227.70
-288.55
-329.20
-345.02
-337.60
-312.90
-278.14
-238.72
-196.97
-152.29
-100.54
-41.09
26.92
99.89
171.38
234.28
282.97
314.94
319.51
298.83
261.70
218.57
176.40
137.38
99.72
60.33
17.46
-27.58
-68.46
-99.06
-116.48
-121.08
-115.02
-101.57
-84.26
-66.32
-50.40
-37.08
-27.61
-23.27
-24.36
-28.95
-33.02
-31.75
-21.53
-1.80
24.85
52.23
73.32
83.41
81.80
71.29
56.17
40.14
25.08
11.72
-0.01
-10.14
-18.29
-24.10
-27.81
-30.26
-32.39
-34.80
-37.20
-38.85
-38.79
-36.34
-31.36
-24.37
-16.27
-8.08
-0.60
5.77
11.04
15.45
19.38
23.14
26.69
29.62
31.36
31.61
30.61
29.14
28.11
28.19
29.58
31.74
33.47
33.15
29.43
22.00
12.03
2.18
-3.82
-2.39
8.05
25.76
46.09
63.38
73.84
77.02
75.44
72.84
72.05
73.51
75.22
73.79
65.84
48.93
21.27
-18.68
-71.76
-133.94
-195.13
-241.46
-262.37
-256.09
-229.10
-191.09
-150.39
-111.89
-77.36
-47.27
-22.31
-3.87
7.10
11.20
10.70
8.56
7.53
9.26
13.80
19.75
24.82
27.21
26.45
23.51
20.06
17.70
17.44
19.29
22.28
24.96
26.13
25.41
23.34
20.95
19.32
19.24
20.99
24.28
28.50
33.05
37.53
41.84
45.92
49.69
52.83
54.87
55.29
53.68
49.80
43.81
36.17
27.64
18.99
10.93
3.94
-1.74
-6.00
-8.97
-10.87
-12.07
-12.73
-12.90
-12.40
-11.01
-8.46
-4.30
1.53
8.89
17.24
25.94
34.11
40.86
45.23
46.51
44.48
38.93
31.21
21.59
10.85
-0.13
-10.42
-19.34
-26.49
-31.44
-34.51
-36.21
-37.46
-38.95
-41.18
-44.51
-48.89
-55.79
-63.17
-69.62
-73.74
-74.82
-72.18
-65.16
-53.58
-37.56
-17.49
6.28
32.68
60.46
87.18
110.37
128.06
138.21
139.47
131.32
114.61
90.86
62.42
31.00
-1.57
-32.75
-61.00
-85.04
-103.96
-117.18
-125.39
-121.95
-105.51
-77.75
-41.33
-1.86
34.81
63.58
80.78
84.43
74.03
53.54
27.37
1.27
-23.04
-45.69
-67.17
-87.33
-104.82
-117.90
-125.38
-133.91
-141.32
-147.93
-154.54
-162.33
-172.81
-187.10
-206.16
-229.70
-256.51
-274.50
-277.41
-262.38
-231.31
-190.68
-148.62
-113.96
-91.22
-80.40
-76.91
-77.13
-77.93
-77.60
-75.73
-70.68
-64.04
-55.56
-45.25
-32.68
-18.98
-4.92
9.29
23.90
42.69
64.03
88.86
117.06
148.13
180.52
213.44
247.20
282.81
325.23
370.05
412.71
444.64
456.80
443.51
405.99
352.12
273.20
209.89
165.51
140.62
129.40
123.49
115.28
99.80
75.00
41.76
9.67
-15.89
-25.74
-14.20
19.48
71.52
134.58
199.96
244.14
252.05
217.38
152.82
76.30
0.98
-66.85
-125.00
-172.60
-209.50
-232.50
-243.20
-243.61
-238.73
-233.93
-232.78
-236.23
-243.30
-252.36
-259.66
-263.64
-263.17
-259.39
-253.97
-247.53
-239.28
-227.76
-211.79
-189.74
-161.95
-129.37
-94.82
-61.36
-30.89
-3.75
21.11
45.49
72.27
98.57
123.03
144.15
160.78
172.65
180.37
185.28
188.95
193.27
199.69
209.36
221.50
233.40
241.26
241.43
231.95
213.23
187.86
159.38
131.59
106.75
85.44
67.37
52.00
39.13
28.62
20.18
12.98
6.43
-0.01
-6.51
-12.71
-18.10
-22.21
-24.94
-26.52
-27.34
-27.63
-27.49
-27.04
-26.35
-25.63
-25.09
-24.92
-25.18
-25.76
-26.42
-26.92
-27.20
-27.31
-27.32
-27.37
-27.39
-27.21
-26.61
-25.49
-23.82
-21.82
-19.80
-18.07
-16.90
-16.27
-15.93
-15.49
-14.59
-12.95
-10.56
-7.60
-4.31
-0.88
2.63
6.29
10.24
14.49
18.86
23.00
26.53
29.22
31.13
32.65
34.32
36.70
40.18
44.88
50.59
56.86
63.23
69.26
74.82
80.11
85.63
91.81
98.81
106.20
113.23
119.18
123.57
126.28
127.14
125.70
121.48
114.72
106.85
100.32
97.54
99.31
103.97
107.68
105.96
95.58
76.08
49.76
20.50
-7.84
-32.71
-53.40
-70.84
-87.33
-106.04
-130.19
-162.24
-202.82
-249.70
-297.54
-338.71
-365.63
-374.23
-366.15
-348.65
-332.60
-328.48
-341.97
-371.14
-406.09
-431.83
-434.30
-405.18
-344.19
-258.75
-161.75
-68.31
7.67
56.80
76.48
69.45
43.10
8.77
-20.47
-33.41
-24.40
5.08
48.13
95.98
137.92
162.97
162.22
130.27
66.19
-26.48
-140.11
-263.14
-367.20
-423.27
-415.06
-349.24
-250.60
-145.56
-50.58
28.74
92.97
143.16
180.44
201.19
201.84
183.20
152.33
119.97
95.92
82.92
80.13
79.77
70.93
49.41
15.71
-23.85
-60.55
-87.07
-99.62
-96.26
-78.51
-50.04
-14.42
25.06
65.85
105.19
139.77
166.51
184.08
192.14
191.53
184.38
173.22
160.70
148.84
138.76
131.11
126.94
127.28
133.18
145.66
164.80
189.48
216.66
241.72
259.63
266.63
261.23
244.75
220.82
193.91
168.08
145.51
126.39
110.05
96.13
85.04
77.70
74.77
75.89
79.70
83.62
84.84
81.63
74.22
64.28
54.02
45.40
39.49
36.48
34.48
29.79
17.96
-4.59
-39.53
-85.99
-140.64
-199.24
-252.01
-288.13
-301.64
-294.10
-271.92
-241.85
-208.61
-174.94
-142.92
-114.26
-90.99
-74.59
-64.90
-59.68
-55.77
-50.73
-43.58
-35.03
-26.46
-19.42
-14.67
-11.61
-8.33
-2.70
6.25
18.36
31.58
43.12
49.90
49.04
39.01
20.60
-2.50
-24.62
-39.38
-41.79
-31.66
-13.76
4.29
15.56
16.95
9.88
-1.57
-12.87
-21.70
-28.36
-34.38
-40.82
-47.33
-52.33
-54.23
-52.63
-47.66
-40.20
-31.42
-21.77
-10.98
1.47
15.77
31.10
45.57
55.67
59.11
54.47
41.95
23.13
0.68
-22.31
-43.13
-60.01
-71.94
-78.77
-81.39
-80.53
-77.17
-72.33
-67.02
-62.25
-59.13
-58.22
-59.68
-63.35
-68.58
-74.60
-80.66
-86.22
-91.06
-95.37
-99.24
-102.91
-106.79
-111.16
-116.17
-121.80
-127.94
-134.39
-140.98
-147.06
-152.14
-155.90
-158.09
-158.53
-156.86
-152.44
-144.27
-134.58
-124.22
-113.78
-103.72
-94.29
-85.59
-77.52
-69.75
-62.01
-54.16
-45.79
-36.92
-27.88
-19.13
-10.96
-3.46
3.65
10.77
18.28
26.66
35.92
45.71
55.63
65.52
75.65
86.72
99.45
114.35
131.47
150.01
168.76
186.39
202.04
215.50
227.35
238.61
250.73
265.38
283.90
306.73
332.67
358.47
379.32
390.33
388.27
372.95
347.45
316.79
285.98
258.26
234.47
213.77
194.89
177.27
161.30
147.85
137.28
128.90
120.96
111.46
99.03
83.37
65.27
46.01
26.47
6.62
-14.30
-37.19
-62.46
-89.86
-118.85
-149.16
-180.70
-213.17
-245.33
-274.59
-297.51
-310.98
-313.34
-304.97
-287.86
-264.62
-237.48
-207.90
-176.83
-145.20
-113.99
-84.18
-56.15
-29.55
-3.49
22.89
49.91
77.04
103.10
126.62
146.23
160.84
169.57
171.78
167.14
155.91
139.17
118.79
97.07
76.21
57.82
42.60
30.52
21.00
13.42
7.29
2.31
-1.76
-5.22
-8.37
-11.53
-15.00
-18.82
-22.80
-26.53
-29.52
-31.46
-32.30
-32.33
-31.97
-31.65
-31.49
-31.30
-30.57
-28.74
-25.39
-20.42
-13.98
-6.40
1.80
10.11
17.85
24.29
28.67
30.44
29.39
25.80
20.42
14.23
8.29
3.39
-0.03
-1.96
-2.71
-2.78
-2.75
-3.17
-4.32
-6.29
-8.96
-12.06
-15.26
-18.29
-20.89
-22.84
-24.08
-24.61
-24.61
-24.36
-24.12
-24.10
-24.40
-25.06
-26.04
-27.19
-28.20
-28.57
-27.74
-25.32
-21.28
-16.05
-10.42
-5.26
-1.12
1.88
3.94
5.40
6.51
7.26
7.61
7.68
7.70
8.08
9.11
10.78
12.88
15.20
17.76
20.83
24.91
30.36
37.16
44.93
52.86
60.01
65.51
68.65
68.93
65.99
59.85
50.79
39.39
26.38
12.32
-2.66
-18.81
-36.68
-56.76
-78.87
-101.85
-123.49
-140.89
-151.09
-151.81
-141.70
-121.07
-91.98
-57.68
-21.90
12.14
42.14
66.95
86.45
101.68
113.59
122.64
128.88
132.47
134.29
135.86
138.78
144.20
153.07
164.79
177.55
189.01
197.52
202.68
205.02
205.28
203.94
202.16
200.17
196.88
189.74
175.12
149.34
109.62
55.26
-17.25
-102.56
-188.05
-258.75
-304.56
-324.16
-323.03
-308.81
-287.66
-263.31
-236.81
-209.31
-183.03
-160.62
-143.88
-132.73
-125.54
-119.85
-113.57
-104.88
-93.58
-81.09
-69.52
-60.56
-54.59
-50.78
-47.73
-44.19
-39.09
-32.39
-24.95
-18.08
-12.77
-9.21
-6.77
-4.43
-1.19
3.82
10.86
19.65
29.49
39.59
49.35
58.29
66.01
72.19
76.35
78.03
76.85
72.65
65.57
56.22
45.46
34.29
23.81
14.65
7.35
2.26
-0.50
-1.02
0.60
4.10
9.20
15.71
23.06
30.83
38.70
46.44
53.86
60.94
67.71
74.34
81.16
87.96
94.77
101.64
108.66
115.95
123.56
131.48
139.78
148.62
157.34
165.55
172.91
179.05
183.63
186.08
185.51
180.29
173.67
166.51
159.26
152.14
145.16
138.25
131.21
123.81
115.91
107.45
97.73
86.40
73.38
58.76
42.85
26.10
9.16
-7.20
-22.12
-35.30
-46.34
-54.88
-60.67
-63.62
-63.82
-61.47
-56.85
-50.21
-42.18
-33.21
-23.70
-14.05
-4.65
4.09
11.80
18.16
22.97
26.06
27.50
27.53
26.58
25.07
23.52
22.33
21.92
22.48
24.09
26.62
29.74
32.94
35.44
36.45
35.18
31.18
24.47
15.66
5.72
-4.18
-13.09
-20.58
-26.88
-32.70
-38.90
-46.07
-54.32
-63.26
-72.29
-81.00
-89.57
-98.78
-109.63
-122.86
-138.43
-155.35
-171.83
-186.26
-197.45
-205.35
-210.86
-215.42
-220.65
-228.17
-239.62
-256.21
-278.06
-303.05
-326.61
-342.77
-346.53
-336.51
-316.00
-291.78
-270.94
-257.48
-250.67
-245.87
-237.41
-221.62
-198.30
-170.07
-140.54
-113.31
-90.60
-73.63
-63.42
-61.17
-67.35
-80.41
-95.86
-107.15
-108.50
-96.79
-72.72
-40.85
-7.95
19.52
37.83
46.79
49.00
46.45
40.91
33.88
26.78
20.75
16.59
14.91
15.87
18.63
17.16
6.28
-15.33
-44.74
-77.63
-110.54
-141.24
-168.01
-188.93
-209.80
-232.95
-253.76
-263.03
-254.09
-226.97
-186.98
-141.13
-95.53
-67.91
-69.86
-100.75
-150.27
-207.68
-267.70
-328.99
-390.93
-452.31
-529.01
-631.19
-754.44
-882.39
-998.55
-1094.59
-1169.51
-1225.74
-1156.10
-911.09
-529.20
-113.70
246.80
518.98
709.33
838.26
925.82
986.64
1012.43
997.76
951.30
891.62
835.95
791.99
758.92
731.83
705.10
660.61
584.59
481.82
369.33
265.24
181.54
124.70
97.73
100.14
118.31
137.46
147.92
146.96
136.36
119.13
98.72
78.29
59.93
39.93
15.70
-11.29
-37.21
-56.26
-65.73
-66.15
-60.23
-50.72
-41.35
-33.98
-27.76
-20.63
-10.68
1.93
15.19
25.88
31.59
31.14
25.53
17.93
12.19
11.78
18.25
31.79
46.81
59.85
68.83
73.50
75.22
76.08
78.16
82.52
88.86
95.27
99.29
97.98
89.14
72.70
50.97
28.06
8.56
-3.97
-8.12
-4.13
6.09
20.18
36.40
53.97
72.90
93.40
115.31
137.85
160.16
181.49
201.99
223.00
246.10
271.68
297.64
318.97
328.94
321.39
292.98
244.62
181.28
110.38
39.36
-26.17
-83.37
-131.90
-172.73
-207.35
-237.44
-265.09
-292.83
-322.66
-354.54
-385.19
-408.10
-415.56
-401.93
-366.35
-313.42
-251.63
-189.96
-135.05
-89.90
-54.32
-26.47
-4.10
15.05
33.23
52.67
74.78
99.30
123.79
144.21
156.08
155.73
141.32
113.53
75.93
34.78
-2.04
-26.90
-34.71
-24.81
-1.06
29.69
60.42
86.38
106.23
121.22
133.25
143.19
150.08
151.65
145.58
130.53
106.52
75.06
39.07
2.89
-28.02
-48.13
-53.54
-43.56
-21.22
7.53
36.26
60.27
77.72
88.72
93.60
91.56
80.97
61.41
35.68
10.05
-7.74
-12.17
-2.90
14.62
31.57
39.70
34.78
17.73
-6.54
-32.06
-54.00
-69.87
-78.80
-80.38
-73.79
-58.13
-33.78
-3.43
27.55
52.26
64.29
59.72
38.19
2.71
-41.31
-87.41
-129.06
-160.33
-176.52
-174.93
-155.78
-122.52
-81.39
-39.86
-4.54
20.37
33.72
36.87
32.39
22.70
9.72
-5.17
-20.39
-33.75
-42.60
-44.62
-38.63
-25.11
-6.12
15.31
35.96
52.92
63.85
66.99
61.50
47.91
28.73
8.45
-7.65
-15.03
-11.55
1.95
22.03
43.91
63.09
76.20
81.36
77.83
66.01
47.93
27.69
10.78
2.37
5.47
19.58
40.88
63.38
81.24
90.85
91.88
86.42
77.06
65.86
54.21
43.47
34.77
29.12
27.42
30.53
38.99
52.46
69.92
89.93
110.15
126.10
131.36
119.79
88.53
39.45
-21.64
-87.06
-149.48
-200.76
-230.93
-233.93
-211.80
-171.77
-120.51
-61.96
0.67
63.13
121.64
169.88
200.89
210.31
198.37
169.56
131.10
88.08
47.51
13.93
-13.49
-41.37
-79.01
-133.61
-206.52
-291.60
-376.60
-446.53
-488.94
-497.78
-474.15
-424.49
-357.35
-280.97
-201.99
-126.03
-58.39
-5.09
26.92
32.01
8.44
-39.40
-101.23
-163.05
-211.22
-235.78
-232.56
-203.51
-155.13
-95.95
-34.23
23.42
72.91
112.12
140.65
159.26
169.43
173.83
176.75
183.80
200.18
228.15
264.75
301.40
326.09
327.36
299.22
243.71
170.32
92.05
20.39
-38.39
-84.18
-121.48
-156.44
-193.79
-235.15
-278.42
-318.63
-349.25
-364.41
-360.77
-339.07
-303.98
-262.11
-219.77
-180.90
-146.83
-117.30
-91.99
-71.33
-56.12
-46.40
-40.48
-35.26
-27.43
-14.95
1.96
21.23
39.87
55.72
68.38
79.52
91.89
108.18
129.98
157.36
189.18
223.39
257.52
288.64
313.66
329.82
335.39
330.50
317.15
298.47
277.39
255.70
233.83
211.58
189.16
167.72
149.13
135.05
125.84
120.28
116.06
110.99
103.94
95.20
86.26
79.06
74.95
74.20
76.03
78.95
81.47
82.64
82.47
81.82
81.91
83.75
87.56
92.82
98.40
103.17
106.72
109.48
112.64
117.63
125.59
136.61
149.36
160.79
166.55
162.18
144.18
111.22
64.88
9.39
-49.59
-106.62
-158.11
-202.78
-241.14
-275.11
-307.14
-339.67
-374.13
-410.09
-444.48
-471.80
-485.30
-478.82
-450.34
-403.18
-344.90
-284.06
-227.03
-176.39
-131.73
-91.44
-53.51
-18.05
13.16
38.89
60.56
82.56
110.77
149.83
201.26
264.43
333.70
399.21
449.90
477.52
479.34
458.69
423.64
384.58
354.09
339.62
340.62
349.21
354.04
345.35
318.24
273.91
200.90
103.23
-1.69
-92.18
-155.36
-190.60
-203.11
-197.70
-177.37
-145.29
-104.61
-61.71
-24.77
1.20
13.97
15.53
10.70
4.20
-2.23
-9.21
-19.96
-38.44
-66.83
-103.94
-145.88
-188.55
-225.38
-254.09
-277.28
-300.09
-327.72
-363.15
-406.59
-455.99
-508.30
-559.74
-588.07
-575.91
-516.88
-419.84
-304.25
-191.22
-96.73
-29.05
11.65
30.15
31.70
21.35
3.00
-20.04
-44.64
-67.26
-85.81
-96.92
-99.31
-95.65
-89.86
-85.66
-84.49
-85.85
-87.76
-88.18
-85.47
-79.45
-72.23
-66.24
-62.96
-61.78
-62.97
-65.07
-66.47
-65.69
-62.33
-57.33
-52.05
-47.79
-45.04
-43.69
-42.86
-41.71
-39.45
-35.81
-30.99
-25.39
-19.55
-13.79
-8.37
-3.20
1.89
7.10
12.67
18.91
26.02
33.98
42.49
51.00
58.97
66.07
72.34
78.30
84.83
92.85
102.94
115.06
128.62
142.71
156.48
169.47
181.76
193.91
206.83
221.49
238.61
258.29
279.43
299.75
315.83
324.19
322.35
309.85
288.39
261.26
232.28
204.71
180.78
161.55
147.24
137.65
132.31
130.72
132.18
135.78
140.15
143.45
143.49
138.33
127.35
111.60
93.66
76.62
62.83
52.92
45.93
40.06
33.80
26.71
19.39
12.96
8.42
6.28
6.46
8.57
12.02
16.22
20.58
24.54
27.77
30.21
32.08
33.66
35.19
36.69
37.93
38.47
37.74
35.16
30.28
22.89
12.86
0.29
-14.61
-31.29
-48.76
-65.77
-81.13
-94.22
-105.25
-115.19
-124.95
-134.77
-143.69
-149.91
-151.56
-147.91
-139.71
-128.83
-117.23
-105.88
-94.69
-83.05
-70.87
-59.12
-49.93
-45.80
-48.64
-59.21
-76.81
-99.56
-124.83
-149.65
-170.89
-186.01
-193.61
-194.00
-189.13
-181.88
-174.87
-169.54
-165.56
-161.10
-153.46
-139.75
-117.56
-85.61
-44.05
4.97
57.34
107.61
150.04
180.29
196.66
200.45
195.18
185.26
174.36
164.64
156.71
150.04
143.64
136.72
128.77
119.43
108.52
96.16
82.82
69.52
57.58
48.08
41.49
37.38
34.56
31.57
27.37
21.69
15.01
8.39
2.94
-0.61
-2.18
-2.20
-1.43
-0.59
-0.13
-0.34
-1.25
-2.93
-5.41
-8.83
-13.21
-18.46
-24.50
-31.23
-38.53
-46.15
-53.62
-60.10
-64.65
-66.42
-65.13
-61.12
-55.35
-49.05
-43.24
-38.62
-35.49
-33.86
-33.63
-34.65
-36.63
-38.98
-40.80
-40.88
-37.91
-30.91
-19.57
-4.52
12.71
30.07
45.84
58.98
69.59
78.58
86.99
95.37
103.61
111.00
116.67
120.22
121.68
121.71
121.02
120.15
119.22
118.28
117.25
116.20
115.39
115.04
115.41
116.47
117.85
118.80
118.53
115.96
110.22
100.92
88.32
73.64
58.69
45.48
35.93
31.30
31.32
34.58
39.10
43.08
45.94
48.20
51.07
56.01
63.81
73.39
82.18
87.02
85.31
75.85
58.62
34.05
3.62
-30.81
-67.76
-106.12
-145.26
-185.12
-226.04
-268.69
-314.25
-361.63
-401.97
-423.51
-416.03
-376.85
-312.47
-233.98
-151.32
-72.04
2.34
70.13
128.86
175.74
209.36
229.53
238.02
237.88
229.93
218.12
202.38
180.63
149.49
106.17
51.03
-12.23
-78.47
-145.80
-208.24
-264.70
-315.69
-362.51
-404.52
-438.59
-459.77
-447.38
-421.45
-379.41
-325.31
-265.73
-209.15
-162.39
-129.26
-109.45
-99.19
-94.72
-85.79
-67.13
-31.74
16.80
65.94
99.45
107.60
91.79
60.06
27.73
5.20
-4.18
-8.59
-16.77
-34.70
-62.30
-95.20
-127.42
-146.79
-144.79
-117.37
-66.24
3.12
81.78
160.41
224.68
257.54
249.74
203.16
129.55
43.32
-38.88
-112.99
-176.51
-227.26
-263.35
-283.34
-287.71
-279.73
-264.56
-246.67
-229.20
-211.80
-192.86
-170.37
-142.71
-109.69
-72.96
-35.39
0.41
32.21
59.84
83.69
104.46
122.94
139.57
154.20
166.12
174.71
179.15
179.62
176.55
170.81
163.83
157.33
153.07
152.47
156.71
166.67
183.18
206.17
233.94
262.84
287.51
302.54
304.32
292.81
271.62
246.79
224.34
208.12
199.06
195.79
195.96
197.50
199.13
200.12
199.80
197.69
193.49
187.62
181.23
175.80
172.63
172.18
173.84
176.19
177.74
177.63
176.21
174.80
174.97
177.44
181.22
183.62
180.89
169.68
148.38
117.80
80.84
41.36
2.99
-32.05
-63.20
-91.26
-117.96
-145.17
-174.14
-204.34
-232.90
-254.83
-264.69
-259.43
-240.55
-214.79
-191.82
-180.18
-182.93
-196.39
-211.61
-218.71
-211.43
-189.18
-156.32
-118.96
-81.56
-45.14
-7.72
33.82
81.66
135.58
192.68
247.79
294.70
327.37
341.64
336.51
314.35
279.96
238.41
193.07
144.59
91.91
34.26
-26.71
-86.38
-138.58
-178.52
-205.34
-222.74
-237.70
-257.53
-287.18
-327.22
-373.57
-418.43
-452.42
-467.02
-456.88
-421.68
-367.09
-304.15
-246.65
-206.96
-191.50
-197.81
-215.06
-228.36
-225.37
-201.80
-163.39
-123.02
-94.64
-87.41
-102.48
-134.31
-174.29
-214.34
-248.26
-270.95
-277.24
-262.21
-223.33
-162.63
-88.15
-12.32
51.48
93.44
110.02
104.61
85.28
61.71
42.01
30.64
28.22
32.51
40.28
49.02
58.07
68.62
82.91
103.41
131.62
167.32
208.07
248.95
283.02
302.81
302.72
281.20
242.07
193.62
146.21
108.86
86.65
79.75
84.40
95.12
106.72
115.43
118.87
115.57
104.42
84.87
57.40
24.10
-11.17
-43.41
-67.72
-80.80
-81.86
-72.81
-57.39
-39.89
-23.88
-11.66
-4.29
-2.03
-4.78
-12.23
-23.60
-37.27
-50.74
-61.05
-65.33
-61.68
-49.77
-30.91
-7.90
15.90
37.45
54.89
67.85
77.17
84.03
89.00
91.65
90.70
84.71
73.07
56.60
37.71
19.92
6.79
0.87
2.99
11.87
24.46
36.76
45.03
46.85
41.87
31.76
19.56
8.66
1.72
-0.02
2.98
8.91
15.30
19.81
21.14
19.52
16.65
14.88
16.07
20.79
27.78
34.56
38.10
35.80
26.04
8.72
-14.72
-40.90
-64.83
-80.78
-83.73
-70.94
-42.71
-2.24
45.70
95.84
143.33
183.80
213.44
229.39
230.65
218.74
197.24
170.52
142.05
113.35
84.36
54.61
24.48
-4.58
-30.87
-53.71
-74.16
-94.39
-116.32
-140.07
-163.54
-182.91
-194.37
-195.61
-186.82
-170.51
-150.33
-129.63
-110.11
-91.57
-72.41
-51.05
-27.10
-1.99
21.58
40.80
53.98
61.19
63.80
63.58
61.57
57.65
50.89
40.57
26.85
11.09
-4.40
-17.31
-25.94
-29.88
-30.14
-28.92
-29.00
-32.92
-42.18
-56.66
-74.70
-93.50
-109.99
-121.62
-126.96
-126.02
-119.98
-110.69
-99.82
-88.13
-74.89
-58.28
-36.22
-7.58
26.65
63.35
98.09
126.77
147.11
159.40
165.84
169.08
170.87
171.21
168.96
162.99
153.56
142.58
132.87
126.69
124.62
125.35
126.27
124.86
119.40
109.31
94.83
76.52
55.23
32.24
9.34
-11.60
-29.25
-43.44
-55.27
-66.29
-77.75
-89.71
-100.96
-109.54
-113.41
-111.15
-102.12
-86.57
-65.36
-39.94
-12.29
15.21
39.94
59.59
72.63
78.81
79.08
75.40
69.99
64.43
59.14
53.10
44.39
31.12
12.32
-11.56
-38.68
-66.56
-93.20
-117.82
-141.33
-165.70
-192.87
-223.40
-255.48
-284.98
-306.34
-314.35
-305.73
-280.16
-240.23
-190.60
-136.91
-84.46
-37.45
1.53
31.49
53.01
67.52
76.78
82.28
84.80
84.57
81.53
75.78
67.93
59.24
51.42
46.22
45.06
48.40
55.56
64.53
72.66
77.60
78.19
74.98
69.83
64.98
61.75
59.79
57.06
50.99
39.67
23.14
3.41
-16.12
-31.92
-41.53
-44.14
-40.67
-33.21
-24.25
-15.91
-9.44
-5.15
-2.66
-1.55
-1.67
-3.50
-7.88
-15.58
-26.80
-40.69
-55.50
-68.80
-78.24
-81.93
-78.93
-69.34
-54.32
-35.76
-15.71
4.15
23.09
41.33
60.11
80.94
104.91
131.95
160.54
188.06
211.41
228.18
237.18
238.95
235.45
229.26
222.96
218.33
216.42
217.54
221.78
229.17
239.86
253.91
270.77
289.22
307.05
321.55
330.12
331.01
323.67
308.74
287.55
261.61
232.28
200.61
167.56
134.24
101.88
71.66
44.30
19.91
-2.04
-22.41
-41.90
-60.74
-78.43
-93.97
-106.14
-113.95
-117.02
-115.78
-111.37
-105.37
-99.41
-94.66
-91.73
-90.61
-90.88
-92.17
-94.46
-98.20
-104.31
-113.78
-127.15
-144.26
-164.33
-186.13
-208.66
-231.35
-254.49
-278.96
-305.90
-336.36
-370.90
-409.57
-451.37
-494.31
-535.23
-570.40
-596.48
-611.66
-616.34
-613.07
-605.33
-595.80
-584.93
-570.69
-549.49
-518.17
-475.65
-423.53
-365.61
-306.35
-249.54
-197.56
-151.68
-112.55
-81.05
-58.28
-44.94
-40.78
-44.07
-52.06
-61.71
-70.67
-77.69
-82.85
-86.77
-89.87
-91.76
-91.06
-85.70
-73.83
-54.55
-28.44
2.43
35.21
67.21
96.68
123.34
148.26
173.05
199.06
226.54
254.63
281.52
305.36
324.96
340.44
353.15
365.44
380.22
399.84
425.05
453.77
480.87
498.96
500.56
480.61
438.43
378.35
308.29
237.39
173.48
121.60
83.62
59.03
45.98
42.27
46.19
56.67
73.13
94.94
120.60
147.04
169.76
184.02
186.46
176.58
157.00
132.49
107.87
86.16
67.78
51.44
35.81
20.88
8.47
1.02
-0.03
4.60
12.10
19.02
23.34
25.58
28.65
36.52
52.34
77.14
109.53
146.31
183.49
217.10
243.57
259.83
263.76
254.76
234.42
206.65
176.88
150.52
131.20
119.65
113.61
109.09
102.55
92.89
82.15
74.34
73.46
81.76
99.03
123.21
151.46
180.86
208.47
230.88
244.33
245.47
232.81
207.88
174.91
139.52
106.65
79.06
57.10
39.49
24.63
11.43
-0.64
-11.75
-21.96
-31.49
-40.78
-50.39
-60.74
-71.97
-83.77
-95.58
-106.68
-116.48
-124.79
-131.84
-138.01
-143.41
-147.55
-149.37
-147.66
-141.67
-131.83
-119.99
-109.15
-102.41
-101.90
-107.87
-118.63
-131.39
-143.57
-154.21
-164.41
-176.72
-193.57
-215.80
-241.95
-269.12
-294.55
-316.94
-336.71
-354.57
-370.18
-381.76
-387.48
-387.64
-385.27
-384.64
-387.83
-392.18
-391.00
-377.69
-351.06
-317.94
-290.55
-279.56
-287.33
-305.40
-318.86
-313.80
-284.17
-233.87
-173.45
-113.80
-60.96
-14.95
27.52
68.57
107.22
140.17
164.56
180.51
191.96
205.79
229.13
266.86
318.49
378.25
436.64
482.42
505.76
501.10
468.85
414.96
348.63
275.96
200.81
125.47
52.21
-15.76
-74.20
-118.70
-146.18
-156.15
-157.36
-159.49
-168.90
-186.54
-209.58
-234.27
-258.30
-281.48
-305.00
-340.92
-398.52
-479.33
-575.71
-674.86
-764.28
-835.06
-882.55
-904.91
-916.23
-928.99
-948.91
-973.92
-999.32
-1022.91
-1045.90
-1070.44
-1024.94
-870.97
-613.70
-303.60
-3.84
242.50
420.38
534.99
593.30
620.16
621.22
598.31
555.45
501.85
448.81
404.90
375.76
361.59
361.08
360.62
349.40
323.53
286.97
247.56
212.08
184.45
165.81
156.94
150.86
142.21
129.66
116.15
106.43
104.19
110.98
126.27
149.06
174.14
197.05
215.51
229.83
241.80
252.86
263.02
270.72
274.06
270.39
259.29
243.11
226.05
212.28
204.07
200.85
199.87
198.03
193.32
185.45
175.37
164.11
152.18
140.80
130.92
123.55
119.65
120.14
125.47
135.27
148.11
161.96
177.50
195.53
216.84
241.72
270.25
302.11
336.37
371.20
404.34
437.75
472.78
509.62
546.58
581.45
612.51
639.18
661.52
679.18
695.54
709.81
716.82
708.20
677.42
623.26
550.80
469.12
354.74
201.37
18.05
-171.62
-342.08
-476.07
-568.79
-624.88
-653.82
-666.01
-665.02
-653.85
-634.73
-610.98
-583.39
-549.55
-505.32
-448.91
-383.21
-311.86
-241.75
-175.84
-118.62
-71.52
-33.52
-3.38
18.18
28.78
28.73
14.03
-9.25
-35.52
-60.53
-82.39
-101.16
-117.90
-133.68
-147.49
-157.95
-162.98
-163.58
-161.98
-160.98
-163.02
-169.56
-180.47
-194.24
-207.72
-216.11
-216.98
-209.16
-192.79
-168.96
-139.42
-105.61
-70.35
-36.07
-3.28
26.79
53.39
76.18
95.23
110.92
123.79
136.45
148.53
160.47
171.31
179.64
183.80
182.26
173.87
158.05
135.25
103.85
68.53
33.18
0.73
-27.16
-50.03
-68.37
-83.28
-95.51
-106.01
-114.14
-119.53
-121.75
-120.77
-117.16
-111.96
-106.29
-100.96
-96.15
-90.85
-84.36
-75.88
-64.83
-51.13
-35.82
-21.25
-10.96
-8.81
-17.24
-36.31
-62.70
-90.75
-114.41
-129.64
-135.64
-134.50
-129.54
-123.09
-117.35
-112.36
-107.21
-101.13
-93.98
-86.16
-77.78
-68.17
-55.88
-39.59
-18.50
6.83
34.55
62.18
86.94
105.95
116.38
115.98
103.69
81.09
52.84
26.08
8.45
5.29
17.64
42.24
73.49
106.29
138.22
169.38
200.68
231.77
259.81
280.21
288.68
283.09
264.54
236.76
204.49
171.71
141.02
113.89
91.18
73.76
62.09
55.97
54.29
55.02
55.73
54.27
49.43
41.20
30.82
20.01
10.56
3.70
-0.16
-1.33
-0.81
0.06
-0.06
-2.08
-6.18
-11.83
-17.92
-23.18
-26.63
-27.96
-27.46
-25.78
-23.50
-20.84
-17.74
-13.96
-9.31
-3.81
2.07
7.68
12.55
16.64
20.48
24.98
31.05
39.37
50.19
62.70
75.20
85.49
91.80
93.32
90.35
83.98
75.69
66.66
56.64
43.62
24.52
-3.44
-41.69
-89.92
-146.24
-206.82
-263.67
-307.31
-330.85
-333.23
-318.31
-292.10
-260.19
-226.98
-195.22
-165.69
-137.88
-110.34
-81.74
-50.38
-15.35
22.75
61.83
99.55
134.16
164.36
188.36
202.38
202.85
187.26
155.21
107.62
47.99
-16.94
-78.82
-130.41
-168.63
-191.68
-199.09
-187.40
-157.75
-114.83
-63.70
-8.33
48.36
102.83
155.12
207.80
264.47
325.28
379.37
412.91
414.32
392.02
346.23
275.29
174.24
47.77
-94.50
-240.08
-375.22
-479.52
-534.85
-536.50
-492.69
-420.39
-336.68
-255.19
-184.16
-126.01
-79.61
-43.24
-17.50
-1.59
7.39
14.19
22.65
34.75
51.76
73.30
96.45
115.83
128.10
133.53
136.93
144.52
160.11
184.59
212.20
235.77
247.25
241.79
218.31
178.59
125.03
59.36
-14.00
-89.80
-159.47
-214.57
-249.01
-261.20
-253.96
-227.23
-189.73
-148.50
-107.55
-68.22
-31.60
1.31
29.63
53.31
73.15
89.22
102.75
114.45
124.71
133.18
139.09
141.40
139.95
135.38
128.16
120.03
112.78
107.89
106.09
107.56
111.42
116.84
123.02
128.73
133.51
137.14
139.59
141.09
142.19
142.90
143.62
144.82
146.57
148.86
151.08
151.85
148.87
145.00
140.54
135.44
129.72
123.36
116.57
109.63
102.81
96.46
90.99
85.95
81.15
76.52
72.07
67.84
63.91
60.34
57.34
55.16
53.41
51.87
50.35
48.70
46.80
44.52
41.75
38.53
35.02
31.06
26.75
22.22
17.01
10.90
4.18
-2.41
-8.22
-12.96
-16.97
-20.59
-24.17
-28.65
-34.52
-41.56
-48.97
-55.84
-61.61
-66.11
-69.39
-71.65
-74.88
-80.48
-88.43
-97.48
-106.34
-114.44
-121.87
-128.94
-135.93
-147.72
-167.28
-193.44
-221.62
-247.16
-267.67
-282.74
-292.95
-299.07
-311.42
-336.61
-372.88
-411.53
-443.97
-466.34
-478.92
-483.99
-484.21
-497.19
-534.39
-593.52
-660.84
-722.37
-771.24
-806.95
-832.11
-850.08
-883.77
-948.29
-1040.98
-1144.61
-1241.40
-1322.31
-1385.96
-1434.29
-1343.82
-1057.64
-618.02
-139.96
277.23
594.73
817.95
969.00
1070.48
1140.34
1171.00
1157.24
1108.31
1043.87
981.10
927.35
882.76
844.01
808.18
758.06
682.18
586.01
485.10
393.69
318.27
259.93
216.86
187.37
160.49
129.08
93.21
57.74
27.08
-2.16
-28.95
-53.51
-74.87
-94.86
-110.83
-115.66
-101.65
-65.87
-13.27
45.09
94.92
125.24
131.22
118.89
101.55
93.15
101.14
126.77
165.42
208.66
248.72
272.05
270.21
243.68
200.17
148.18
92.93
37.58
-14.77
-60.44
-96.27
-119.30
-129.00
-129.24
-124.04
-116.73
-108.90
-100.18
-89.26
-75.10
-56.40
-32.93
-5.55
24.36
55.88
86.94
117.17
147.43
179.24
214.44
252.89
291.01
322.18
338.85
335.99
313.73
277.02
232.98
187.59
143.29
99.20
54.09
9.18
-31.24
-62.12
-81.69
-93.38
-103.88
-118.60
-137.41
-153.52
-156.69
-138.34
-95.62
-32.36
43.34
122.34
196.53
259.05
303.56
324.26
317.50
283.74
228.37
160.26
88.89
21.27
-39.26
-92.49
-139.45
-180.79
-216.22
-245.13
-267.53
-284.58
-298.44
