1679578051.00
64.000000
-0.00
-0.00
-0.00
-0.00
-0.00
-0.00
-0.00
-0.00
-0.00
-0.00
0.00
0.01
0.01
-0.00
-0.03
-0.05
-0.05
0.00
0.13
0.36
0.66
1.01
1.37
1.72
2.06
2.40
2.79
3.24
3.80
4.42
5.06
5.66
6.20
6.68
7.15
7.68
8.31
9.14
10.09
11.04
11.88
12.56
13.14
13.76
14.65
15.96
17.91
20.32
22.90
25.38
27.58
29.57
31.68
34.32
37.81
42.54
48.15
54.10
59.83
64.97
69.58
74.14
79.34
85.71
93.76
103.00
112.62
121.73
129.77
136.75
143.30
150.75
157.77
166.64
177.95
191.79
206.97
220.57
228.25
225.36
208.53
176.87
132.76
80.05
23.07
-34.94
-92.44
-149.16
-205.23
-260.37
-313.74
-363.87
-409.83
-450.91
-486.50
-515.74
-537.23
-549.22
-549.96
-538.37
-514.21
-478.67
-433.88
-382.45
-327.02
-269.84
-212.63
-156.66
-102.95
-52.37
-5.90
35.58
71.43
101.35
125.50
144.38
158.69
169.15
176.37
180.75
182.57
182.07
179.51
175.23
169.65
163.18
156.15
148.81
141.30
133.69
126.02
118.33
110.69
103.16
95.80
88.68
81.83
75.25
68.95
62.95
57.25
51.86
46.78
42.03
37.59
33.45
29.61
26.07
22.81
19.83
17.11
14.67
12.48
10.54
8.83
7.35
6.07
4.97
4.05
3.27
2.62
2.10
1.67
1.33
1.06
0.85
0.69
0.58
0.51
0.46
0.43
0.42
0.43
0.44
0.47
0.51
0.55
0.59
0.65
0.70
0.77
0.84
0.91
0.99
1.08
1.18
1.28
1.40
1.53
1.66
1.82
1.99
2.18
2.38
2.62
2.87
3.15
3.47
3.81
4.19
4.61
5.06
5.55
6.08
6.65
7.26
7.93
8.64
9.39
10.19
11.03
11.92
12.85
13.84
14.89
16.00
17.16
18.38
19.63
20.86
22.03
23.06
23.85
24.29
24.28
23.73
22.57
20.75
18.32
15.30
11.77
7.88
3.76
-0.42
-4.54
-8.47
-12.12
-15.44
-18.41
-21.03
-23.30
-25.27
-26.94
-28.31
-29.37
-30.08
-30.39
-30.20
-29.48
-28.13
-26.19
-23.65
-20.60
-17.07
-13.17
-8.99
-4.63
-0.18
4.31
8.69
12.85
16.73
20.32
23.60
26.60
29.38
32.03
34.69
37.27
39.75
42.15
44.51
46.86
49.30
51.93
54.89
58.42
62.25
66.26
70.32
74.29
78.09
81.64
84.95
88.13
91.39
94.45
97.13
99.31
100.84
101.48
100.96
98.78
94.05
89.32
85.50
83.12
82.49
83.66
86.62
91.31
97.69
105.81
115.72
126.78
138.28
149.34
159.01
166.44
171.11
172.96
172.34
169.91
165.90
160.38
153.13
143.69
131.62
116.70
99.13
79.41
58.17
35.58
11.58
-14.12
-41.97
-72.40
-105.90
-142.92
-183.65
-227.42
-272.38
-315.15
-351.60
-378.05
-392.41
-394.95
-387.93
-374.60
-358.04
-340.54
-323.46
-307.72
-294.17
-283.45
-275.68
-269.94
-264.29
-256.26
-243.66
-225.38
-201.75
-174.56
-146.31
-119.51
-95.86
-75.79
-58.55
-42.73
-27.00
-10.74
5.79
21.69
35.93
47.76
57.00
63.93
68.94
72.40
74.49
75.20
74.60
72.83
70.06
66.42
61.73
55.67
47.87
38.25
27.27
15.95
5.58
-2.72
-8.41
-11.73
-13.52
-14.78
-16.31
-18.38
-20.76
-22.97
-24.63
-25.68
-26.48
-27.61
-29.56
-32.51
-36.12
-39.67
-42.24
-43.02
-41.53
-37.74
-31.97
-24.84
-17.10
-9.43
-2.43
3.47
8.05
11.29
13.38
14.67
15.55
16.34
17.21
18.06
18.69
18.82
18.35
17.39
16.28
15.41
15.16
15.64
16.76
18.32
20.04
21.62
22.85
23.55
23.61
23.01
21.86
20.40
18.98
17.92
17.42
17.46
17.85
18.25
18.41
18.15
17.47
16.57
15.63
14.90
14.48
14.34
14.29
14.04
13.23
11.60
9.06
5.70
1.93
-1.68
-4.40
-5.51
-4.51
-1.26
3.92
10.36
17.16
23.50
28.88
33.13
36.51
39.39
42.07
44.63
46.98
48.87
50.10
50.60
50.39
49.68
48.71
47.70
46.81
46.10
45.52
44.99
44.40
43.62
42.62
41.39
40.02
38.65
37.42
36.44
35.81
35.54
35.52
35.67
35.79
35.76
35.42
34.62
33.32
31.50
29.22
26.63
23.90
21.20
18.63
16.24
13.97
11.78
9.56
7.20
4.54
1.37
-2.55
-7.32
-12.78
-18.48
-23.59
-27.19
-28.59
-27.55
-24.43
-20.07
-15.49
-11.52
-8.68
-7.08
-6.61
-7.05
-8.16
-9.75
-11.58
-13.36
-14.78
-15.58
-15.61
-14.91
-13.65
-12.08
-10.50
-9.00
-7.61
-6.22
-4.69
-3.02
-1.34
0.03
0.83
0.80
-0.03
-1.49
-3.28
-5.10
-6.84
-8.49
-10.20
-12.15
-14.45
-17.12
-20.05
-23.03
-25.83
-28.24
-30.15
-31.56
-32.60
-33.51
-34.60
-36.10
-38.23
-41.00
-44.17
-47.30
-49.77
-50.93
-50.38
-48.08
-44.47
-40.31
-36.38
-33.31
-31.29
-30.18
-29.56
-29.06
-28.42
-27.65
-26.93
-26.41
-26.24
-26.37
-26.68
-26.99
-27.13
-26.97
-26.41
-25.44
-23.98
-22.04
-19.65
-16.85
-13.73
-10.46
-7.17
-3.98
-0.94
1.98
4.87
7.75
10.52
13.00
14.95
16.25
16.98
17.31
17.51
17.71
17.89
17.93
17.74
17.31
16.71
15.98
14.97
13.39
10.92
7.39
2.99
-1.71
-5.89
-8.71
-9.57
-8.34
-5.29
-0.97
3.93
8.86
13.47
17.57
21.23
24.59
27.78
30.84
33.67
36.09
37.93
39.14
39.76
39.97
39.88
39.47
38.72
37.57
36.11
34.52
33.04
31.80
30.78
29.82
28.68
27.27
25.55
23.58
21.41
19.12
16.73
14.38
12.24
10.44
9.09
8.10
7.25
6.21
4.73
2.63
-0.04
-3.16
-6.54
-9.97
-13.37
-16.68
-19.97
-23.34
-26.86
-30.45
-33.79
-36.33
-37.41
-36.57
-33.63
-28.90
-23.01
-16.76
-10.73
-5.22
-0.22
4.48
8.97
13.31
17.36
20.89
23.67
25.56
26.59
26.89
26.71
26.23
25.68
25.15
24.71
24.45
24.39
24.65
25.16
25.87
26.47
26.65
26.07
24.56
22.12
18.91
15.24
11.35
7.48
3.69
0.01
-3.51
-6.80
-9.73
-12.28
-14.47
-16.41
-18.17
-19.74
-21.08
-22.09
-22.78
-23.29
-23.85
-24.75
-26.25
-28.46
-31.37
-34.73
-37.99
-40.39
-41.09
-39.47
-35.37
-29.28
-22.18
-15.20
-9.21
-4.67
-1.43
0.96
3.01
5.08
7.33
9.73
12.20
14.66
17.06
19.39
21.61
23.73
25.76
27.77
29.80
31.82
33.75
35.45
36.80
37.67
38.01
37.90
37.36
36.50
35.38
34.08
32.74
31.52
30.59
30.02
29.79
29.67
29.41
28.72
27.49
25.68
23.34
20.58
17.45
14.01
10.26
6.28
2.19
-1.84
-5.62
-9.01
-11.87
-14.25
-16.24
-18.00
-19.76
-21.73
-24.14
-27.02
-30.26
-33.40
-35.72
-36.42
-34.92
-31.17
-25.77
-19.71
-13.97
-9.24
-5.62
-2.86
-0.58
1.45
3.28
4.76
5.69
5.93
5.44
4.33
2.81
1.28
0.16
-0.14
0.63
2.36
4.66
7.04
9.07
10.62
11.81
12.91
14.18
15.77
17.68
19.84
22.16
24.57
26.91
28.87
30.01
29.93
28.46
25.73
22.26
18.62
15.30
12.57
10.37
8.49
6.76
5.07
3.31
1.42
-0.75
-3.38
-6.54
-10.08
-13.76
-17.25
-20.29
-22.99
-25.75
-29.19
-33.93
-40.25
-47.74
-55.46
-62.11
-66.48
-67.90
-66.34
-62.44
-57.07
-51.17
-45.39
-40.12
-35.48
-31.45
-27.91
-24.66
-21.58
-18.59
-15.78
-13.36
-11.56
-10.47
-10.03
-10.01
-10.12
-10.10
-9.82
-9.28
-8.49
-7.51
-6.43
-5.35
-4.51
-4.21
-4.69
-6.03
-8.01
-10.11
-11.67
-12.19
-11.53
-10.00
-8.24
-6.90
-6.50
-7.26
-9.20
-12.17
-15.95
-20.21
-24.49
-28.21
-30.76
-31.67
-30.81
-28.41
-25.11
-21.66
-18.77
-16.94
-16.38
-17.08
-18.82
-21.23
-23.64
-25.20
-24.98
-22.15
-16.36
-7.96
2.04
12.18
21.01
27.50
31.30
32.72
32.54
31.64
30.66
29.93
29.46
29.01
28.49
28.00
27.81
28.20
29.33
31.06
33.03
34.88
36.37
37.53
38.49
39.37
40.07
40.33
39.81
38.31
35.82
32.62
29.17
25.96
23.33
21.44
20.17
19.27
18.38
17.17
15.35
12.83
9.60
5.87
1.92
-1.96
-5.52
-8.72
-11.61
-14.47
-17.64
-21.46
-26.03
-31.19
-36.39
-40.79
-43.40
-43.43
-40.50
-34.82
-27.13
-18.42
-9.76
-1.92
4.71
10.11
14.47
18.06
21.10
23.58
25.51
26.79
27.42
27.62
27.68
27.87
28.41
29.29
30.36
31.40
32.19
32.54
32.36
31.48
29.82
27.37
24.20
20.51
16.61
12.77
9.22
6.17
3.68
1.81
0.54
-0.26
-0.85
-1.52
-2.60
-4.37
-6.90
-10.15
-13.85
-17.70
-21.44
-25.02
-28.52
-32.21
-36.37
-41.20
-46.66
-52.42
-57.79
-61.75
-63.19
-61.18
-55.32
-46.08
-34.63
-22.55
-11.32
-1.86
5.69
11.77
17.11
22.28
27.45
32.53
37.12
40.88
43.62
45.31
46.11
46.25
45.97
45.38
44.52
43.31
41.68
39.59
37.14
34.56
32.20
30.44
29.57
29.81
31.11
33.36
36.35
39.90
43.78
47.67
51.17
53.67
54.73
54.08
51.91
48.75
45.30
42.13
39.42
36.98
34.35
31.11
26.94
21.83
16.07
10.18
4.87
0.97
-0.86
-0.26
2.64
7.14
12.24
16.93
20.45
22.54
23.34
23.13
22.24
20.89
19.23
17.42
15.72
14.39
13.67
13.64
14.26
15.46
17.22
19.61
22.74
26.62
31.02
35.52
39.56
42.61
44.34
44.73
44.01
42.63
41.04
39.58
38.44
37.58
36.82
35.95
34.71
32.85
30.14
26.27
20.93
13.86
4.95
-5.54
-17.00
-28.45
-38.76
-46.83
-51.78
-53.05
-50.53
-44.61
-36.07
-26.03
-15.61
-5.69
3.32
11.51
19.15
26.46
33.29
39.04
42.83
43.78
41.39
35.64
26.98
16.14
3.88
-9.08
-22.18
-34.93
-46.89
-57.59
-66.61
-73.61
-78.52
-81.56
-83.19
-84.01
-84.59
-85.35
-86.42
-87.78
-89.21
-90.52
-91.52
-92.11
-92.25
-92.04
-91.64
-91.23
-91.10
-91.43
-92.32
-93.57
-94.67
-94.79
-93.04
-88.78
-81.79
-72.49
-61.73
-50.56
-39.90
-30.30
-21.90
-14.51
-7.80
-1.46
4.65
10.60
16.22
21.31
25.59
28.86
31.10
32.44
33.16
33.51
33.73
33.88
33.87
33.61
33.00
32.09
30.91
29.57
28.03
26.30
24.29
21.87
18.95
15.53
11.72
7.72
3.83
0.27
-2.84
-5.57
-8.08
-10.58
-13.27
-16.23
-19.43
-22.69
-25.60
-27.62
-28.10
-26.45
-22.48
-16.53
-9.45
-2.32
3.87
8.55
11.75
13.89
15.54
17.17
18.96
20.84
22.67
24.31
25.65
26.73
27.64
28.41
29.09
29.68
30.15
30.52
30.80
31.00
31.18
31.33
31.38
31.18
30.57
29.41
27.66
25.49
23.20
21.19
19.75
18.93
18.61
18.47
18.16
17.48
16.40
15.02
13.43
11.67
9.60
7.08
3.95
0.16
-4.29
-9.30
-14.64
-19.92
-24.56
-27.80
-28.93
-27.59
-23.94
-18.71
-12.96
-7.72
-3.70
-1.00
0.65
1.74
2.72
3.84
5.13
6.53
7.90
9.22
10.48
11.66
12.78
13.83
14.79
15.61
16.27
16.73
16.92
16.75
16.14
15.04
13.56
11.89
10.31
9.07
8.32
8.04
8.02
7.99
7.71
7.06
6.03
4.75
3.29
1.66
-0.15
-2.20
-4.46
-6.82
-9.13
-11.25
-13.11
-14.73
-16.17
-17.49
-18.74
-19.97
-21.29
-22.76
-24.33
-25.70
-26.38
-25.69
-23.11
-18.53
-12.30
-5.19
1.95
8.43
13.97
18.64
22.69
26.30
29.49
32.15
34.18
35.64
36.71
37.75
39.03
40.68
42.55
44.32
45.63
46.18
45.89
44.78
42.98
40.57
37.57
33.99
29.81
25.12
20.08
14.86
9.70
4.75
0.15
-4.03
-7.70
-10.95
-13.84
-16.47
-18.79
-20.68
-21.86
-22.19
-21.80
-21.23
-21.40
-23.34
-27.81
-34.93
-44.18
-54.47
-64.42
-72.73
-78.35
-80.69
-79.60
-75.46
-69.08
-61.70
-54.85
-49.92
-47.80
-48.56
-51.41
-54.98
-57.91
-59.34
-59.07
-57.36
-54.48
-50.37
-44.62
-36.95
-27.46
-16.99
-6.87
1.58
7.43
10.40
10.66
8.77
5.34
1.17
-2.94
-6.35
-8.67
-10.15
-11.36
-13.00
-15.41
-18.34
-21.11
-23.01
-23.81
-23.78
-23.60
-23.86
-24.75
-26.01
-27.11
-27.63
-27.50
-26.99
-26.56
-26.71
-27.81
-29.98
-32.98
-36.25
-38.98
-40.28
-39.60
-36.66
-31.76
-25.48
-18.51
-11.53
-5.08
0.48
5.00
8.52
11.36
13.95
16.78
20.14
23.95
27.84
31.26
33.84
35.59
36.91
38.38
40.48
43.33
46.63
49.79
52.09
53.09
52.60
50.78
47.96
44.60
41.17
37.97
35.22
32.89
30.83
28.76
26.40
23.48
19.86
15.62
10.98
6.34
2.18
-1.16
-3.58
-5.31
-6.78
-8.47
-10.71
-13.49
-16.55
-19.54
-22.17
-24.28
-25.85
-26.89
-27.45
-27.64
-27.68
-27.88
-28.53
-29.70
-31.09
-32.05
-31.78
-29.72
-25.75
-20.25
-13.96
-7.70
-2.00
2.99
7.41
11.50
15.47
19.32
22.91
26.10
28.67
30.55
31.69
32.15
32.04
31.52
30.82
30.09
29.50
29.11
28.98
29.11
29.45
29.80
29.93
29.64
28.82
27.59
26.13
24.74
23.51
22.42
21.33
20.05
18.44
16.50
14.34
12.14
10.13
8.54
7.43
6.77
6.34
5.84
4.97
3.68
2.13
0.59
-0.73
-1.85
-3.00
-4.50
-6.60
-9.32
-12.39
-15.44
-18.19
-20.58
-22.71
-24.83
-27.16
-29.98
-33.45
-37.64
-42.43
-47.37
-51.67
-54.41
-54.79
-52.49
-47.85
-41.76
-35.30
-29.37
-24.46
-20.55
-17.27
-14.17
-10.81
-6.99
-2.63
2.11
6.93
11.54
15.63
19.01
21.66
23.67
25.22
26.54
27.89
29.39
31.10
32.92
34.70
36.23
37.33
37.85
37.72
36.98
35.69
34.05
32.31
30.71
29.52
28.87
28.76
29.01
29.42
29.74
29.79
29.43
28.55
27.15
25.31
23.24
21.22
19.47
18.12
17.13
16.25
15.10
13.39
10.92
7.63
3.67
-0.72
-5.23
-9.51
-13.24
-16.21
-18.34
-19.79
-20.89
-22.09
-23.67
-25.57
-27.28
-27.92
-26.71
-23.19
-17.51
-10.51
-3.32
3.05
8.04
11.74
14.73
17.75
21.43
26.08
31.64
37.77
44.05
50.11
55.79
61.12
66.27
71.48
76.81
82.13
87.06
90.98
93.15
92.86
89.61
83.33
74.43
63.73
52.33
41.21
30.99
21.75
13.22
4.94
-3.33
-11.55
-19.34
-26.31
-32.28
-37.43
-42.23
-47.18
-52.42
-57.61
-62.01
-64.80
-65.57
-64.62
-63.00
-62.25
-63.88
-68.82
-77.23
-88.44
-101.01
-113.28
-123.52
-130.26
-132.37
-129.38
-121.48
-109.73
-95.91
-82.12
-70.24
-61.42
-55.85
-52.87
-51.39
-50.37
-49.13
-47.34
-44.77
-41.16
-36.12
-29.38
-21.06
-11.59
-1.68
8.05
17.11
25.24
32.19
37.77
41.87
44.57
46.36
48.03
50.34
53.64
57.64
61.49
64.23
65.28
64.62
62.82
60.47
58.08
55.75
53.31
50.60
47.67
44.81
42.40
40.70
39.58
38.69
37.49
35.66
33.14
30.08
26.84
23.62
20.51
17.36
14.07
10.60
7.16
4.03
1.44
-0.57
-2.20
-3.79
-5.72
-8.25
-11.46
-15.19
-19.16
-22.88
-25.83
-27.48
-27.42
-25.47
-21.87
-17.25
-12.41
-8.14
-4.95
-2.87
-1.53
-0.46
0.79
2.33
4.02
5.55
6.73
7.48
8.09
8.87
10.11
11.86
13.95
16.04
17.80
19.13
20.18
21.26
22.58
24.08
25.40
26.01
25.53
24.01
21.95
20.15
19.35
19.98
22.10
25.51
29.81
34.58
39.30
43.20
45.50
45.45
42.81
37.92
31.71
25.33
19.76
15.56
12.71
10.92
9.77
8.90
7.89
6.25
3.21
-1.92
-9.48
-19.17
-30.02
-40.83
-50.55
-58.77
-65.71
-72.21
-79.25
-87.78
-98.36
-111.06
-125.18
-139.16
-150.72
-157.27
-156.72
-148.22
-132.49
-111.44
-87.58
-63.23
-40.01
-18.91
-0.32
15.63
29.07
40.38
50.22
59.29
68.04
76.29
83.20
87.59
88.49
85.64
79.70
72.11
64.50
58.23
53.92
51.39
49.96
48.81
47.50
46.17
45.37
45.77
47.79
51.33
55.77
60.04
63.22
65.10
66.19
67.27
69.04
71.78
75.34
79.19
82.46
84.52
85.43
85.84
86.65
88.60
92.03
96.88
102.68
108.00
111.42
111.96
108.82
101.11
87.87
68.60
43.57
13.83
-21.02
-60.76
-103.88
-147.77
-189.77
-227.31
-257.60
-277.81
-285.59
-283.32
-273.24
-255.56
-229.24
-194.92
-156.11
-118.06
-86.03
-63.82
-58.61
-72.75
-101.45
-135.50
-167.38
-194.09
-216.17
-235.97
-256.40
-287.79
-336.76
-401.52
-472.75
-539.60
-593.07
-626.49
-636.55
-578.06
-439.80
-254.47
-77.55
53.37
131.26
167.87
179.31
178.11
171.34
154.95
126.81
89.93
55.26
31.29
20.35
20.33
26.98
36.12
39.39
32.74
19.24
6.99
3.13
8.10
19.80
34.97
50.73
61.77
65.62
64.26
62.80
65.20
72.75
84.93
100.11
116.37
130.51
140.57
147.02
152.12
157.88
165.12
173.94
183.76
193.70
202.40
209.03
213.92
218.34
223.58
230.61
240.34
253.53
270.65
291.40
314.04
335.19
350.42
355.43
347.63
327.13
296.52
259.57
219.78
179.24
138.62
97.95
57.58
18.62
-17.27
-48.56
-74.48
-95.12
-111.17
-123.36
-132.21
-138.02
-140.93
-141.19
-139.30
-135.97
-132.12
-128.76
-126.86
-127.19
-130.26
-136.17
-144.59
-154.83
-165.80
-176.14
-184.35
-189.04
-189.35
-185.16
-177.08
-166.20
-153.60
-139.93
-125.20
-108.97
-90.64
-69.83
-46.52
-20.93
6.47
35.15
64.60
94.19
123.18
150.60
175.22
195.57
210.14
217.76
217.91
211.17
199.03
183.56
166.73
149.94
133.87
118.73
104.70
92.22
82.06
74.87
70.92
69.88
71.04
73.71
77.49
82.34
88.29
95.03
101.76
107.35
110.73
111.18
108.50
102.80
94.28
82.99
68.87
51.90
32.44
11.36
-10.00
-30.04
-47.30
-60.60
-69.36
-73.62
-73.90
-71.05
-65.88
-59.08
-51.11
-42.20
-32.56
-22.56
-12.85
-4.24
2.40
6.53
8.09
7.58
5.82
3.69
1.84
0.55
-0.10
-0.19
0.14
0.64
0.93
0.43
-1.42
-4.81
-9.44
-14.49
-18.86
-21.70
-22.64
-21.95
-20.43
-19.05
-18.54
-19.25
-21.08
-23.73
-26.85
-30.17
-33.58
-36.98
-40.29
-43.26
-45.65
-47.19
-47.69
-47.16
-45.71
-43.55
-40.88
-37.91
-34.70
-31.34
-27.89
-24.46
-21.26
-18.49
-16.34
-14.85
-13.96
-13.45
-13.11
-12.80
-12.52
-12.41
-12.60
-13.16
-14.05
-15.16
-16.40
-17.78
-19.36
-21.22
-23.45
-26.06
-29.04
-32.35
-35.96
-39.72
-43.33
-46.23
-47.71
-47.11
-43.98
-38.33
-30.57
-21.50
-12.01
-2.91
5.20
11.94
17.11
20.69
22.75
23.55
23.48
23.01
22.61
22.64
23.23
24.34
25.91
27.79
29.96
32.39
34.94
37.38
39.33
40.48
40.62
39.78
38.17
36.18
34.13
32.23
30.59
29.18
27.98
27.00
26.26
25.77
25.62
25.80
26.24
26.85
27.45
27.93
28.20
28.26
28.16
27.91
27.48
26.71
25.47
23.61
21.07
17.94
14.47
11.20
8.82
8.10
9.62
13.46
19.12
25.58
31.63
36.19
38.66
38.86
37.08
33.74
29.44
24.74
20.22
16.45
13.98
13.37
15.19
20.03
28.38
40.43
55.92
74.07
93.61
113.05
130.93
146.03
157.51
164.90
168.00
166.84
161.54
152.33
139.52
123.46
104.54
83.07
59.37
33.75
6.76
-20.73
-47.53
-72.29
-93.90
-111.74
-125.77
-136.43
-144.35
-150.12
-154.26
-157.26
-159.53
-161.45
-163.20
-164.81
-166.25
-167.39
-168.04
-167.80
-166.06
-162.17
-155.82
-147.23
-137.22
-126.80
-116.66
-106.91
-97.10
-86.65
-75.34
-63.46
-51.68
-40.74
-31.18
-23.32
-17.28
-13.15
-10.91
-10.30
-10.78
-11.58
-12.04
-11.81
-11.07
-10.46
-10.80
-12.83
-17.08
-23.61
-32.05
-41.65
-51.40
-60.21
-67.18
-71.72
-73.65
-73.17
-70.74
-66.84
-61.97
-56.54
-50.98
-45.76
-41.31
-37.87
-35.35
-33.34
-31.21
-28.44
-24.79
-20.43
-15.78
-11.26
-7.02
-2.96
1.19
5.61
10.36
15.46
21.10
27.62
35.35
44.20
53.46
61.96
68.67
73.30
76.69
80.60
86.88
96.68
109.83
124.84
139.48
151.57
159.64
163.05
161.79
155.77
144.66
127.79
104.75
75.89
42.61
7.31
-27.26
-58.65
-85.23
-106.19
-121.48
-131.39
-136.38
-137.14
-134.57
-129.81
-124.05
-118.38
-113.53
-109.81
-107.20
-105.35
-103.67
-101.42
-97.95
-92.80
-85.97
-77.80
-69.02
-60.44
-52.82
-46.72
-42.40
-39.83
-38.72
-38.63
-39.08
-39.68
-40.20
-40.51
-40.49
-39.89
-38.24
-34.92
-29.48
-21.85
-12.50
-2.31
7.71
16.78
24.61
31.26
37.09
42.37
47.17
51.37
54.84
57.53
59.58
61.26
62.79
64.32
65.85
67.23
68.25
68.78
68.66
67.94
66.72
65.21
63.61
62.10
60.66
59.18
57.50
55.47
53.13
50.63
48.19
45.99
44.08
42.38
40.76
39.10
37.32
35.49
33.67
31.89
30.14
28.29
26.24
23.87
21.17
18.09
14.68
11.00
7.17
3.36
-0.29
-3.68
-6.85
-9.95
-13.26
-17.00
-21.27
-25.93
-30.54
-34.45
-36.87
-37.17
-35.01
-30.63
-24.73
-18.31
-12.30
-7.20
-3.10
0.33
3.51
6.62
9.59
12.19
14.19
15.56
16.55
17.51
18.73
20.27
22.00
23.67
25.07
26.15
27.00
27.76
28.48
29.15
29.65
29.83
29.65
29.15
28.52
27.87
27.30
26.82
26.34
25.74
24.90
23.79
22.49
21.11
19.80
18.70
17.84
17.18
16.55
15.77
14.68
13.21
11.35
9.21
6.87
4.42
1.93
-0.62
-3.19
-5.83
-8.63
-11.70
-15.10
-18.77
-22.39
-25.47
-27.35
-27.53
-25.81
-22.45
-18.00
-13.12
-8.41
-4.22
-0.66
2.31
4.83
6.97
8.79
10.37
11.71
12.85
13.83
14.73
15.64
16.63
17.72
18.82
19.82
20.57
21.11
21.54
21.96
22.40
22.78
22.96
22.78
22.28
21.53
20.71
19.90
19.08
18.16
17.09
15.86
14.52
13.15
11.72
10.21
8.52
6.64
4.56
2.32
-0.05
-2.51
-5.02
-7.48
-9.70
-11.58
-13.03
-14.14
-15.15
-16.37
-18.10
-20.58
-23.82
-27.62
-31.57
-35.04
-37.37
-37.98
-36.53
-33.09
-28.14
-22.42
-16.71
-11.65
-7.54
-4.39
-1.92
0.23
2.31
4.40
6.38
8.02
9.09
9.57
9.58
9.39
9.33
9.61
10.24
11.16
12.24
13.37
14.53
15.67
16.65
17.26
17.30
16.73
15.71
14.54
13.54
12.82
12.25
11.54
10.34
8.48
6.06
3.32
0.60
-1.97
-4.34
-6.67
-9.11
-11.73
-14.48
-17.16
-19.60
-21.64
-23.27
-24.55
-25.66
-26.86
-28.38
-30.46
-33.15
-36.29
-39.41
-41.80
-42.73
-41.68
-38.62
-33.95
-28.40
-22.82
-17.89
-13.91
-10.90
-8.63
-6.77
-5.01
-3.05
-0.68
2.21
5.64
9.48
13.49
17.38
20.95
24.06
26.74
29.05
31.01
32.60
33.74
34.32
34.29
33.67
32.47
30.76
28.64
26.24
23.75
21.32
19.01
16.80
14.55
12.14
9.55
6.88
4.31
1.98
-0.11
-2.09
-4.14
-6.39
-8.80
-11.24
-13.51
-15.48
-17.15
-18.63
-20.17
-22.03
-24.42
-27.32
-30.44
-33.20
-34.86
-34.80
-32.72
-28.77
-23.51
-17.73
-12.21
-7.46
-3.74
-0.97
1.13
2.91
4.64
6.45
8.31
10.12
11.80
13.30
14.66
15.88
16.90
17.54
17.68
17.28
16.51
15.69
15.12
15.00
15.27
15.68
15.94
15.82
15.25
14.28
13.06
11.72
10.38
9.10
7.89
6.72
5.53
4.14
2.37
0.11
-2.61
-5.59
-8.55
-11.26
-13.59
-15.59
-17.42
-19.26
-21.23
-23.38
-25.70
-28.17
-30.78
-33.38
-35.69
-37.18
-37.27
-35.50
-31.76
-26.38
-20.06
-13.67
-7.98
-3.40
0.02
2.51
4.35
5.75
6.81
7.57
8.10
8.51
8.93
9.48
10.19
11.00
11.82
12.62
13.41
14.28
15.28
16.38
17.44
18.23
18.49
18.04
16.85
15.12
13.09
11.07
9.27
7.72
6.34
5.01
3.68
2.35
1.11
-0.00
-1.01
-2.00
-3.15
-4.57
-6.28
-8.21
-10.17
-11.99
-13.57
-14.95
-16.28
-17.77
-19.64
-22.07
-25.03
-28.32
-31.51
-34.02
-35.24
-34.73
-32.40
-28.49
-23.59
-18.44
-13.65
-9.58
-6.31
-3.70
-1.49
0.51
2.42
4.29
6.14
7.97
9.76
11.45
12.95
14.16
15.08
15.78
16.37
16.95
17.49
17.89
18.06
17.89
17.40
16.70
15.83
14.88
13.89
12.87
11.89
11.02
10.21
9.40
8.43
7.19
5.72
4.15
2.64
1.29
0.08
-1.13
-2.48
-4.09
-5.94
-7.88
-9.76
-11.49
-13.10
-14.78
-16.82
-19.43
-22.67
-26.27
-29.64
-32.06
-32.87
-31.69
-28.58
-23.99
-18.59
-13.13
-8.19
-4.05
-0.73
1.92
4.16
6.19
8.11
9.95
11.63
13.08
14.26
15.20
15.97
16.63
17.18
17.59
17.84
17.96
18.05
18.23
18.50
18.81
19.00
18.86
18.35
17.58
16.75
16.12
15.84
15.78
15.73
15.38
14.52
13.16
11.48
9.79
8.29
7.05
5.92
4.65
3.00
0.87
-1.64
-4.36
-7.07
-9.60
-11.93
-14.16
-16.45
-18.98
-21.94
-25.43
-29.42
-33.63
-37.53
-40.40
-41.51
-40.41
-37.09
-32.06
-26.19
-20.51
-15.78
-12.36
-10.17
-8.77
-7.65
-6.41
-4.90
-3.16
-1.35
0.40
2.04
3.60
5.14
6.73
8.43
10.33
12.55
15.23
18.44
22.12
26.07
30.03
33.69
36.90
39.58
41.79
43.61
45.08
46.13
46.60
46.34
45.24
43.29
40.61
37.42
33.96
30.51
27.22
24.21
21.53
19.15
16.97
14.87
12.77
10.65
8.62
6.83
5.42
4.40
3.58
2.54
0.82
-1.93
-5.70
-10.01
-14.12
-17.21
-18.70
-18.43
-16.56
-13.42
-9.32
-4.40
1.41
8.24
16.14
25.06
34.79
44.96
55.16
64.85
73.52
80.71
85.95
88.87
89.25
87.06
82.62
76.56
69.73
62.93
56.75
51.34
46.58
42.19
37.90
33.56
29.11
24.44
19.35
13.53
6.66
-1.44
-10.78
-21.10
-31.98
-42.82
-53.00
-62.03
-69.61
-75.78
-80.78
-84.91
-88.42
-91.33
-93.49
-94.73
-95.00
-94.48
-93.51
-92.57
-91.97
-91.81
-91.93
-91.91
-91.24
-89.43
-86.17
-81.43
-75.49
-68.94
-62.48
-56.76
-52.15
-48.71
-46.14
-44.01
-41.92
-39.61
-37.00
-34.11
-31.01
-27.79
-24.57
-21.50
-18.82
-16.76
-15.55
-15.28
-15.98
-17.58
-19.93
-22.82
-25.84
-28.43
-29.86
-29.29
-25.98
-19.47
-9.71
2.88
17.61
33.65
50.27
66.88
83.04
98.32
112.26
124.43
134.44
142.04
147.00
149.07
147.84
142.82
133.61
120.20
103.28
84.11
64.42
45.91
29.89
17.15
7.89
1.89
-1.25
-1.89
-0.39
2.95
7.69
13.22
18.81
23.69
27.20
28.99
29.11
27.95
26.14
24.36
23.02
22.26
21.93
21.72
21.39
20.93
20.50
20.41
20.96
22.35
24.58
27.43
30.36
32.48
32.72
29.96
23.56
13.65
1.17
-12.26
-24.94
-35.46
-43.19
-48.46
-52.49
-57.02
-63.86
-74.25
-88.43
-105.55
-123.91
-141.60
-156.87
-168.41
-175.15
-176.22
-170.99
-159.40
-142.37
-121.68
-99.57
-77.82
-57.27
-37.68
-18.24
1.76
22.45
43.34
63.59
82.53
99.87
115.63
130.08
143.42
155.73
166.96
176.92
185.42
192.34
197.63
201.39
203.67
204.48
203.76
201.48
197.69
192.57
186.45
179.56
171.91
163.24
153.05
140.88
126.59
110.56
93.63
76.88
61.14
46.74
33.38
20.34
6.89
-7.36
-22.33
-37.55
-52.39
-66.39
-79.28
-90.98
-101.53
-110.89
-119.01
-125.87
-131.52
-136.05
-139.59
-142.25
-144.13
-145.43
-146.43
-147.45
-148.83
-150.85
-153.67
-157.37
-161.89
-166.93
-172.11
-176.89
-180.90
-183.99
-186.44
-188.69
-191.20
-194.05
-196.83
-198.87
-199.44
-198.10
-194.58
-188.53
-179.37
-166.30
-148.73
-126.81
-101.65
-75.01
-48.64
-23.57
0.16
23.12
45.89
68.41
89.87
109.10
125.12
137.61
146.83
153.25
157.12
158.24
156.13
150.46
141.32
129.38
115.72
101.41
87.18
73.26
59.55
45.74
31.77
17.83
4.44
-7.74
-18.12
-26.34
-32.15
-35.39
-35.85
-33.15
-27.01
-17.42
-4.93
9.20
23.09
34.63
41.86
43.08
36.66
20.87
-6.05
-45.06
-95.55
-154.38
-215.96
-273.22
-319.27
-349.07
-360.42
-353.89
-331.95
-297.98
-255.46
-207.79
-158.09
-109.25
-63.65
-23.05
11.69
40.56
64.18
83.46
99.30
112.24
122.39
129.72
134.21
136.23
136.54
136.07
135.45
134.77
133.43
130.56
125.43
117.92
108.53
98.16
87.72
77.81
68.70
60.44
53.09
46.79
41.68
37.78
34.87
32.54
30.34
27.92
25.17
22.34
19.98
18.76
19.22
21.53
25.29
29.62
33.41
35.66
35.89
34.33
31.82
29.48
28.31
28.92
31.32
35.18
39.92
44.99
49.94
54.48
58.50
62.09
65.47
68.92
72.65
76.51
80.05
82.58
83.37
82.09
78.82
74.07
68.53
62.83
57.48
52.78
48.98
46.20
44.52
43.82
43.82
44.12
44.37
44.34
44.02
43.52
42.96
42.33
41.55
40.49
39.19
37.89
36.97
36.81
37.61
39.22
41.29
43.27
44.58
44.63
42.81
38.50
30.92
19.23
2.60
-19.57
-47.24
-79.45
-114.15
-148.47
-179.30
-204.10
-221.60
-231.89
-236.09
-235.63
-231.73
-225.06
-216.00
-205.00
-192.86
-180.64
-169.32
-159.38
-150.64
-142.44
-134.07
-125.15
-115.88
-106.81
-98.54
-91.35
-85.20
-79.83
-74.93
-70.45
-66.51
-63.36
-61.18
-59.99
-59.64
-59.93
-60.71
-61.87
-63.31
-64.79
-65.91
-66.11
-64.76
-61.38
-55.90
-48.60
-40.08
-30.94
-21.57
-12.03
-2.21
8.01
18.60
29.30
39.76
49.75
59.18
68.19
76.98
85.72
94.50
103.26
111.85
120.04
127.62
134.29
139.77
143.86
146.54
148.07
148.93
149.76
151.02
152.76
154.62
156.07
156.77
156.74
156.53
156.76
157.83
159.74
162.05
164.20
165.64
165.87
164.34
160.55
154.13
145.22
134.66
123.78
113.96
105.92
99.43
93.27
85.85
75.83
62.56
46.34
28.06
8.89
-10.08
-28.02
-44.44
-59.04
-71.64
-82.03
-89.93
-95.12
-97.40
-96.82
-93.74
-88.74
-82.59
-76.01
-69.58
-63.68
-58.54
-54.34
-51.24
-49.40
-48.84
-49.39
-50.67
-52.27
-53.78
-54.97
-55.81
-56.36
-56.77
-57.08
-57.32
-57.49
-57.57
-57.56
-57.44
-57.18
-56.69
-55.90
-54.76
-53.29
-51.58
-49.68
-47.63
-45.43
-43.04
-40.47
-37.75
-35.01
-32.42
-30.23
-28.72
-28.15
-28.68
-30.27
-32.49
-34.67
-35.95
-35.55
-33.08
-28.64
-22.75
-16.22
-9.89
-4.36
0.00
3.17
5.31
6.71
7.70
8.55
9.46
10.57
12.04
13.99
16.57
19.89
23.99
28.79
34.17
39.88
45.60
51.08
55.95
60.01
63.02
64.79
65.20
64.21
62.01
59.03
55.97
53.53
52.22
52.16
52.94
53.94
54.45
53.99
52.43
49.89
46.63
42.87
38.71
34.15
29.18
23.78
18.09
12.31
6.77
1.76
-2.50
-6.05
-9.12
-11.97
-14.84
-17.69
-20.24
-22.05
-22.72
-22.13
-20.46
-18.23
-16.01
-14.29
-13.25
-12.84
-12.82
-13.00
-13.28
-13.68
-14.26
-14.93
-15.56
-16.08
-16.63
-17.52
-19.16
-21.88
-25.70
-30.36
-35.41
-40.42
-45.01
-48.85
-51.54
-52.62
-51.69
-48.63
-43.75
-37.72
-31.33
-25.22
-19.70
-14.75
-10.22
-6.03
-2.22
0.97
3.31
4.68
5.17
5.06
4.68
4.32
4.17
4.30
4.63
5.00
5.20
5.02
4.31
3.04
1.32
-0.48
-1.79
-1.95
-0.40
3.13
8.46
15.03
22.06
28.85
34.93
40.19
44.82
49.12
53.42
57.92
62.60
67.26
71.48
74.70
76.30
75.85
73.20
68.62
62.65
55.95
49.17
42.72
36.91
31.83
27.57
24.13
21.47
19.39
17.58
15.63
13.19
10.11
6.50
2.72
-0.90
-4.09
-6.83
-9.32
-11.87
-14.81
-18.40
-22.72
-27.59
-32.74
-37.67
-41.97
-45.41
-48.01
-50.10
-52.19
-54.81
-58.26
-62.62
-67.65
-72.74
-77.13
-79.96
-80.55
-78.62
-74.46
-68.82
-62.71
-57.02
-52.28
-48.70
-46.12
-44.27
-42.85
-41.59
-40.21
-38.43
-36.00
-32.77
-28.71
-23.88
-18.40
-12.40
-6.03
0.47
6.75
12.40
17.08
20.52
22.69
23.72
23.83
23.31
22.41
21.33
20.24
19.27
18.46
17.80
17.20
16.49
15.53
14.22
12.48
10.39
8.13
5.93
3.99
2.37
0.95
-0.48
-2.14
-4.20
-6.61
-9.33
-12.23
-15.27
-18.37
-21.36
-23.87
-25.46
-25.81
-24.81
-22.77
-20.19
-17.67
-15.63
-14.24
-13.44
-13.03
-12.77
-12.47
-12.00
-11.25
-10.12
-8.53
-6.44
-3.86
-0.91
2.24
5.39
8.34
11.06
13.61
16.12
18.75
21.52
24.36
27.13
29.69
32.05
34.25
36.40
38.47
40.39
42.06
43.43
44.59
45.71
47.00
48.48
49.98
51.07
51.25
50.12
47.49
43.45
38.23
32.18
25.63
18.87
12.11
5.53
-0.73
-6.59
-12.00
-16.93
-21.30
-25.03
-28.00
-30.16
-31.60
-32.54
-33.27
-34.09
-35.16
-36.51
-37.99
-39.22
-39.66
-38.71
-35.90
-31.12
-24.72
-17.46
-10.32
-4.13
0.68
4.08
6.38
8.08
9.66
11.44
13.56
15.97
18.49
20.93
23.08
24.83
26.21
27.31
28.26
29.14
30.02
30.90
31.87
32.92
34.04
35.05
35.67
35.60
34.62
32.73
30.08
26.91
23.45
19.87
16.25
12.68
9.29
6.28
3.82
1.93
0.54
-0.51
-1.36
-2.02
-2.40
-2.38
-1.92
-1.18
-0.53
-0.42
-1.34
-3.66
-7.56
-13.02
-19.82
-27.55
-35.70
-43.79
-51.41
-58.37
-64.76
-70.77
-76.61
-82.39
-87.97
-93.02
-97.15
-99.99
-101.37
-101.30
-99.82
-96.97
-92.60
-86.46
-78.32
-68.15
-56.22
-43.10
-29.49
-16.06
-3.27
8.57
19.28
28.72
36.74
43.21
48.03
51.23
52.86
53.08
52.06
50.08
47.48
44.62
41.82
39.28
37.07
35.16
33.50
32.04
30.70
29.43
28.08
26.50
24.52
21.98
18.75
14.81
10.27
5.47
1.02
-2.38
-4.13
-4.01
-2.25
0.52
3.52
6.11
7.94
9.02
9.49
9.50
9.11
8.23
6.76
4.67
2.06
-0.92
-3.97
-6.92
-9.62
-11.98
-13.98
-15.51
-16.49
-16.81
-16.52
-15.72
-14.71
-13.77
-13.15
-12.93
-13.06
-13.37
-13.67
-13.82
-13.80
-13.64
-13.46
-13.38
-13.43
-13.56
-13.61
-13.42
-12.86
-12.04
-11.24
-10.89
-11.43
-13.12
-15.87
-19.28
-22.67
-25.26
-26.36
-25.52
-22.60
-17.83
-11.73
-4.91
2.05
8.77
15.07
20.94
26.45
31.62
36.43
40.77
44.58
47.90
50.90
53.80
56.79
60.00
63.37
66.68
69.60
71.79
73.01
73.20
72.44
70.91
68.77
66.10
62.89
59.13
54.78
49.87
44.41
38.41
31.78
24.39
16.14
6.99
-3.03
-13.88
-25.48
-37.74
-50.48
-63.35
-75.92
-87.69
-98.27
-107.38
-114.95
-121.04
-125.79
-129.37
-131.81
-133.02
-132.64
-130.22
-125.35
-117.78
-107.68
-95.62
-82.43
-68.97
-55.94
-43.68
-32.25
-21.43
-10.92
-0.43
10.13
20.58
30.55
39.50
46.99
52.78
56.96
59.89
62.01
63.75
65.35
66.89
68.29
69.48
70.37
70.93
71.14
70.92
70.22
69.03
67.39
65.42
63.22
60.84
58.18
55.05
51.19
46.57
41.35
35.93
30.81
26.36
22.73
19.65
16.68
13.21
8.91
3.66
-2.31
-8.57
-14.62
-20.10
-24.76
-28.61
-31.94
-35.10
-38.56
-42.56
-47.06
-51.54
-55.18
-57.04
-56.50
-53.45
-48.35
-42.08
-35.55
-29.35
-23.70
-18.52
-13.63
-8.85
-4.14
0.48
5.05
9.56
13.94
18.03
21.47
23.97
25.41
25.93
25.91
25.74
25.77
26.09
26.70
27.52
28.48
29.49
30.40
30.97
30.94
30.15
28.57
26.40
23.94
21.43
19.03
16.75
14.55
12.41
10.34
8.40
6.71
5.37
4.48
4.02
3.94
4.02
3.98
3.54
2.61
1.23
-0.38
-1.97
-3.34
-4.47
-5.43
-6.32
-7.22
-8.13
-9.02
-9.88
-10.79
-11.83
-13.10
-14.65
-16.46
-18.44
-20.35
-21.80
-22.28
-21.28
-18.41
-13.67
-7.44
-0.37
6.80
13.50
19.50
24.84
29.78
34.58
39.36
44.02
48.29
51.75
54.05
54.89
54.24
52.31
49.52
46.35
43.22
40.42
37.99
35.92
34.16
32.74
31.77
31.39
31.71
32.68
34.13
35.84
37.62
39.34
40.95
42.38
43.45
43.98
43.71
42.52
40.39
37.50
34.06
30.30
26.33
22.15
17.70
12.89
7.74
2.27
-3.36
-9.02
-14.57
-19.90
-24.87
-29.35
-33.17
-36.17
-38.27
-39.45
-39.85
-39.70
-39.34
-39.16
-39.46
-40.30
-41.40
-42.20
-41.93
-39.93
-35.84
-29.82
-22.42
-14.52
-6.92
-0.20
5.37
9.78
13.13
15.52
17.03
17.66
17.51
16.71
15.51
14.20
13.01
12.13
11.62
11.47
11.62
11.96
12.40
12.83
13.18
13.42
13.57
13.59
13.42
12.95
12.10
10.90
9.49
8.06
6.82
5.76
4.77
3.69
2.44
1.09
-0.17
-1.14
-1.71
-1.94
-2.08
-2.40
-3.15
-4.47
-6.34
-8.71
-11.41
-14.31
-17.30
-20.36
-23.48
-26.72
-30.10
-33.68
-37.38
-41.01
-44.22
-46.50
-47.26
-46.02
-42.59
-37.28
-30.82
-24.14
-18.09
-13.17
-9.42
-6.49
-3.90
-1.30
1.47
4.25
6.82
8.96
10.59
11.76
12.56
13.05
13.22
13.15
12.96
12.86
13.11
13.85
15.06
16.51
17.96
19.19
20.15
20.96
21.81
22.85
24.07
25.34
26.44
27.11
27.15
26.41
24.72
21.99
18.14
13.22
7.48
1.40
-4.47
-9.58
-13.66
-16.77
-19.23
-21.49
-23.95
-26.75
-29.78
-32.68
-34.97
-36.18
-35.97
-34.20
-31.01
-26.77
-22.02
-17.33
-13.10
-9.50
-6.52
-3.97
-1.60
0.79
3.32
6.05
8.93
11.86
14.71
17.36
19.70
21.72
23.47
25.03
26.44
27.66
28.60
29.06
28.85
27.81
25.85
23.02
19.53
15.68
11.77
8.04
4.58
1.38
-1.61
-4.40
-6.92
-8.99
-10.52
-11.47
-11.99
-12.36
-12.85
-13.64
-14.78
-16.23
-17.85
-19.52
-21.10
-22.52
-23.77
-24.89
-26.02
-27.36
-29.10
-31.24
-33.61
-35.74
-37.03
-36.93
-35.14
-31.76
-27.14
-21.91
-16.67
-11.94
-7.99
-4.87
-2.51
-0.65
0.92
2.45
4.03
5.69
7.25
8.54
9.43
9.91
10.12
10.23
10.45
10.78
11.20
11.59
11.85
11.97
11.97
11.86
11.61
11.08
10.14
8.76
7.03
5.12
3.24
1.55
0.12
-1.08
-2.14
-3.14
-4.14
-5.16
-6.22
-7.31
-8.40
-9.42
-10.36
-11.27
-12.21
-13.31
-14.69
-16.39
-18.35
-20.48
-22.64
-24.72
-26.69
-28.50
-30.17
-31.71
-33.16
-34.48
-35.59
-36.26
-36.12
-34.74
-31.83
-27.27
-21.36
-14.67
-7.91
-1.73
3.51
7.75
11.23
14.27
17.10
19.66
21.78
23.25
24.01
24.27
24.39
24.74
25.58
27.03
29.04
31.52
34.38
37.38
40.27
42.77
44.55
45.44
45.47
44.76
43.52
41.97
40.26
38.57
37.04
35.79
34.87
34.19
33.64
33.02
32.20
31.13
29.79
28.22
26.40
24.32
21.89
19.05
15.76
12.04
7.93
3.54
-1.04
-5.75
-10.46
-15.01
-19.21
-22.86
-25.81
-28.08
-29.88
-31.58
-33.69
-36.56
-40.25
-44.40
-48.28
-51.00
-51.83
-50.43
-46.96
-42.01
-36.37
-30.82
-25.85
-21.73
-18.44
-15.75
-13.43
-11.20
-8.90
-6.49
-4.05
-1.71
0.45
2.32
3.87
5.10
6.05
6.78
7.41
8.10
8.99
10.14
11.45
12.70
13.65
14.14
14.12
13.71
13.08
12.47
12.02
11.82
11.87
12.04
12.18
12.12
11.73
11.00
9.98
8.76
7.43
6.07
4.69
3.29
1.86
0.38
-1.20
-2.92
-4.80
-6.87
-9.03
-11.19
-13.22
-15.10
-16.90
-18.78
-20.91
-23.38
-26.14
-28.90
-31.28
-32.76
-32.89
-31.35
-28.09
-23.34
-17.68
-11.81
-6.47
-2.22
0.79
2.68
3.85
4.77
5.79
7.07
8.58
10.17
11.63
12.85
13.82
14.61
15.30
15.98
16.64
17.26
17.79
18.26
18.78
19.51
20.58
22.03
23.72
25.42
26.87
27.84
28.22
28.11
27.69
27.20
26.86
26.70
26.61
26.29
25.41
23.74
21.27
18.17
14.78
11.42
8.20
5.12
1.98
-1.40
-5.08
-9.03
-13.08
-16.99
-20.56
-23.68
-26.36
-28.73
-31.03
-33.41
-35.98
-38.67
-41.27
-43.41
-44.68
-44.66
-43.08
-39.90
-35.37
-30.05
-24.57
-19.50
-15.21
-11.68
-8.65
-5.80
-2.84
0.28
3.43
6.39
8.96
10.99
12.42
13.30
13.71
13.78
13.68
13.56
13.54
13.67
13.94
14.33
14.79
15.34
16.02
16.78
17.49
17.93
17.83
17.07
15.69
13.90
11.94
10.00
8.12
6.29
4.47
2.69
1.06
-0.28
-1.20
-1.72
-1.89
-1.91
-2.02
-2.43
-3.30
-4.72
-6.72
-9.28
-12.26
-15.51
-18.86
-22.11
-25.10
-27.82
-30.43
-33.18
-36.30
-39.85
-43.53
-46.76
-48.86
-49.19
-47.45
-43.76
-38.60
-32.70
-26.75
-21.23
-16.31
-11.92
-7.88
-4.05
-0.45
2.78
5.47
7.57
9.14
10.40
11.54
12.70
13.90
15.07
16.14
17.08
17.98
18.95
20.07
21.27
22.36
23.10
23.31
22.96
22.17
21.16
20.15
19.28
18.57
17.98
17.42
16.78
15.98
14.95
13.64
12.10
10.43
8.82
7.42
6.32
5.48
4.81
4.16
3.42
2.49
1.38
0.04
-1.57
-3.47
-5.67
-8.06
-10.48
-12.74
-14.63
-15.93
-16.47
-16.01
-14.35
-11.41
-7.25
-2.18
3.28
8.56
13.18
16.85
19.56
21.45
22.65
23.30
23.36
22.77
21.52
19.72
17.62
15.47
13.41
11.42
9.41
7.29
5.10
3.08
1.46
0.36
-0.30
-0.80
-1.44
-2.34
-3.40
-4.33
-4.78
-4.62
-3.93
-2.99
-2.11
-1.53
-1.30
-1.35
-1.53
-1.70
-1.85
-2.05
-2.47
-3.31
-4.69
-6.65
-9.03
-11.62
-14.13
-16.39
-18.28
-19.83
-21.20
-22.58
-24.22
-26.30
-28.82
-31.60
-34.17
-35.86
-36.02
-34.30
-30.80
-26.09
-20.96
-16.13
-12.05
-8.74
-5.99
-3.54
-1.22
1.03
3.17
5.12
6.80
8.23
9.37
10.21
10.74
10.94
10.84
10.48
9.93
9.35
8.93
8.86
9.21
9.88
10.60
11.06
11.00
10.42
9.48
8.41
7.44
6.57
5.70
4.67
3.46
2.15
0.94
0.03
-0.54
-0.87
-1.19
-1.68
-2.43
-3.42
-4.53
-5.69
-6.90
-8.26
-9.90
-11.93
-14.28
-16.81
-19.31
-21.55
-23.40
-24.89
-26.14
-27.35
-28.76
-30.44
-32.24
-33.74
-34.32
-33.37
-30.49
-25.68
-19.34
-12.23
-5.15
1.26
6.66
11.03
14.60
17.69
20.54
23.23
25.67
27.71
29.17
30.07
30.53
30.73
30.87
31.00
31.09
31.01
30.69
30.06
29.23
28.32
27.43
26.63
25.84
25.03
24.16
23.31
22.61
22.20
22.15
22.43
22.88
23.37
23.79
24.10
24.32
24.51
24.68
24.82
24.90
24.89
24.66
24.01
22.70
20.47
17.18
12.85
7.68
1.95
-3.95
-9.62
-14.74
-19.08
-22.58
-25.37
-27.74
-30.12
-32.92
-36.35
-40.32
-44.44
-48.10
-50.70
-51.78
-51.13
-48.86
-45.32
-41.05
-36.58
-32.41
-28.80
-25.79
-23.16
-20.51
-17.54
-14.13
-10.47
-6.90
-3.78
-1.29
0.63
2.16
3.57
5.03
6.63
8.33
10.08
11.77
13.36
14.73
15.77
16.44
16.74
16.75
16.55
16.26
15.90
15.50
15.10
14.66
14.21
13.67
12.98
12.05
10.85
9.40
7.81
6.26
4.89
3.80
3.01
2.49
2.13
1.79
1.28
0.45
-0.79
-2.40
-4.21
-6.00
-7.63
-9.07
-10.50
-12.19
-14.40
-17.31
-20.86
-24.73
-28.37
-31.19
-32.58
-32.21
-30.02
-26.32
-21.71
-16.90
-12.50
-8.86
-6.02
-3.78
-1.83
0.06
1.99
3.84
5.48
6.78
7.72
8.37
8.86
9.33
9.83
10.41
11.03
11.71
12.45
13.19
13.83
14.21
14.20
13.78
13.14
12.52
12.19
12.27
12.69
13.26
13.83
14.26
14.48
14.45
14.10
13.39
12.38
11.28
10.37
9.84
9.66
9.51
8.96
7.62
5.37
2.40
-0.87
-3.96
-6.56
-8.58
-10.13
-11.49
-13.00
-14.96
-17.56
-20.81
-24.43
-27.93
-30.71
-32.25
-32.27
-30.89
-28.54
-25.76
-23.12
-20.95
-19.37
-18.34
-17.79
-17.54
-17.46
-17.41
-17.26
-16.99
-16.59
-16.09
-15.47
-14.60
-13.27
-11.30
-8.63
-5.47
-2.15
0.89
3.40
5.30
6.73
7.92
9.04
10.17
11.22
12.04
12.50
12.48
11.97
11.01
9.74
8.32
6.97
5.84
5.01
4.45
4.10
3.95
4.14
4.94
6.65
9.55
13.67
18.79
24.47
30.11
35.15
39.18
42.04
43.87
45.05
46.03
47.21
48.74
50.44
51.86
52.39
51.42
48.64
44.09
38.10
31.28
24.29
17.66
11.75
6.70
2.48
-1.03
-3.98
-6.55
-8.82
-10.81
-12.46
-13.65
-14.37
-14.60
-14.51
-14.25
-13.98
-13.79
-13.74
-13.85
-14.08
-14.39
-14.71
-14.99
-15.16
-15.17
-15.04
-14.81
-14.56
-14.28
-14.00
-13.69
-13.35
-13.01
-12.78
-12.84
-13.43
-14.66
-16.45
-18.59
-20.71
-22.56
-24.05
-25.41
-27.07
-29.42
-32.64
-36.53
-40.54
-43.94
-46.00
-46.20
-44.39
-40.81
-36.03
-30.80
-25.80
-21.34
-17.26
-13.04
-8.08
-2.00
5.01
12.26
18.67
23.21
25.15
24.34
21.17
16.60
11.93
8.45
7.06
7.97
10.62
13.94
16.87
18.73
19.46
19.41
19.08
18.72
18.33
17.80
17.10
16.40
15.90
15.67
15.52
15.06
13.95
12.06
9.57
6.81
4.16
1.75
-0.54
-3.09
-6.36
-10.63
-15.93
-21.91
-28.00
-33.52
-37.98
-41.10
-42.98
-43.95
-44.45
-44.86
-45.31
-45.63
-45.32
-43.73
-40.28
-34.78
-27.53
-19.30
-11.02
-3.55
2.61
7.37
10.93
13.67
15.89
17.85
19.81
21.91
24.31
27.00
29.88
32.73
35.40
37.74
39.75
41.52
43.19
44.92
46.82
48.94
51.12
53.13
54.61
55.13
54.40
52.34
49.15
45.27
41.31
37.72
34.83
32.70
31.23
30.20
29.36
28.48
27.35
25.83
23.86
21.57
19.18
16.99
15.24
13.99
13.12
12.40
11.56
10.34
8.61
6.30
3.47
0.36
-2.65
-5.06
-6.43
-6.51
-5.43
-3.61
-1.75
-0.46
-0.02
-0.42
-1.42
-2.69
-3.99
-5.23
-6.31
-7.19
-7.76
-7.92
-7.71
-7.21
-6.62
-6.07
-5.68
-5.50
-5.52
-5.74
-6.10
-6.56
-7.07
-7.62
-8.29
-9.17
-10.31
-11.66
-13.11
-14.47
-15.69
-16.77
-17.78
-18.89
-20.14
-21.54
-22.96
-24.23
-25.21
-25.87
-26.27
-26.55
-26.89
-27.35
-27.95
-28.64
-29.25
-29.52
-29.16
-27.82
-25.25
-21.37
-16.36
-10.73
-5.15
-0.24
3.66
6.55
8.70
10.38
11.71
12.66
13.09
12.92
12.20
11.13
9.98
8.91
7.94
6.94
5.75
4.29
2.56
0.69
-1.17
-2.92
-4.48
-5.91
-7.31
-8.77
-10.30
-11.84
-13.20
-14.25
-14.97
-15.40
-15.71
-16.02
-16.38
-16.81
-17.29
-17.79
-18.33
-18.96
-19.71
-20.63
-21.71
-23.00
-24.58
-26.49
-28.72
-31.10
-33.27
-34.66
-34.63
-32.64
-28.43
-22.19
-14.51
-6.30
1.57
8.38
13.83
17.89
20.77
22.73
24.05
24.92
25.47
25.76
25.85
25.77
25.53
25.13
24.58
23.93
23.30
22.74
22.37
22.21
22.18
22.13
21.87
21.27
20.25
18.80
16.96
14.74
12.17
9.20
5.88
2.31
-1.35
-4.99
-8.60
-12.28
-16.14
-20.28
-24.68
-29.26
-33.88
-38.40
-42.63
-46.37
-49.34
-51.29
-52.02
-51.54
-50.01
-47.72
-44.90
-41.63
-37.75
-32.98
-27.08
-19.90
-11.54
-2.27
7.44
17.02
25.92
33.63
39.81
44.29
47.12
48.50
48.65
47.79
46.07
43.58
40.40
36.71
32.72
28.69
24.94
21.69
19.18
17.58
16.95
17.21
18.07
19.11
19.81
19.76
18.82
17.09
14.93
12.68
10.64
8.93
7.54
6.45
5.62
5.02
4.64
4.35
3.94
3.15
1.76
-0.28
-2.80
-5.44
-7.83
-9.59
-10.63
-11.12
-11.48
-12.16
-13.54
-15.74
-18.52
-21.34
-23.50
-24.34
-23.52
-20.99
-17.13
-12.49
-7.69
-3.24
0.62
3.87
6.70
9.42
12.34
15.59
19.11
22.71
26.06
28.86
30.88
32.01
32.20
31.54
30.10
28.00
25.40
22.48
19.35
16.06
12.58
8.82
4.78
0.42
-4.20
-8.98
-13.77
-18.40
-22.71
-26.66
-30.26
-33.59
-36.77
-39.84
-42.73
-45.30
-47.44
-49.16
-50.62
-51.96
-53.17
-54.04
-54.22
-53.44
-51.59
-48.81
-45.24
-40.97
-35.91
-29.88
-22.86
-15.12
-7.23
0.08
6.18
10.84
14.24
16.88
19.30
21.89
24.78
27.85
30.87
33.68
36.21
38.53
40.68
42.68
44.52
46.21
47.84
49.48
51.21
52.96
54.53
55.59
55.86
55.12
53.30
50.47
46.70
42.16
37.12
31.87
26.75
22.07
17.97
14.44
11.34
8.48
5.80
3.38
1.43
0.11
-0.54
-0.71
-0.73
-0.98
-1.92
-3.90
-7.19
-11.93
-17.97
-24.85
-31.82
-38.05
-42.80
-45.72
-46.85
-46.58
-45.42
-43.78
-42.01
-40.29
-38.72
-37.39
-36.33
-35.45
-34.58
-33.48
-31.93
-29.86
-27.44
-24.86
-22.39
-20.19
-18.34
-16.92
-16.05
-15.88
-16.46
-17.69
-19.24
-20.73
-21.88
-22.64
-23.19
-23.83
-24.71
-25.75
-26.64
-26.91
-26.19
-24.28
-21.19
-17.14
-12.40
-7.23
-1.89
3.43
8.54
13.30
17.57
21.26
24.23
26.39
27.65
27.96
27.39
26.09
24.34
22.47
20.88
19.95
19.98
21.14
23.43
26.57
30.11
33.47
36.12
37.75
38.37
38.33
38.18
38.47
39.53
41.36
43.68
46.10
48.26
50.00
51.39
52.54
53.51
54.22
54.47
54.07
52.97
51.26
49.12
46.59
43.48
39.46
34.15
27.43
19.48
10.74
1.77
-6.96
-15.10
-22.42
-28.68
-33.78
-37.62
-40.32
-42.19
-43.66
-45.11
-46.78
-48.70
-50.73
-52.77
-54.83
-56.97
-59.33
-61.90
-64.48
-66.61
-67.74
-67.41
-65.51
-62.29
-58.30
-54.17
-50.45
-47.37
-44.95
-43.12
-41.77
-40.83
-40.18
-39.60
-38.71
-37.06
-34.24
-30.04
-24.54
-18.06
-11.11
-4.22
2.11
7.57
12.11
15.89
19.20
22.37
25.64
29.11
32.76
36.57
40.54
44.70
48.96
53.16
56.87
59.65
61.08
60.93
59.26
56.35
52.63
48.47
44.09
39.56
34.88
30.06
25.21
20.45
15.83
11.34
6.90
2.52
-1.64
-5.22
-7.78
-8.90
-8.35
-6.23
-2.89
1.18
5.42
9.34
12.61
15.18
17.15
18.85
20.56
22.46
24.60
26.96
29.46
31.97
34.37
36.36
37.55
37.60
36.27
33.51
29.54
24.73
19.42
13.94
8.51
3.30
-1.49
-5.70
-9.29
-12.32
-14.91
-17.24
-19.41
-21.39
-23.08
-24.35
-25.15
-25.54
-25.58
-25.41
-25.07
-24.64
-24.15
-23.66
-23.28
-23.04
-22.92
-22.85
-22.86
-23.18
-24.13
-26.06
-29.04
-32.74
-36.45
-39.25
-40.38
-39.54
-36.97
-33.28
-29.27
-25.53
-22.31
-19.53
-16.93
-14.28
-11.54
-8.93
-6.76
-5.35
-4.77
-4.86
-5.32
-5.91
-6.62
-7.62
-9.16
-11.29
-13.87
-16.53
-18.89
-20.70
-21.88
-22.50
-22.62
-22.20
-21.15
-19.40
-16.92
-13.72
-9.82
-5.19
0.16
6.11
12.34
18.41
23.83
28.19
31.36
33.50
35.07
36.66
38.86
41.94
45.81
49.98
53.69
56.31
57.43
57.06
55.55
53.40
51.01
48.63
46.31
43.96
41.54
39.03
36.44
33.77
31.00
28.10
25.13
22.34
19.99
18.37
17.57
17.40
17.46
17.24
16.34
14.60
12.26
9.67
7.13
4.68
2.02
-1.31
-5.82
-11.76
-19.29
-28.35
-38.91
-50.77
-63.34
-75.51
-85.81
-93.00
-96.68
-97.67
-97.68
-98.48
-101.10
-105.34
-109.99
-113.47
-114.55
-112.69
-108.05
-100.98
-91.67
-80.10
-65.97
-49.15
-29.85
-8.76
12.96
33.86
52.46
67.61
78.59
85.13
87.35
85.61
80.50
72.84
63.67
53.93
44.38
35.26
26.41
17.44
7.98
-2.03
-12.42
-22.72
-32.39
-40.80
-47.29
-51.29
-52.49
-51.05
-47.56
-43.04
-38.51
-34.67
-31.65
-29.07
-26.33
-23.05
-19.32
-15.62
-12.54
-10.46
-9.32
-8.66
-7.97
-7.03
-6.00
-5.36
-5.66
-7.14
-9.72
-12.96
-16.25
-19.12
-21.27
-22.71
-23.68
-24.51
-25.47
-26.66
-27.98
-29.15
-29.80
-29.52
-27.90
-24.62
-19.44
-12.21
-2.90
8.35
21.30
35.46
50.23
64.90
78.72
90.95
100.97
108.37
112.93
114.67
113.74
110.51
105.41
99.05
92.07
85.08
78.53
72.66
67.50
62.95
58.93
55.36
52.27
49.76
47.93
46.81
46.34
46.40
46.78
47.29
47.79
48.27
48.92
50.09
52.05
54.77
57.72
59.92
60.19
57.57
51.67
42.80
31.84
20.00
8.40
-2.09
-10.99
-18.15
-23.53
-27.28
-29.60
-30.72
-30.77
-29.64
-27.08
-22.86
-17.18
-10.75
-4.89
-1.15
-0.75
-4.11
-10.66
-19.12
-27.91
-35.68
-41.54
-45.09
-46.32
-45.44
-42.78
-38.71
-33.57
-27.51
-20.43
-12.09
-2.21
9.24
21.68
33.77
43.60
49.13
49.00
42.94
32.07
18.75
5.86
-3.90
-8.81
-8.44
-3.74
3.45
10.85
16.53
19.25
18.66
15.02
8.96
1.02
-8.50
-19.45
-31.80
-45.34
-59.74
-74.53
-89.17
-103.03
-115.36
-125.30
-132.02
-134.96
-133.95
-129.41
-122.26
-113.69
-104.98
-97.27
-91.41
-87.86
-86.69
-87.56
-89.70
-92.20
-93.95
-93.99
-91.63
-86.52
-78.70
-68.61
-56.90
-44.28
-31.40
-18.83
-7.06
3.32
11.69
17.54
20.64
21.28
20.31
18.87
18.08
18.59
20.54
23.56
27.09
30.57
33.60
35.92
37.34
37.77
37.20
35.68
33.38
30.46
27.08
23.33
19.35
15.36
11.63
8.45
5.93
3.95
2.24
0.53
-1.28
-3.04
-4.47
-5.36
-5.66
-5.62
-5.57
-5.80
-6.40
-7.23
-8.06
-8.72
-9.18
-9.49
-9.61
-9.25
-7.82
-4.61
1.03
9.38
20.30
33.12
46.88
60.36
72.38
81.91
88.25
91.13
90.70
87.59
82.79
77.38
72.32
68.14
64.85
62.02
58.94
54.99
49.89
43.82
37.24
30.66
24.33
18.18
11.82
4.91
-2.60
-10.29
-17.34
-22.84
-26.05
-26.73
-25.22
-22.25
-18.70
-15.27
-12.34
-9.91
-7.79
-5.76
-3.69
-1.56
0.64
2.93
5.44
8.29
11.57
15.21
19.00
22.64
25.81
28.31
30.05
30.99
31.17
30.57
29.15
26.85
23.63
19.45
14.40
8.59
2.19
-4.59
-11.47
-18.10
-24.06
-28.92
-32.29
-33.97
-33.93
-32.37
-29.73
-26.46
-23.03
-19.70
-16.59
-13.69
-10.95
-8.36
-5.97
-3.86
-1.99
-0.18
1.81
4.20
7.05
10.22
13.47
16.57
19.33
21.73
23.83
25.69
27.40
28.99
30.51
32.00
33.55
35.20
36.99
38.87
40.70
42.35
43.72
44.90
46.11
47.60
49.49
51.66
53.69
55.08
55.39
54.45
52.43
49.73
46.92
44.53
43.01
42.54
43.02
43.88
44.14
42.55
37.91
29.40
16.94
1.35
-15.74
-32.32
-46.41
-56.65
-62.53
-64.36
-63.07
-59.84
-55.87
-52.15
-49.46
-48.29
-48.83
-50.98
-54.24
-57.80
-60.84
-62.64
-62.94
-61.83
-59.70
-57.02
-54.09
-50.88
-47.07
-42.22
-36.05
-28.63
-20.43
-12.26
-5.05
0.41
3.57
4.18
2.34
-1.58
-6.95
-12.94
-18.64
-23.24
-26.17
-27.27
-26.75
-25.14
-23.01
-20.92
-19.16
-17.69
-16.19
-13.97
-10.35
-4.68
3.35
13.76
26.20
40.16
55.07
70.34
85.41
99.64
112.37
123.04
131.25
136.78
139.55
139.57
136.84
131.50
123.85
114.46
104.04
93.27
82.49
71.67
60.47
48.55
35.84
22.63
9.56
-2.68
-13.55
-22.78
-30.27
-36.10
-40.44
-43.54
-45.73
-47.36
-48.70
-49.88
-50.85
-51.50
-51.69
-51.38
-50.56
-49.24
-47.45
-45.23
-42.67
-39.93
-37.23
-34.78
-32.72
-31.10
-29.84
-28.88
-28.23
-27.88
-27.81
-27.89
-27.88
-27.43
-26.29
-24.43
-22.04
-19.50
-17.24
-15.60
-14.80
-14.89
-15.74
-17.17
-18.88
-20.60
-22.00
-22.97
-23.53
-23.82
-24.04
-24.36
-24.86
-25.54
-26.35
-27.20
-28.00
-28.59
-28.82
-28.63
-28.13
-27.56
-27.26
-27.50
-28.36
-29.67
-31.07
-32.21
-32.89
-33.07
-32.87
-32.48
-32.01
-31.51
-31.02
-30.64
-30.47
-30.69
-31.38
-32.56
-34.19
-36.12
-38.19
-40.34
-42.48
-44.59
-46.48
-47.81
-48.16
-47.17
-44.68
-40.98
-36.75
-32.76
-29.67
-27.74
-26.65
-25.79
-24.41
-22.04
-18.64
-14.62
-10.67
-7.48
-5.52
-4.83
-5.04
-5.49
-5.24
-3.35
1.00
8.25
18.14
29.43
40.06
47.46
49.35
44.43
32.69
15.26
-6.25
-30.53
-56.59
-83.35
-108.80
-129.46
-140.69
-138.24
-119.75
-86.04
-41.05
9.35
59.01
102.60
136.08
156.44
161.53
150.70
125.49
90.21
51.46
16.34
-9.75
-24.70
-29.83
-28.58
-24.59
-20.14
-15.84
-11.10
-5.17
2.15
10.50
19.22
27.85
36.20
44.22
51.74
58.30
63.27
66.15
66.87
65.94
64.29
63.01
62.90
64.24
66.63
69.12
70.58
70.15
67.47
62.83
57.08
51.20
46.15
42.55
40.57
40.03
40.46
41.31
42.13
42.62
42.56
41.86
40.44
38.26
35.48
32.45
29.76
28.11
28.11
30.03
33.69
38.46
43.44
47.55
49.95
50.14
48.17
44.50
39.77
34.69
29.85
25.80
23.13
22.48
24.52
29.67
37.93
48.68
60.72
72.28
81.38
86.18
85.40
78.74
67.03
52.23
36.90
23.52
13.72
7.79
4.53
1.46
-4.41
-15.73
-33.88
-58.45
-87.30
-117.15
-144.49
-166.55
-181.95
-190.80
-194.42
-194.57
-192.99
-190.92
-189.07
-187.64
-186.49
-185.30
-183.48
-180.43
-175.54
-168.48
-159.21
-148.13
-135.92
-123.33
-110.87
-98.66
-86.54
-74.40
-62.41
-51.11
-41.25
-33.56
-28.33
-25.30
-23.85
-23.23
-22.91
-22.74
-22.72
-22.80
-22.54
-21.09
-17.27
-10.12
0.82
15.30
32.28
50.42
68.44
85.53
101.58
117.04
132.51
148.38
164.60
180.52
195.05
206.82
214.36
216.32
211.60
199.56
180.20
154.34
123.40
89.30
54.12
19.85
-11.69
-38.98
-60.96
-77.13
-87.62
-93.18
-94.85
-93.63
-90.28
-85.27
-79.05
-72.14
-65.36
-59.59
-55.64
-53.88
-54.14
-55.84
-58.21
-60.57
-62.50
-63.92
-64.88
-65.50
-65.79
-65.50
-64.41
-62.35
-59.48
-56.25
-53.28
-51.01
-49.54
-48.56
-47.43
-45.46
-42.09
-36.93
-29.78
-20.72
-10.01
1.80
14.02
25.95
37.22
47.93
58.61
69.89
82.20
95.41
108.86
121.54
132.26
139.82
143.04
140.84
132.44
117.72
97.46
73.37
47.81
23.09
0.92
-17.83
-33.12
-45.28
-54.61
-61.21
-65.04
-66.17
-64.93
-61.94
-57.87
-53.25
-48.31
-42.97
-37.09
-30.61
-23.74
-16.92
-10.68
-5.42
-1.37
1.58
3.70
5.32
6.76
8.20
9.72
11.36
13.12
15.03
17.10
19.32
21.55
23.66
25.42
26.68
27.33
27.41
27.09
26.61
26.21
26.01
25.96
25.85
25.40
24.43
22.86
20.76
18.19
15.19
11.81
8.10
4.24
0.45
-3.05
-6.17
-8.98
-11.73
-14.64
-17.85
-21.35
-25.03
-28.74
-32.29
-35.38
-37.57
-38.35
-37.26
-34.11
-29.15
-22.97
-16.42
-10.17
-4.66
0.05
4.21
8.05
11.77
15.41
18.91
22.25
25.41
28.44
31.32
34.07
36.64
39.02
41.26
43.43
45.53
47.53
49.23
50.38
50.72
50.05
48.32
45.64
42.24
38.45
34.59
30.93
27.70
24.96
22.66
20.68
18.89
17.15
15.44
13.81
12.29
10.86
9.30
7.25
4.34
0.37
-4.64
-10.29
-16.00
-21.24
-25.69
-29.40
-32.82
-36.57
-41.27
-47.20
-54.20
-61.65
-68.56
-73.93
-76.88
-77.05
-74.63
-70.38
-65.32
-60.32
-55.74
-51.18
-45.55
-37.51
-26.15
-11.46
5.27
21.87
35.84
45.32
49.66
49.64
47.12
44.27
42.88
43.88
47.28
52.42
58.43
64.49
69.94
74.25
76.84
77.20
75.00
70.25
63.47
55.56
47.55
40.27
34.14
29.16
25.05
21.49
18.30
15.53
13.33
11.89
11.22
11.22
11.55
11.79
11.53
10.51
8.74
6.51
4.27
2.44
1.20
0.38
-0.49
-1.94
-4.34
-7.74
-11.83
-16.05
-19.76
-22.36
-23.46
-22.84
-20.58
-16.97
-12.55
-7.96
-3.78
-0.37
2.27
4.41
6.44
8.62
10.99
13.36
15.43
16.99
18.01
18.69
19.26
19.95
20.82
21.82
22.75
23.50
23.89
23.87
23.38
22.43
20.96
18.96
16.47
13.57
10.45
7.27
4.23
1.39
-1.18
-3.56
-5.86
-8.19
-10.66
-13.33
-16.16
-19.01
-21.66
-23.83
-25.41
-26.48
-27.45
-28.88
-31.23
-34.63
-38.64
-42.42
-44.94
-45.44
-43.70
-40.22
-35.98
-31.93
-28.62
-25.99
-23.41
-20.04
-15.37
-9.37
-2.67
3.77
9.11
12.95
15.46
17.39
19.91
24.19
31.30
41.85
55.76
72.05
88.97
104.31
116.09
123.34
126.40
126.82
126.65
127.44
129.47
131.65
132.15
129.30
122.55
112.60
100.98
89.23
78.15
67.55
56.51
43.96
29.25
12.49
-5.70
-24.43
-43.04
-61.34
-79.37
-96.93
-113.19
-126.35
-134.19
-134.84
-127.72
-114.03
-96.43
-77.89
-60.62
-45.36
-31.65
-18.74
-6.70
3.29
9.19
9.22
2.78
-9.17
-24.36
-40.08
-53.95
-64.47
-71.03
-73.61
-72.48
-68.02
-60.65
-50.90
-39.45
-27.04
-14.42
-2.20
9.08
18.91
26.67
31.59
32.85
29.86
22.48
11.25
-2.58
-17.40
-31.46
-43.35
-52.18
-57.67
-60.04
-59.83
-57.70
-54.33
-50.36
-46.41
-42.99
-40.50
-39.09
-38.63
-38.77
-38.96
-38.68
-37.53
-35.35
-32.22
-28.38
-24.11
-19.68
-15.23
-10.78
-6.20
-1.43
3.43
8.06
11.87
14.35
15.26
14.91
14.09
13.85
15.07
18.20
23.14
29.38
36.25
43.08
49.32
54.53
58.41
60.80
61.81
61.79
61.22
60.58
60.10
59.74
59.15
57.89
55.63
52.28
48.06
43.24
38.03
32.32
25.65
17.29
6.43
-7.47
-24.47
-44.01
-65.02
-86.15
-106.04
-123.61
-138.12
-149.28
-157.03
-161.41
-162.35
-159.64
-153.06
-142.53
-128.34
-111.20
-92.22
-72.60
-53.39
-35.33
-18.80
-3.97
9.06
20.17
29.31
36.54
42.11
46.29
49.26
51.09
51.66
50.86
48.70
45.40
41.34
36.92
32.48
28.21
24.22
20.57
17.37
14.77
12.96
12.16
12.45
13.82
16.10
19.01
22.28
25.65
28.85
31.66
33.88
35.34
35.95
35.72
34.76
33.25
31.32
29.11
26.65
23.99
21.19
18.32
15.51
12.89
10.51
8.36
6.31
4.23
2.06
-0.00
-1.47
-1.69
-0.11
3.54
9.06
15.83
23.05
30.03
36.36
41.94
46.84
51.07
54.61
57.29
58.98
59.62
59.37
58.40
56.91
55.08
53.00
50.78
48.61
46.61
44.84
43.29
41.86
40.45
38.98
37.37
35.42
32.75
28.75
22.77
14.29
3.16
-10.34
-25.44
-41.09
-56.01
-68.90
-78.66
-84.65
-86.85
-85.89
-82.95
-79.33
-76.17
-74.12
-73.32
-73.58
-74.63
-76.28
-78.48
-81.24
-84.50
-88.04
-91.50
-94.29
-95.69
-94.89
-91.11
-83.78
-72.75
-58.38
-41.67
-24.07
-7.18
7.64
19.52
28.30
34.37
38.36
40.93
42.41
42.93
42.49
41.22
39.41
37.48
35.86
34.77
34.26
34.29
34.80
35.84
37.49
39.80
42.69
45.95
49.24
52.19
54.63
56.49
57.96
59.34
60.90
62.77
64.84
66.77
68.18
68.79
68.49
67.42
65.78
63.75
61.40
58.74
55.81
52.82
50.16
48.13
46.89
46.20
45.38
43.51
39.60
32.95
23.31
11.12
-2.73
-16.95
-30.33
-42.06
-52.02
-60.71
-69.01
-77.75
-87.17
-96.83
-105.68
-112.64
-116.97
-118.77
-118.90
-118.76
-119.77
-122.97
-128.69
-136.25
-143.81
-148.55
-147.27
-137.57
-118.99
-93.59
-65.52
-39.70
-20.03
-8.29
-3.87
-4.60
-8.06
-12.45
-16.86
-20.83
-23.87
-25.21
-24.05
-20.09
-13.76
-6.25
1.00
6.83
10.77
13.12
14.70
16.39
18.60
21.15
23.26
24.05
22.97
20.19
16.55
13.32
11.74
12.51
15.63
20.37
25.72
30.75
34.94
38.31
41.32
44.55
48.36
52.74
57.16
60.88
63.22
63.82
62.73
60.37
57.23
53.69
49.84
45.45
40.12
33.40
25.01
14.97
3.76
-7.71
-18.31
-26.88
-32.73
-35.64
-35.88
-33.88
-29.89
-24.06
-16.37
-7.11
3.03
12.91
21.27
27.13
30.12
30.51
28.91
26.07
22.49
18.37
13.72
8.47
2.70
-3.39
-9.40
-14.85
-19.28
-22.28
-23.44
-22.40
-18.84
-12.64
-4.02
6.36
17.43
27.97
36.99
43.98
49.07
52.75
55.63
58.14
60.38
62.19
63.30
63.60
63.17
62.27
61.13
59.89
58.44
56.53
53.84
50.16
45.44
39.79
33.54
27.11
20.92
15.27
10.34
6.06
2.20
-1.54
-5.43
-9.59
-13.96
-18.40
-22.81
-27.12
-31.41
-35.77
-40.21
-44.81
-49.52
-54.34
-59.24
-64.08
-68.54
-72.14
-74.33
-74.64
-72.83
-69.09
-63.89
-57.96
-52.03
-46.62
-42.05
-38.29
-35.14
-32.42
-30.07
-28.17
-26.89
-26.32
-26.34
-26.68
-26.91
-26.72
-25.99
-24.84
-23.61
-22.64
-22.11
-22.01
-22.06
-21.88
-21.17
-19.84
-18.14
-16.54
-15.62
-15.76
-17.02
-19.05
-21.33
-23.41
-25.02
-26.34
-27.73
-29.59
-32.07
-35.01
-37.96
-40.37
-41.78
-41.75
-40.06
-36.52
-31.19
-24.61
-17.74
-11.69
-7.03
-3.27
1.46
9.82
24.24
45.84
73.75
105.34
137.10
165.64
188.43
204.09
212.15
212.83
206.95
195.72
180.84
164.09
147.01
130.58
115.24
100.96
87.62
75.22
63.93
54.10
46.02
39.78
35.26
32.07
29.68
27.66
25.70
23.76
21.91
20.26
18.66
16.69
13.64
8.56
0.64
-10.63
-25.11
-41.75
-58.50
-72.64
-81.30
-82.24
-74.58
-58.95
-37.27
-12.13
13.94
39.01
61.92
82.13
99.39
113.46
124.08
130.94
133.82
132.68
127.68
119.25
108.05
94.86
80.62
66.33
52.88
41.04
31.16
23.11
16.34
10.09
3.73
-3.04
-10.13
-17.23
-23.93
-29.89
-34.87
-38.75
-41.62
-43.77
-45.72
-48.09
-51.43
-55.88
-61.16
-66.64
-71.60
-75.64
-78.79
-81.50
-84.32
-87.69
-91.63
-95.71
-99.20
-101.21
-101.01
-98.18
-92.77
-85.20
-76.25
-66.84
-57.91
-50.27
-44.65
-41.64
-41.66
-44.83
-50.89
-59.13
-68.40
-77.36
-84.59
-88.92
-89.51
-85.98
-78.35
-67.03
-52.67
-36.06
-18.02
0.79
19.81
38.57
56.54
72.89
86.44
95.67
99.10
95.67
85.25
68.74
47.83
24.41
-0.13
-25.37
-51.71
-79.94
-110.42
-142.61
-174.89
-204.96
-230.50
-249.74
-261.85
-266.89
-265.53
-258.69
-247.13
-231.34
-211.59
-188.27
-162.23
-134.96
-108.24
-83.63
-62.01
-43.35
-27.09
-12.91
-1.18
6.98
10.47
9.24
4.80
-0.13
-2.87
-1.91
2.45
8.75
15.60
22.74
31.20
42.50
57.44
75.27
93.93
110.84
124.10
133.08
138.40
141.33
143.12
144.61
146.09
147.38
147.89
146.87
143.66
137.98
130.29
121.59
113.19
106.10
100.74
96.83
93.72
90.73
87.32
83.09
77.64
70.58
61.64
50.98
39.25
27.41
16.32
6.29
-2.87
-11.77
-20.83
-30.00
-38.80
-46.51
-52.60
-57.02
-60.03
-62.07
-63.43
-64.10
-63.83
-62.27
-59.24
-54.86
-49.61
-44.11
-38.99
-34.67
-31.23
-28.47
-26.03
-23.59
-20.98
-18.23
-15.42
-12.63
-9.81
-6.75
-3.30
0.61
4.87
9.21
13.39
17.34
21.17
25.10
29.31
33.71
37.94
41.38
43.45
43.75
42.26
39.32
35.51
31.50
27.79
24.63
22.02
19.76
17.59
15.30
12.82
10.21
7.59
5.04
2.49
-0.18
-3.12
-6.37
-9.77
-13.05
-15.93
-18.23
-19.86
-20.82
-21.06
-20.52
-19.12
-16.87
-13.91
-10.55
-7.12
-4.00
-1.55
-0.02
0.40
-0.33
-2.08
-4.53
-7.26
-9.75
-11.72
-13.13
-14.22
-15.49
-17.43
-20.34
-24.19
-28.58
-32.78
-35.96
-37.35
-36.39
-32.81
-26.75
-18.70
-9.44
0.02
8.74
15.97
21.31
24.55
25.60
24.36
20.91
15.70
9.54
3.58
-1.17
-4.29
-6.11
-7.51
-9.37
-12.02
-15.01
-17.41
-18.27
-17.12
-14.15
-10.02
-5.54
-1.33
2.28
5.23
7.58
9.51
11.19
12.80
14.56
16.51
18.63
20.77
22.83
24.74
26.62
28.65
31.02
33.85
37.11
40.79
44.83
49.24
53.94
58.78
63.47
67.58
70.76
72.84
73.89
74.18
74.01
73.55
72.80
71.56
69.57
66.58
62.36
56.83
49.97
41.93
33.05
23.77
14.68
6.40
-0.49
-5.50
-8.38
-9.25
-8.61
-7.28
-6.14
-5.87
-6.58
-7.78
-8.66
-8.48
-6.92
-4.18
-0.90
2.33
5.16
7.59
9.87
12.24
14.72
17.17
19.43
21.45
23.25
24.84
26.04
26.58
26.13
24.59
22.18
19.31
16.46
13.89
11.64
9.59
7.66
5.85
4.20
2.64
0.83
-1.70
-5.48
-10.70
-17.15
-24.25
-31.33
-37.82
-43.55
-48.59
-53.14
-57.27
-60.96
-64.09
-66.70
-69.00
-71.33
-74.00
-77.05
-80.17
-82.85
-84.58
-85.08
-84.43
-82.92
-80.99
-79.01
-77.29
-75.83
-74.47
-72.77
-70.24
-66.46
-61.27
-54.84
-47.72
-40.62
-34.18
-28.77
-24.41
-20.89
-17.88
-15.18
-12.60
-10.12
-7.71
-5.31
-2.89
-0.41
2.09
4.56
6.92
9.17
11.31
13.38
15.41
17.36
19.18
20.80
22.21
23.39
24.40
25.25
25.93
26.43
26.70
26.68
26.31
25.52
24.28
22.57
20.49
18.19
15.87
13.65
11.56
9.53
7.46
5.25
2.94
0.65
-1.38
-2.94
-3.94
-4.44
-4.63
-4.86
-5.43
-6.51
-8.01
-9.62
-10.88
-11.37
-11.00
-9.95
-8.72
-7.82
-7.68
-8.40
-9.92
-12.02
-14.46
-17.09
-19.64
-21.81
-23.19
-23.51
-22.69
-20.94
-18.66
-16.26
-14.00
-11.95
-10.09
-8.32
-6.67
-5.19
-3.89
-2.71
-1.49
-0.11
1.44
3.03
4.42
5.47
6.13
6.50
6.82
7.32
8.09
9.10
10.19
11.13
11.81
12.12
12.04
11.60
10.85
9.86
8.74
7.57
6.41
5.31
4.19
2.99
1.66
0.29
-0.86
-1.39
-0.81
1.25
5.01
10.42
17.17
24.89
33.12
41.57
50.09
58.55
66.78
74.43
81.01
85.86
88.33
87.84
84.03
76.89
66.86
54.79
41.90
29.39
18.35
9.34
2.45
-2.68
-6.55
-9.71
-12.57
-15.49
-18.75
-22.57
-27.02
-31.98
-37.09
-41.83
-45.69
-48.29
-49.53
-49.52
-48.53
-46.89
-44.87
-42.61
-40.19
-37.63
-35.00
-32.43
-30.09
-28.13
-26.64
-25.66
-25.17
-25.29
-26.16
-27.96
-30.69
-34.08
-37.56
-40.36
-41.81
-41.45
-39.31
-35.78
-31.49
-27.10
-23.14
-19.89
-17.34
-15.29
-13.47
-11.63
-9.67
-7.59
-5.49
-3.47
-1.67
-0.14
1.15
2.32
3.55
4.97
6.62
8.39
10.17
11.81
13.26
14.56
15.82
17.08
18.26
19.22
19.83
20.02
19.82
19.34
18.65
17.83
16.90
15.82
14.55
13.05
11.31
9.43
7.61
6.10
5.10
4.66
4.54
4.37
3.63
1.93
-0.81
-4.19
-7.48
-9.73
-10.10
-8.16
-4.10
1.26
6.73
11.07
13.36
13.23
10.86
6.95
2.42
-1.78
-5.00
-6.84
-7.26
-6.53
-5.06
-3.29
-1.56
-0.07
1.16
2.17
3.12
4.17
5.39
6.77
8.12
9.18
9.63
9.26
8.12
6.45
4.68
3.18
2.18
1.64
1.38
1.08
0.47
-0.71
-2.67
-5.51
-9.16
-13.28
-17.34
-20.73
-22.96
-23.89
-23.80
-23.31
-23.21
-24.12
-26.29
-29.49
-32.98
-35.79
-36.97
-35.93
-32.59
-27.43
-21.28
-15.02
-9.27
-4.33
-0.12
3.61
7.16
10.75
14.49
18.31
22.06
25.49
28.24
30.06
30.92
30.97
30.59
30.24
30.21
30.55
30.99
31.07
30.34
28.60
25.94
22.67
19.26
16.10
13.42
11.25
9.48
7.93
6.43
4.89
3.31
1.77
0.35
-0.92
-2.03
-3.10
-4.26
-5.62
-7.26
-9.17
-11.33
-13.74
-16.38
-19.19
-22.09
-24.97
-27.87
-30.90
-34.24
-37.94
-41.77
-45.14
-47.23
-47.33
-45.13
-40.85
-35.25
-29.27
-23.74
-19.15
-15.57
-12.68
-9.98
-6.96
-3.27
1.14
6.08
11.17
15.93
19.99
23.14
25.35
26.75
27.58
28.09
28.55
29.12
29.89
30.78
31.54
31.90
31.68
30.97
30.04
29.33
29.18
29.67
30.63
31.63
32.15
31.79
30.45
28.23
25.51
22.64
19.89
17.38
15.05
12.81
10.53
8.19
5.82
3.52
1.25
-1.06
-3.56
-6.39
-9.64
-13.33
-17.42
-21.80
-26.19
-30.11
-32.89
-33.75
-32.17
-28.09
-22.09
-15.31
-9.06
-4.35
-1.61
-0.56
-0.40
-0.29
0.46
2.09
4.46
7.23
10.01
12.55
14.73
16.52
17.92
18.93
19.58
19.93
20.12
20.32
20.68
21.25
22.00
22.76
23.34
23.59
23.45
22.99
22.34
21.58
20.74
19.80
18.69
17.40
15.96
14.42
12.80
11.02
8.98
6.61
3.98
1.26
-1.31
-3.60
-5.61
-7.47
-9.37
-11.43
-13.71
-16.24
-19.03
-22.02
-24.99
-27.50
-28.82
-28.29
-25.55
-20.79
-14.73
-8.43
-2.85
1.45
4.43
6.47
8.11
9.78
11.66
13.73
15.84
17.81
19.53
20.95
22.15
23.20
24.14
24.99
25.64
26.03
26.16
26.18
26.25
26.52
26.94
27.25
27.11
26.25
24.66
22.55
20.33
18.29
16.58
15.15
13.76
12.23
10.48
8.56
6.54
4.51
2.49
0.50
-1.40
-3.20
-4.92
-6.72
-8.85
-11.58
-15.07
-19.20
-23.54
-27.43
-30.10
-30.97
-29.74
-26.49
-21.70
-16.06
-10.25
-4.87
-0.22
3.67
6.92
9.78
12.44
15.03
17.54
19.95
22.17
24.17
25.96
27.52
28.87
30.03
31.01
31.86
32.62
33.35
34.11
34.91
35.65
36.13
36.07
35.21
33.45
31.01
28.27
25.74
23.81
22.52
21.68
20.90
19.79
18.21
16.22
14.04
11.89
9.82
7.67
5.14
1.87
-2.41
-7.74
-14.00
-20.90
-28.14
-35.42
-42.39
-48.67
-53.74
-57.06
-58.13
-56.74
-53.10
-47.91
-42.15
-36.83
-32.61
-29.66
-27.55
-25.49
-22.65
-18.49
-12.98
-6.58
0.04
6.26
11.67
16.18
19.84
22.75
25.06
26.89
28.43
29.92
31.54
33.34
35.16
36.61
37.32
37.02
35.76
33.77
31.42
29.02
26.68
24.33
21.76
18.74
15.14
11.00
6.47
1.71
-3.11
-7.87
-12.50
-16.96
-21.28
-25.50
-29.64
-33.75
-37.82
-41.88
-45.84
-49.60
-53.07
-56.18
-58.90
-61.23
-63.17
-64.56
-65.05
-64.12
-61.23
-56.09
-48.87
-40.22
-31.15
-22.68
-15.61
-10.24
-6.45
-3.81
-1.79
0.08
2.19
4.78
7.90
11.48
15.29
18.96
22.08
24.34
25.66
26.23
26.45
26.82
27.83
29.72
32.47
35.79
39.33
42.73
45.87
48.87
52.03
55.73
60.25
65.59
71.45
77.24
82.16
85.48
86.68
85.53
82.07
76.52
69.15
60.31
50.31
39.46
28.07
16.31
4.33
-7.87
-20.29
-32.87
-45.49
-58.03
-70.40
-82.68
-94.99
-107.31
-119.31
-130.19
-138.85
-144.16
-145.29
-142.02
-134.77
-124.48
-112.20
-98.74
-84.34
-68.79
-51.72
-32.86
-12.53
8.40
28.63
46.86
62.16
74.18
83.16
89.65
94.34
97.73
100.09
101.45
101.61
100.34
97.43
92.80
86.50
78.73
69.76
59.90
49.56
39.09
28.87
19.22
10.32
2.17
-5.37
-12.44
-19.05
-24.92
-29.80
-33.56
-36.48
-39.24
-42.64
-47.27
-53.05
-59.17
-64.25
-66.85
-65.98
-61.53
-54.38
-46.08
-38.37
-32.66
-29.58
-28.96
-30.02
-31.67
-32.77
-32.29
-29.31
-23.05
-13.17
0.03
15.38
30.94
44.47
54.15
59.02
59.17
55.44
49.07
41.60
34.77
30.52
30.64
36.21
46.87
60.71
74.68
85.62
91.46
91.78
87.78
81.52
75.05
69.63
65.52
62.11
58.34
53.19
46.04
36.98
26.77
16.62
7.80
1.29
-2.53
-3.89
-3.45
-2.11
-0.80
-0.29
-1.19
-3.74
-7.84
-13.03
-18.55
-23.48
-26.92
-28.29
-27.43
-24.85
-21.50
-18.64
-17.37
-18.19
-20.79
-24.09
-26.60
-27.02
-24.77
-20.29
-14.86
-10.19
-7.83
-8.73
-13.14
-20.64
-30.45
-41.80
-54.20
-67.53
-81.90
-97.46
-114.09
-131.32
-148.31
-164.04
-177.53
-187.79
-193.76
-194.33
-188.40
-175.24
-155.02
-128.91
-99.00
-67.65
-36.77
-7.35
20.49
46.99
72.20
95.50
115.77
131.69
142.22
146.85
145.63
139.09
128.15
113.98
97.86
81.00
64.40
48.68
34.21
21.15
9.62
-0.32
-8.68
-15.58
-21.07
-24.98
-26.86
-26.16
-22.68
-16.86
-9.85
-3.08
2.31
6.00
8.44
10.56
13.19
16.73
21.05
25.80
30.67
35.56
40.62
45.91
51.32
56.48
60.87
63.97
65.49
65.34
63.75
61.09
57.74
54.00
50.07
46.13
42.38
39.08
36.41
34.42
32.87
31.34
29.40
26.75
23.31
19.18
14.51
9.41
3.90
-1.96
-8.11
-14.35
-20.47
-26.28
-31.73
-36.86
-41.67
-46.10
-49.93
-52.89
-54.70
-55.19
-54.38
-52.51
-50.13
-47.91
-46.58
-46.72
-48.65
-52.30
-57.22
-62.73
-68.05
-72.54
-75.83
-77.86
-78.83
-79.18
-79.45
-80.08
-81.35
-83.16
-85.11
-86.53
-86.84
-85.53
-82.54
-78.04
-72.30
-65.56
-57.69
-48.38
-37.27
-24.24
-9.51
6.34
22.53
38.26
52.89
66.04
77.49
87.05
94.51
99.57
101.97
101.61
98.64
93.48
86.79
79.28
71.44
63.33
54.62
44.64
32.73
18.54
2.16
-15.66
-33.69
-50.37
-64.04
-73.21
-76.82
-74.37
-66.12
-53.04
-36.70
-18.99
-1.70
13.77
26.54
36.30
43.05
46.89
47.98
46.50
42.73
37.09
30.13
22.29
13.91
5.18
-3.69
-12.35
-20.23
-26.72
-31.32
-33.88
-34.59
-33.87
-32.19
-29.90
-27.20
-24.12
-20.75
-17.24
-13.81
-10.80
-8.47
-6.98
-6.27
-6.13
-6.32
-6.61
-6.92
-7.26
-7.71
-8.30
-9.02
-9.79
-10.48
-11.15
-11.94
-13.08
-14.72
-16.82
-19.03
-20.83
-21.67
-21.20
-19.49
-16.93
-14.10
-11.53
-9.51
-8.05
-6.93
-5.88
-4.66
-3.22
-1.62
0.06
1.74
3.36
4.97
6.69
8.57
10.68
12.97
15.33
17.57
19.55
21.19
22.55
23.77
24.95
26.08
27.01
27.43
27.01
25.49
22.87
19.42
15.60
11.96
8.97
6.89
5.72
5.29
5.25
5.26
5.07
4.57
3.79
2.87
1.93
1.02
0.10
-0.95
-2.28
-3.95
-5.93
-8.05
-10.02
-11.48
-12.06
-11.53
-9.91
-7.47
-4.69
-2.07
-0.01
1.33
2.02
2.28
2.39
2.59
3.03
3.73
4.62
5.58
6.53
7.47
8.51
9.79
11.32
12.96
14.39
15.30
15.49
14.95
13.84
12.40
10.87
9.33
7.81
6.25
4.57
2.78
0.96
-0.77
-2.26
-3.43
-4.32
-5.01
-5.66
-6.43
-7.36
-8.44
-9.58
-10.65
-11.66
-12.69
-13.89
-15.44
-17.47
-20.02
-22.96
-26.03
-28.86
-31.06
-32.30
-32.35
-31.13
-28.78
-25.62
-22.12
-18.73
-15.77
-13.34
-11.29
-9.34
-7.25
-4.98
-2.70
-0.69
0.86
1.95
2.80
3.69
4.76
5.92
6.83
7.05
6.19
4.08
0.74
-3.57
-8.57
-13.91
-19.24
-24.19
-28.40
-31.57
-33.56
-34.38
-34.20
-33.38
-32.32
-31.41
-30.82
-30.51
-30.09
-29.05
-26.84
-23.26
-18.52
-13.27
-8.42
-4.88
-3.22
-3.47
-5.19
-7.48
-9.39
-10.05
-8.97
-6.13
-1.93
3.00
8.01
12.69
16.93
20.77
24.36
27.69
30.58
32.80
34.17
34.78
34.95
35.18
35.89
37.17
38.72
40.00
40.51
40.08
38.93
37.59
36.50
35.80
35.28
34.56
33.37
31.76
30.08
28.78
28.17
28.30
29.04
30.10
31.09
31.54
30.90
28.61
24.43
18.58
11.82
5.26
0.01
-3.27
-4.58
-4.47
-3.75
-3.12
-3.00
-3.46
-4.36
-5.44
-6.40
-6.99
-7.00
-6.39
-5.24
-3.82
-2.52
-1.71
-1.65
-2.44
-3.98
-5.95
-8.05
-10.00
-11.65
-13.00
-14.23
-15.52
-17.10
-19.07
-21.50
-24.35
-27.44
-30.53
-33.28
-35.40
-36.68
-37.11
-36.85
-36.09
-35.09
-33.90
-32.40
-30.25
-27.04
-22.47
-16.58
-9.83
-2.91
3.35
8.40
12.02
14.41
16.01
17.27
18.47
19.75
21.08
22.34
23.41
24.18
24.59
24.60
24.17
23.16
21.39
18.72
15.20
11.22
7.55
5.11
4.66
6.47
10.19
15.00
19.95
24.21
27.38
29.33
30.14
29.96
28.95
27.29
25.19
22.88
20.57
18.46
16.70
15.38
14.54
14.13
14.07
14.21
14.43
14.64
14.83
14.98
15.01
14.80
14.17
12.99
11.27
9.17
6.91
4.72
2.73
0.92
-0.79
-2.42
-3.85
-4.94
-5.58
-5.78
-5.73
-5.67
-5.81
-6.23
-6.85
-7.64
-8.48
-9.38
-10.29
-11.23
-12.11
-12.88
-13.49
-13.92
-14.16
-14.11
-13.62
-12.49
-10.58
-7.93
-4.68
-1.11
2.42
5.52
7.88
9.31
9.78
9.46
8.64
7.62
6.61
5.64
4.64
3.52
2.24
0.90
-0.32
-1.26
-1.80
-1.94
-1.77
-1.42
-0.96
-0.51
-0.14
0.13
0.24
0.13
-0.22
-0.88
-1.83
-2.94
-4.03
-4.94
-5.62
-6.22
-6.99
-8.09
-9.59
-11.26
-12.69
-13.58
-13.82
-13.64
-13.50
-13.93
-15.31
-17.70
-20.89
-24.43
-27.77
-30.41
-32.02
-32.44
-31.69
-29.95
-27.41
-24.32
-20.93
-17.47
-14.12
-10.97
-8.07
-5.42
-3.04
-0.98
0.70
1.96
2.83
3.45
3.98
4.52
5.04
5.43
5.57
5.42
5.12
4.87
4.84
5.12
5.63
6.16
6.47
6.36
5.79
4.85
3.73
2.65
1.76
1.10
0.60
0.14
-0.38
-0.93
-1.46
-1.99
-2.70
-3.86
-5.79
-8.61
-12.19
-16.24
-20.38
-24.28
-27.68
-30.37
-32.13
-32.71
-32.04
-30.32
-28.00
-25.70
-23.89
-22.72
-21.98
-21.26
-20.15
-18.46
-16.24
-13.74
-11.32
-9.27
-7.80
-6.99
-6.77
-6.97
-7.16
-6.85
-5.45
-2.55
1.92
7.68
14.04
20.22
25.54
29.72
32.85
35.33
37.56
39.92
42.64
45.96
50.21
55.76
62.89
71.42
80.67
89.50
96.61
100.95
101.95
99.66
94.49
86.97
77.52
66.40
53.70
39.47
23.72
6.51
-11.83
-30.55
-48.30
-63.37
-73.97
-78.82
-77.66
-71.41
-61.90
-51.44
-42.24
-35.87
-33.05
-33.55
-36.38
-40.03
-42.97
-44.16
-43.28
-40.85
-37.67
-34.50
-31.62
-28.86
-25.87
-22.38
-18.53
-14.71
-11.52
-9.42
-8.67
-9.34
-11.32
-14.41
-18.31
-22.70
-27.19
-31.53
-35.54
-39.22
-42.65
-45.94
-49.20
-52.48
-55.80
-59.07
-62.14
-64.72
-66.53
-67.34
-67.02
-65.57
-63.10
-59.74
-55.68
-51.07
-46.07
-40.80
-35.42
-30.06
-24.92
-20.11
-15.66
-11.34
-6.71
-1.21
5.65
13.97
23.32
32.77
41.15
47.52
51.44
53.08
53.04
52.01
50.55
48.88
46.99
44.80
42.26
39.49
36.70
34.12
32.03
30.69
30.40
31.43
33.92
37.73
42.42
47.29
51.61
54.81
56.63
57.21
56.90
56.15
55.40
55.07
55.63
57.50
60.90
65.78
71.62
77.63
83.01
87.28
90.45
92.94
95.34
97.98
100.85
103.46
105.00
104.69
101.99
96.72
89.10
79.61
68.80
57.12
44.88
32.24
19.33
6.28
-6.87
-20.12
-33.60
-47.46
-61.64
-75.75
-88.95
-100.19
-108.39
-112.76
-112.96
-109.06
-101.59
-91.36
-79.46
-67.09
-55.48
-45.71
-38.54
-34.36
-33.10
-34.34
-37.32
-41.07
-44.51
-46.63
-46.73
-44.58
-40.49
-35.26
-30.03
-25.93
-23.78
-23.90
-25.99
-29.21
-32.48
-34.78
-35.42
-34.13
-30.97
-26.12
-19.71
-11.83
-2.73
7.14
17.02
26.06
33.54
39.08
42.73
44.77
45.58
45.34
44.07
41.68
38.07
33.35
27.70
21.40
14.71
7.90
1.35
-4.57
-9.42
-12.89
-14.82
-15.33
-14.80
-13.75
-12.64
-11.79
-11.21
-10.73
-10.08
-9.01
-7.39
-5.16
-2.35
0.92
4.44
7.93
11.04
13.42
14.88
15.44
15.34
15.01
14.84
15.09
15.81
16.83
17.82
18.40
18.20
17.04
14.97
12.32
9.58
7.26
5.69
4.92
4.72
4.63
4.30
3.66
2.97
2.72
3.50
5.75
9.74
15.53
22.98
31.80
41.59
51.81
61.89
71.30
79.72
87.06
93.41
98.74
102.74
104.79
104.13
100.15
92.66
82.06
69.13
54.90
40.31
26.02
12.24
-1.16
-14.49
-28.06
-41.86
-55.53
-68.41
-79.85
-89.41
-97.02
-102.76
-106.51
-107.70
-105.35
-98.49
-86.75
-70.63
-51.46
-30.95
-10.69
8.09
24.56
38.08
48.12
54.31
56.72
55.93
53.00
49.06
44.94
40.93
36.91
32.57
27.71
22.39
16.69
10.61
3.79
-4.45
-14.72
-27.26
-41.53
-56.25
-69.64
-80.07
-86.36
-88.11
-85.53
-79.13
-69.51
-57.16
-42.50
-26.02
-8.14
10.79
30.55
50.95
71.74
92.20
111.26
127.51
139.56
146.27
146.93
141.20
129.05
110.79
87.09
59.06
28.21
-3.85
-35.69
-66.26
-94.94
-121.32
-145.07
-165.93
-183.81
-198.81
-211.31
-221.74
-230.45
-237.48
-242.58
-245.31
-245.23
-242.02
-235.51
-225.71
-212.73
-196.72
-177.85
-156.27
-132.23
-106.03
-78.19
-49.43
-20.75
6.75
32.02
54.22
72.86
87.76
98.94
106.54
110.87
112.45
112.12
110.96
110.03
110.01
110.99
112.48
113.61
113.60
112.13
109.43
106.14
102.95
100.30
98.22
96.36
94.20
91.33
87.52
82.84
77.50
71.81
66.12
60.73
55.85
51.60
47.99
44.88
42.11
39.53
36.99
34.45
31.83
29.09
26.22
23.24
20.26
17.46
14.99
12.93
11.24
9.78
8.48
7.32
6.40
5.71
5.10
4.32
3.07
1.23
-1.06
-3.52
-5.85
-7.90
-9.75
-11.54
-13.40
-15.35
-17.21
-18.80
-19.94
-20.58
-20.68
-20.19
-19.02
-17.09
-14.47
-11.36
-8.12
-5.07
-2.40
-0.09
2.06
4.19
6.32
8.25
9.72
10.48
10.57
10.19
9.66
9.29
9.24
9.55
10.12
10.82
11.48
12.01
12.39
12.62
12.71
12.62
12.28
11.64
10.69
9.57
8.52
7.74
7.30
7.04
6.69
6.00
4.84
3.31
1.68
0.31
-0.65
-1.12
-1.30
-1.53
-2.11
-3.27
-5.02
-7.22
-9.57
-11.80
-13.73
-15.30
-16.65
-17.91
-19.30
-20.94
-22.88
-25.05
-27.19
-28.91
-29.77
-29.46
-27.90
-25.28
-21.96
-18.40
-14.96
-11.85
-9.18
-6.95
-5.18
-3.81
-2.79
-2.01
-1.44
-1.14
-1.19
-1.69
-2.61
-3.76
-4.94
-5.97
-6.80
-7.53
-8.36
-9.34
-10.53
-11.76
-12.92
-13.86
-14.61
-15.20
-15.72
-16.24
-16.77
-17.38
-18.00
-18.63
-19.22
-19.73
-20.06
-20.22
-20.16
-19.92
-19.55
-19.00
-18.16
-16.82
-14.87
-12.35
-9.59
-7.02
-5.07
-3.94
-3.60
-3.78
-4.19
-4.64
-5.09
-5.66
-6.49
-7.66
-9.13
-10.78
-12.50
-14.13
-15.47
-16.30
-16.40
-15.60
-13.85
-11.29
-8.22
-5.06
-2.22
0.04
1.62
2.65
3.40
4.16
5.15
6.46
7.98
9.43
10.53
11.09
11.08
10.67
10.12
9.69
9.54
9.74
10.30
11.20
12.39
13.80
15.35
16.87
18.19
19.21
19.90
20.33
20.59
20.77
20.89
20.86
20.60
20.03
19.14
18.04
16.91
15.94
15.24
14.73
14.19
13.37
12.08
10.26
8.06
5.74
3.51
1.47
-0.37
-2.14
-3.95
-5.87
-7.96
-10.26
-12.78
-15.50
-18.30
-20.89
-22.96
-24.15
-24.27
-23.32
-21.48
-19.06
-16.45
-13.95
-11.73
-9.86
-8.24
-6.75
-5.26
-3.69
-2.12
-0.67
0.49
1.30
1.74
1.92
1.97
2.03
2.25
2.70
3.38
4.22
5.11
5.88
6.45
6.75
6.80
6.64
6.27
5.71
4.95
4.13
3.33
2.70
2.23
1.86
1.45
0.88
0.18
-0.60
-1.27
-1.77
-2.16
-2.64
-3.44
-4.69
-6.41
-8.39
-10.41
-12.24
-13.78
-15.04
-16.16
-17.35
-18.80
-20.53
-22.35
-23.86
-24.51
-23.92
-21.97
-18.91
-15.28
-11.66
-8.50
-5.95
-3.98
-2.42
-1.08
0.13
1.31
2.53
3.81
5.08
6.23
7.13
7.72
8.05
8.28
8.56
8.97
9.54
10.24
11.05
11.97
12.91
13.74
14.25
14.28
13.80
12.97
12.02
11.12
10.35
9.66
8.98
8.24
7.51
6.91
6.54
6.50
6.74
7.14
7.48
7.52
7.12
6.28
5.13
3.85
2.62
1.45
0.25
-1.13
-2.78
-4.69
-6.79
-9.01
-11.28
-13.42
-15.12
-15.90
-15.34
-13.24
-9.80
-5.67
-1.62
1.72
4.10
5.70
6.97
8.40
10.28
12.68
15.44
18.38
21.29
24.04
26.57
28.80
30.70
32.25
33.53
34.62
35.62
36.52
37.19
37.38
36.81
35.23
32.57
28.93
24.57
19.87
15.17
10.76
6.83
3.41
0.46
-2.17
-4.64
-7.18
-9.96
-13.07
-16.44
-19.89
-23.11
-25.80
-27.82
-29.14
-29.90
-30.30
-30.55
-30.83
-31.29
-32.05
-33.14
-34.53
-36.01
-37.25
-37.85
-37.47
-35.97
-33.49
-30.38
-27.08
-23.97
-21.23
-18.78
-16.43
-13.99
-11.35
-8.53
-5.66
-2.93
-0.54
1.38
2.84
3.92
4.84
5.85
7.14
8.81
10.79
12.85
14.78
16.39
17.60
18.39
18.79
18.81
18.48
17.82
16.83
15.51
13.91
12.10
10.25
8.53
7.06
5.89
5.00
4.30
3.63
2.88
1.99
0.90
-0.38
-1.85
-3.38
-4.77
-5.93
-6.81
-7.50
-8.22
-9.15
-10.42
-12.06
-13.98
-15.90
-17.43
-18.11
-17.60
-15.77
-12.80
-9.08
-5.17
-1.56
1.38
3.57
5.10
6.24
7.29
8.51
10.08
11.97
14.02
15.96
17.51
18.44
18.74
18.47
17.85
17.14
16.49
16.06
15.87
15.88
15.95
15.95
15.72
15.16
14.22
12.91
11.37
9.78
8.32
7.13
6.25
5.64
5.15
4.64
4.01
3.23
2.34
1.37
0.38
-0.65
-1.74
-2.97
-4.33
-5.86
-7.53
-9.32
-11.22
-13.18
-15.19
-17.24
-19.27
-21.14
-22.66
-23.59
-23.69
-22.78
-20.83
-18.00
-14.65
-11.22
-8.16
-5.74
-3.98
-2.73
-1.68
-0.59
0.61
1.88
3.07
4.07
4.92
5.74
6.68
7.75
8.85
9.78
10.39
10.63
10.57
10.28
9.88
9.41
8.84
8.21
7.56
6.99
6.61
6.40
6.30
6.26
6.21
6.15
6.14
6.21
6.34
6.40
6.20
5.59
4.49
2.99
1.23
-0.62
-2.45
-4.21
-5.90
-7.54
-9.18
-10.96
-13.05
-15.62
-18.65
-21.87
-24.80
-26.82
-27.47
-26.59
-24.39
-21.36
-18.06
-14.93
-12.22
-9.96
-8.03
-6.27
-4.51
-2.70
-0.88
0.88
2.52
3.95
5.20
6.39
7.65
9.17
11.05
13.26
15.68
18.16
20.50
22.52
24.09
25.09
25.43
25.13
24.26
22.97
21.47
19.95
18.47
16.98
15.37
13.50
11.38
9.10
6.87
4.86
3.19
1.85
0.72
-0.43
-1.80
-3.52
-5.57
-7.72
-9.74
-11.42
-12.76
-13.98
-15.40
-17.28
-19.63
-22.21
-24.56
-26.15
-26.58
-25.71
-23.65
-20.79
-17.66
-14.75
-12.42
-10.73
-9.45
-8.14
-6.39
-3.96
-0.91
2.48
5.90
9.08
11.91
14.36
16.39
17.94
18.92
19.30
19.14
18.66
18.06
17.51
17.04
16.56
15.91
15.01
13.89
12.63
11.39
10.32
9.56
9.18
9.20
9.46
9.73
9.74
9.28
8.31
6.98
5.61
4.43
3.54
2.73
1.72
0.27
-1.65
-3.84
-5.93
-7.68
-8.99
-10.04
-11.14
-12.55
-14.44
-16.82
-19.50
-22.24
-24.78
-26.81
-28.01
-28.13
-27.01
-24.81
-21.94
-18.95
-16.38
-14.46
-13.09
-11.84
-10.25
-8.04
-5.22
-2.10
0.95
3.67
5.99
8.03
9.95
11.79
13.48
14.88
15.89
16.54
16.97
17.41
17.97
18.66
19.29
19.67
19.61
19.04
18.08
16.90
15.76
14.78
14.05
13.51
13.09
12.67
12.12
11.31
10.13
8.50
6.53
4.39
2.31
0.47
-1.08
-2.41
-3.62
-4.85
-6.17
-7.59
-9.09
-10.61
-12.15
-13.68
-15.19
-16.67
-18.23
-20.05
-22.33
-25.24
-28.66
-32.24
-35.38
-37.40
-37.78
-36.38
-33.47
-29.65
-25.66
-22.08
-19.23
-17.14
-15.60
-14.32
-13.04
-11.54
-9.78
-7.82
-5.78
-3.84
-2.15
-0.81
0.16
0.81
1.28
1.76
2.45
3.55
5.13
7.15
9.45
11.80
14.07
16.32
18.88
22.18
26.53
31.88
37.67
42.95
46.69
48.15
47.10
43.87
39.14
33.55
27.54
21.44
15.57
10.35
6.23
3.38
1.77
1.22
1.73
3.74
7.92
14.61
23.15
31.59
37.26
37.82
32.39
22.10
9.52
-2.33
-11.29
-16.46
-18.14
-17.13
-14.12
-9.54
-3.72
2.85
9.36
14.83
18.57
20.40
20.70
20.18
19.59
19.40
19.78
20.56
21.47
22.29
22.86
23.19
23.30
23.11
22.41
20.93
18.52
15.26
11.54
7.96
5.03
3.11
2.17
1.93
2.08
2.39
2.86
3.64
4.89
6.61
8.60
10.53
12.05
12.98
13.31
13.15
12.68
12.01
11.11
9.85
8.06
5.67
2.65
-0.92
-4.92
-9.20
-13.59
-17.94
-22.09
-25.93
-29.47
-32.76
-35.94
-39.01
-41.87
-44.22
-45.69
-46.03
-45.06
-42.88
-39.71
-35.93
-31.94
-28.10
-24.67
-21.70
-19.11
-16.71
-14.29
-11.72
-9.04
-6.41
-3.97
-1.80
0.13
1.89
3.55
5.11
6.54
7.83
9.05
10.22
11.38
12.45
13.29
13.73
13.66
13.08
12.16
11.06
9.94
8.86
7.83
6.88
6.07
5.47
5.16
5.14
5.24
5.17
4.61
3.42
1.60
-0.61
-2.93
-5.13
-7.18
-9.20
-11.37
-13.80
-16.46
-19.21
-21.82
-24.10
-25.85
-26.90
-27.03
-26.02
-23.72
-20.22
-15.86
-11.21
-6.89
-3.32
-0.68
1.19
2.58
3.86
5.25
6.80
8.42
9.88
11.00
11.72
12.05
12.17
12.28
12.52
12.91
13.37
13.70
13.74
13.45
12.81
11.90
10.80
9.53
8.13
6.70
5.36
4.30
3.61
3.24
2.96
2.44
1.41
-0.19
-2.17
-4.28
-6.24
-7.99
-9.65
-11.46
-13.71
-16.58
-20.09
-24.10
-28.25
-32.00
-34.72
-35.85
-35.06
-32.46
-28.52
-23.94
-19.34
-15.08
-11.21
-7.54
-3.84
0.05
4.25
8.87
14.10
20.16
27.26
35.55
45.04
55.56
66.74
78.11
89.13
99.45
108.91
117.58
125.57
132.80
138.70
142.29
142.51
138.73
130.98
120.05
107.10
93.18
78.94
64.59
50.23
36.19
23.16
11.94
3.04
-3.71
-9.20
-14.56
-20.85
-28.41
-36.75
-44.87
-51.73
-56.61
-59.44
-60.46
-59.88
-57.68
-54.01
-49.86
-47.42
-49.54
-58.40
-74.16
-94.31
-114.60
-130.81
-140.60
-144.27
-144.03
-142.33
-140.53
-138.41
-134.97
-129.62
-122.92
-116.29
-111.08
-107.80
-105.67
-103.18
-98.88
-92.05
-83.03
-73.02
-63.38
-55.00
-47.96
-41.57
-34.81
-26.98
-18.05
-8.68
0.14
7.56
13.24
17.34
20.35
22.85
25.34
28.18
31.64
35.99
41.49
48.27
56.24
65.00
73.94
82.38
89.78
95.86
100.52
103.86
106.01
107.09
107.27
106.66
105.43
103.69
101.52
98.87
95.66
91.84
87.50
82.93
78.53
74.63
71.28
68.29
65.16
61.46
57.03
52.01
46.86
42.02
37.81
34.29
31.37
28.77
26.34
24.01
21.77
19.72
17.89
16.35
15.15
14.20
13.23
11.68
8.82
3.88
-3.59
-13.48
-25.04
-36.94
-47.68
-55.99
-61.19
-63.35
-63.15
-61.56
-59.52
-57.66
-56.19
-54.95
-53.64
-51.99
-49.93
-47.59
-45.14
-42.77
-40.55
-38.48
-36.53
-34.79
-33.38
-32.44
-32.02
-31.99
-32.15
-32.34
-32.50
-32.76
-33.41
-34.71
-36.86
-39.83
-43.40
-47.28
-51.15
-54.80
-58.16
-61.29
-64.35
-67.55
-71.01
-74.76
-78.71
-82.68
-86.42
-89.72
-92.44
-94.46
-95.79
-96.40
-96.10
-94.49
-90.85
-84.35
-74.39
-60.83
-44.18
-25.60
-6.54
11.65
28.03
42.29
54.58
65.33
75.08
84.30
93.32
102.31
111.19
119.52
126.60
131.63
134.11
134.03
131.92
128.66
125.13
121.89
119.05
116.40
113.50
110.01
105.68
100.39
94.00
86.52
77.99
68.61
58.77
48.84
39.18
29.99
21.36
13.24
5.60
-1.52
-8.08
-13.93
-19.07
-23.55
-27.56
-31.36
-35.22
-39.29
-43.45
-47.36
-50.36
-51.80
-51.19
-48.44
-43.90
-38.23
-32.24
-26.51
-21.44
-17.06
-13.29
-9.93
-6.81
-3.83
-0.92
1.88
4.49
6.77
8.67
10.17
11.41
12.61
13.93
15.47
17.22
19.08
20.89
22.53
23.83
24.61
24.64
23.82
22.16
19.95
17.62
15.56
14.05
13.06
12.36
11.64
10.69
9.48
8.10
6.72
5.43
4.27
3.19
2.15
1.15
0.23
-0.55
-1.17
-1.68
-2.19
-2.93
-4.13
-6.07
-8.83
-12.33
-16.18
-19.85
-22.76
-24.56
-25.21
-25.05
-24.67
-24.64
-25.40
-27.20
-30.07
-33.87
-38.36
-43.14
-47.64
-51.26
-53.48
-54.11
-53.37
-51.90
-50.41
-49.48
-49.28
-49.55
-49.82
-49.62
-48.72
-47.19
-45.26
-43.22
-41.22
-39.26
-37.28
-35.20
-33.01
-30.77
-28.56
-26.48
-24.71
-23.56
-23.39
-24.56
-27.19
-30.97
-35.15
-38.64
-40.26
-38.97
-34.14
-25.57
-13.49
1.50
18.43
36.10
53.16
68.40
80.97
90.52
97.27
101.78
104.70
106.55
107.63
108.05
107.78
106.77
104.98
102.41
99.07
95.00
90.27
84.88
78.86
72.18
64.81
56.83
48.48
40.20
32.56
26.13
21.28
18.00
15.88
14.25
12.41
9.84
6.39
2.30
-1.92
-5.79
-8.97
-11.37
-13.06
-14.15
-14.71
-14.75
-14.37
-13.76
-13.31
-13.48
-14.62
-16.83
-19.83
-23.11
-26.09
-28.34
-29.74
-30.40
-30.60
-30.55
-30.41
-30.17
-29.83
-29.47
-29.31
-29.59
-30.45
-31.84
-33.51
-35.14
-36.45
-37.26
-37.54
-37.26
-36.46
-35.20
-33.67
-32.21
-31.20
-30.85
-31.15
-31.82
-32.47
-32.90
-33.09
-33.36
-34.10
-35.69
-38.32
-41.94
-46.35
-51.11
-55.77
-59.87
-63.14
-65.59
-67.49
-69.24
-71.08
-72.93
-74.23
-74.13
-71.63
-65.95
-56.82
-44.57
-30.09
-14.53
0.96
15.57
28.85
40.63
50.83
59.26
65.62
69.65
71.28
70.87
69.10
66.70
64.23
61.80
59.22
56.22
52.66
48.73
44.77
41.22
38.29
36.04
34.45
33.48
33.20
33.60
34.58
35.78
36.68
36.71
35.50
32.91
29.09
24.36
19.09
13.64
8.32
3.37
-1.05
-4.93
-8.44
-11.83
-15.40
-19.33
-23.55
-27.68
-31.05
-33.03
-33.14
-31.30
-27.85
-23.45
-18.88
-14.85
-11.81
-9.91
-8.99
-8.71
-8.72
-8.86
-9.06
-9.38
-9.86
-10.34
-10.58
-10.28
-9.30
-7.82
-6.20
-4.96
-4.44
-4.81
-6.06
-8.07
-10.74
-13.96
-17.47
-20.87
-23.61
-25.13
-25.11
-23.61
-21.15
-18.52
-16.58
-15.94
-16.77
-18.76
-21.26
-23.53
-24.94
-25.17
-24.27
-22.56
-20.53
-18.64
-17.18
-16.19
-15.48
-14.77
-13.76
-12.40
-10.86
-9.46
-8.45
-7.86
-7.39
-6.54
-4.89
-2.20
1.36
5.36
9.22
12.46
14.74
15.97
16.22
15.74
14.88
14.02
13.50
13.54
14.20
15.24
16.31
17.00
17.00
16.29
15.05
13.69
12.62
12.11
12.24
12.85
13.67
14.43
14.92
15.04
14.76
14.08
13.07
11.83
10.54
9.37
8.48
7.88
7.50
7.19
6.76
6.10
5.23
4.26
3.29
2.39
1.59
0.92
0.41
0.10
-0.03
0.00
0.01
-0.21
-0.90
-2.24
-4.25
-6.72
-9.26
-11.37
-12.53
-12.45
-11.15
-8.93
-6.28
-3.67
-1.41
0.42
1.85
2.99
3.79
4.17
4.03
3.38
2.39
1.40
0.76
0.62
0.98
1.58
2.17
2.52
2.55
2.33
1.99
1.64
1.28
0.85
0.27
-0.42
-1.16
-1.87
-2.47
-2.95
-3.35
-3.73
-4.09
-4.37
-4.43
-4.08
-3.29
-2.13
-0.87
0.17
0.72
0.62
-0.10
-1.27
-2.66
-4.12
-5.60
-7.17
-8.95
-10.99
-13.25
-15.55
-17.64
-19.21
-19.99
-19.83
-18.74
-16.85
-14.39
-11.72
-9.18
-7.11
-5.74
-5.08
-4.92
-5.00
-5.05
-4.93
-4.73
-4.61
-4.77
-5.27
-6.00
-6.71
-7.10
-6.98
-6.27
-5.00
-3.17
-0.78
2.22
5.78
9.64
13.28
16.09
17.50
17.32
15.69
13.06
9.92
6.66
3.52
0.72
-1.46
-2.69
-2.73
-1.63
0.18
1.99
3.11
3.13
2.07
0.30
-1.76
-3.81
-5.84
-8.03
-10.59
-13.69
-17.31
-21.20
-24.98
-28.14
-30.18
-30.71
-29.65
-27.27
-24.22
-21.37
-19.48
-19.01
-19.91
-21.74
-23.83
-25.52
-26.40
-26.30
-25.33
-23.76
-21.95
-20.14
-18.47
-16.89
-15.23
-13.26
-10.84
-7.92
-4.58
-1.05
2.43
5.65
8.37
10.43
11.73
12.23
12.08
11.61
11.24
11.38
12.28
13.87
15.85
17.80
19.38
20.44
21.09
21.56
22.04
22.67
23.39
24.10
24.60
24.63
23.89
22.13
19.16
15.10
10.42
5.89
2.37
0.43
0.09
0.82
1.72
1.90
0.91
-1.13
-3.53
-5.39
-5.91
-4.83
-2.36
0.92
4.30
7.30
9.70
11.64
13.60
16.20
19.95
25.11
31.38
37.90
43.42
46.54
46.18
42.04
34.73
25.69
16.75
9.43
4.45
1.48
-0.84
-4.37
-10.78
-20.98
-34.80
-51.16
-68.44
-85.16
-100.32
-113.79
-126.09
-137.98
-149.94
-161.70
-172.10
-179.39
-181.71
-177.75
-167.13
-150.46
-129.19
-105.25
-80.71
-57.44
-36.98
-20.37
-8.06
0.09
4.83
7.23
8.47
9.47
10.82
12.58
14.46
16.02
16.88
16.92
16.38
15.76
15.64
16.41
18.06
20.16
22.08
23.20
23.26
22.52
21.62
21.33
22.10
23.89
26.17
28.15
29.09
28.64
26.86
24.17
21.08
18.05
15.31
12.96
10.94
8.98
6.68
3.46
-1.36
-8.20
-17.02
-27.10
-37.18
-45.78
-51.74
-54.60
-54.71
-53.05
-50.61
-48.13
-45.81
-43.40
-40.48
-36.75
-32.17
-26.99
-21.53
-16.09
-10.73
-5.39
0.04
5.62
11.39
17.46
24.06
31.59
40.40
50.60
61.94
73.67
84.77
94.21
101.33
105.92
108.36
109.23
109.23
108.84
108.22
107.21
105.42
102.52
98.38
93.24
87.54
81.87
76.73
72.29
68.42
64.59
60.20
54.65
47.65
39.23
29.81
20.21
11.43
4.53
0.35
-0.75
1.06
5.10
10.39
15.98
21.16
25.57
29.14
31.85
33.63
34.23
33.39
31.07
27.61
23.67
20.00
17.16
15.26
13.96
12.71
10.98
8.45
4.95
0.34
-5.56
-12.87
-21.48
-30.84
-39.91
-47.51
-52.51
-54.27
-52.67
-48.11
-41.25
-33.01
-24.35
-16.24
-9.54
-4.80
-2.19
-1.40
-1.87
-3.08
-4.82
-7.27
-10.81
-15.74
-21.85
-28.23
-33.47
-36.02
-34.77
-29.38
-20.37
-8.79
4.06
17.05
29.38
40.50
50.18
58.34
65.09
70.71
75.55
79.97
84.21
88.28
91.95
94.91
96.83
97.51
96.97
95.48
93.47
91.43
89.69
88.21
86.61
84.25
80.54
75.26
68.57
61.06
53.47
46.39
40.08
34.40
28.97
23.32
17.26
10.80
4.23
-2.08
-7.95
-13.45
-19.01
-25.18
-32.45
-40.84
-49.90
-58.66
-65.92
-70.57
-71.92
-70.00
-65.43
-59.29
-52.68
-46.41
-40.71
-35.36
-29.84
-23.81
-17.23
-10.43
-3.89
2.05
7.39
12.36
17.29
22.28
27.18
31.64
35.30
37.98
39.73
40.68
40.91
40.33
38.76
36.06
32.28
27.70
22.73
17.75
13.04
8.64
4.51
0.58
-3.16
-6.64
-9.82
-12.76
-15.53
-18.30
-21.28
-24.73
-29.04
-34.55
-41.55
-49.96
-59.30
-68.58
-76.48
-81.71
-83.29
-80.96
-75.24
-67.42
-59.20
-52.20
-47.45
-45.06
-44.31
-44.04
-43.21
-41.34
-38.57
-35.33
-31.96
-28.52
-24.82
-20.75
-16.49
-12.56
-9.58
-7.85
-7.25
-7.21
-7.08
-6.41
-5.11
-3.44
-1.81
-0.54
0.28
0.72
1.01
1.19
1.16
0.64
-0.65
-2.81
-5.62
-8.57
-11.13
-12.86
-13.80
-14.28
-14.87
-16.09
-18.20
-21.07
-24.23
-26.90
-28.27
-27.63
-24.61
-19.24
-12.10
-4.11
3.67
10.39
15.73
19.89
23.44
26.96
30.71
34.45
37.61
39.53
39.78
38.39
35.84
32.88
30.23
28.33
27.19
26.50
25.74
24.47
22.57
20.17
17.63
15.37
13.64
12.50
11.83
11.58
11.80
12.72
14.54
17.23
20.53
23.89
26.71
28.57
29.31
29.02
27.86
25.91
23.21
19.98
16.70
14.20
13.42
15.03
19.09
25.02
31.71
38.02
43.06
46.51
48.56
49.74
50.68
51.74
53.03
54.33
55.25
55.45
54.76
53.23
51.11
48.72
46.29
43.89
41.53
39.13
36.71
34.27
31.70
28.65
24.63
19.15
12.14
3.96
-4.62
-12.70
-19.73
-25.58
-30.68
-35.58
-40.82
-46.60
-52.83
-59.32
-65.89
-72.56
-79.44
-86.68
-94.33
-102.25
-109.98
-116.62
-121.09
-122.13
-118.82
-110.93
-99.03
-84.47
-69.03
-54.38
-41.66
-31.33
-23.31
-17.25
-12.75
-9.55
-7.40
-5.99
-4.89
-3.60
-1.72
0.98
4.55
8.77
13.34
17.90
22.08
25.72
28.69
31.02
32.75
33.88
34.25
33.68
31.96
29.05
25.17
20.72
16.25
12.15
8.63
5.44
2.27
-1.27
-5.35
-9.81
-14.30
-18.39
-21.84
-24.61
-26.93
-29.05
-31.25
-33.70
-36.54
-39.80
-43.33
-46.67
-49.04
-49.47
-47.11
-41.59
-33.25
-23.10
-12.44
-2.39
6.36
13.71
19.93
25.42
30.45
35.07
39.22
42.78
45.72
48.05
49.83
51.14
52.11
52.83
53.35
53.64
53.62
53.22
52.38
51.11
49.44
47.40
45.00
42.20
38.92
35.17
31.05
26.83
22.87
19.52
17.01
15.33
14.24
13.34
12.15
10.35
7.83
4.64
0.98
-2.99
-7.22
-11.67
-16.40
-21.45
-26.84
-32.60
-38.74
-45.18
-51.75
-58.01
-63.29
-66.83
-68.01
-66.55
-62.71
-57.16
-50.75
-44.21
-37.94
-31.96
-25.97
-19.69
-12.95
-5.89
1.11
7.64
13.43
18.43
22.82
26.83
30.55
33.92
36.81
39.14
41.07
42.87
44.82
46.93
48.90
50.23
50.43
49.30
46.97
43.85
40.43
37.04
33.84
30.81
27.87
24.95
22.01
18.98
15.83
12.47
8.79
4.68
0.05
-5.06
-10.55
-16.17
-21.70
-26.99
-32.12
-37.42
-43.31
-50.07
-57.62
-65.36
-72.25
-77.06
-78.76
-76.81
-71.34
-63.06
-53.13
-42.76
-32.98
-24.39
-17.19
-11.20
-6.05
-1.42
2.94
7.08
10.95
14.47
17.54
20.16
22.31
24.01
25.26
26.11
26.59
26.77
26.74
26.54
26.15
25.50
24.48
23.07
21.32
19.39
17.56
16.06
15.01
14.38
14.03
13.74
13.39
12.95
12.51
12.19
12.11
12.24
12.47
12.55
12.16
11.09
9.28
6.79
3.89
0.83
-2.21
-5.17
-8.16
-11.40
-15.08
-19.31
-24.03
-28.94
-33.51
-36.97
-38.55
-37.69
-34.29
-28.83
-22.23
-15.58
-9.78
-5.28
-2.05
0.31
2.33
4.43
6.78
9.37
12.06
14.72
17.26
19.67
21.93
23.95
25.65
26.93
27.80
28.37
28.83
29.34
29.97
30.61
31.04
31.02
30.46
29.45
28.22
26.97
25.82
24.68
23.37
21.73
19.73
17.50
15.20
12.99
10.89
8.87
6.82
4.64
2.27
-0.32
-3.08
-5.86
-8.49
-10.77
-12.61
-14.07
-15.34
-16.75
-18.61
-21.15
-24.40
-28.06
-31.62
-34.32
-35.40
-34.32
-30.97
-25.76
-19.55
-13.36
-8.00
-3.94
-1.15
0.74
2.18
3.56
5.07
6.70
8.29
9.79
11.05
12.09
12.90
13.53
14.02
14.41
14.71
14.87
14.88
14.65
14.19
13.48
12.54
11.38
9.95
8.26
6.36
4.41
2.62
1.12
0.00
-0.86
-1.64
-2.49
-3.49
-4.56
-5.61
-6.62
-7.68
-8.99
-10.81
-13.21
-16.09
-19.19
-22.19
-24.80
-26.88
-28.46
-29.74
-31.04
-32.69
-34.92
-37.66
-40.45
-42.47
-42.72
-40.43
-35.36
-28.04
-19.53
-11.13
-3.92
1.61
5.53
8.29
10.45
12.37
14.15
15.73
16.98
17.88
18.52
19.07
19.68
20.48
21.50
22.69
23.97
25.24
26.45
27.65
28.93
30.36
31.93
33.49
34.81
35.65
35.85
35.41
34.50
33.32
32.09
30.83
29.43
27.70
25.41
22.50
19.12
15.56
12.16
9.13
6.45
3.92
1.31
-1.55
-4.65
-7.84
-10.91
-13.78
-16.44
-19.07
-21.84
-24.90
-28.39
-32.35
-36.66
-41.03
-44.92
-47.61
-48.44
-47.02
-43.45
-38.29
-32.44
-26.76
-21.91
-18.09
-15.13
-12.63
-10.17
-7.44
-4.40
-1.24
1.71
4.04
5.50
6.06
5.94
5.53
5.25
5.43
6.25
7.71
9.75
12.29
15.24
18.47
21.80
24.94
27.55
29.41
30.48
30.92
31.15
31.61
32.65
34.42
36.79
39.40
41.78
43.54
44.39
44.27
43.29
41.59
39.39
36.81
33.92
30.76
27.43
24.09
20.95
18.26
16.11
14.45
12.89
10.84
7.65
2.74
-4.11
-12.61
-22.02
-31.18
-38.80
-43.76
-45.36
-43.57
-39.01
-32.91
-26.63
-21.39
-17.89
-16.17
-15.76
-15.90
-15.89
-15.32
-14.15
-12.60
-11.01
-9.65
-8.68
-8.12
-7.91
-7.98
-8.27
-8.75
-9.42
-10.19
-10.94
-11.54
-11.99
-12.41
-12.99
-14.01
-15.51
-17.39
-19.27
-20.68
-21.12
-20.27
-18.04
-14.59
-10.29
-5.55
-0.81
3.61
7.46
10.62
13.00
14.52
15.10
14.67
13.21
10.86
7.84
4.46
1.02
-2.26
-5.26
-8.00
-10.61
-13.30
-16.33
-19.91
-24.24
-29.39
-35.15
-41.04
-46.20
-49.67
-50.53
-48.31
-43.13
-35.75
-27.34
-19.17
-12.26
-7.08
-3.65
-1.55
-0.18
0.99
2.31
3.90
5.55
6.95
7.82
8.02
7.68
7.08
6.48
6.02
5.72
5.50
5.29
5.23
5.47
6.07
6.84
7.40
7.36
6.51
4.97
3.08
1.31
-0.09
-1.09
-1.91
-2.81
-3.94
-5.35
-6.94
-8.60
-10.21
-11.72
-13.12
-14.42
-15.77
-17.33
-19.33
-21.83
-24.81
-28.03
-31.28
-34.37
-37.21
-39.85
-42.40
-45.04
-47.96
-51.41
-55.51
-60.15
-64.87
-68.80
-70.90
-70.31
-66.67
-60.23
-51.90
-42.82
-34.02
-26.13
-19.24
-13.08
-7.28
-1.52
4.30
10.06
15.55
20.60
25.11
29.14
32.76
36.05
39.09
41.87
44.36
46.51
48.28
49.64
50.60
51.14
51.25
50.89
49.98
48.42
46.12
43.09
39.50
35.67
32.01
28.88
26.42
24.55
22.96
21.34
19.43
17.13
14.51
11.71
8.90
6.15
3.46
0.79
-1.96
-4.89
-8.00
-11.28
-14.55
-17.62
-20.29
-22.46
-24.17
-25.62
-27.15
-29.20
-32.17
-36.28
-41.37
-46.82
-51.64
-54.77
-55.41
-53.34
-48.99
-43.34
-37.52
-32.47
-28.66
-26.01
-24.14
-22.51
-20.67
-18.38
-15.63
-12.50
-9.16
-5.67
-1.99
1.88
5.90
9.92
13.69
17.00
19.75
22.03
24.10
26.27
28.72
31.46
34.33
37.02
39.23
40.76
41.64
42.04
42.29
42.69
43.44
44.60
46.10
47.83
49.62
51.35
52.92
54.22
55.16
55.70
55.89
55.85
55.72
55.52
55.15
54.39
53.01
50.87
48.00
44.50
40.53
36.21
31.58
26.61
21.25
15.50
9.33
2.81
-3.86
-10.25
-15.68
-19.38
-20.71
-19.43
-15.94
-11.24
-6.65
-3.39
-2.22
-3.15
-5.51
-8.29
-10.51
-11.59
-11.48
-10.50
-9.13
-7.69
-6.24
-4.64
-2.72
-0.48
1.86
3.87
5.16
5.54
5.04
3.97
2.64
1.27
-0.11
-1.59
-3.24
-5.04
-6.79
-8.25
-9.21
-9.69
-9.84
-9.96
-10.29
-10.86
-11.48
-11.88
-11.86
-11.44
-10.92
-10.76
-11.39
-13.00
-15.44
-18.25
-20.97
-23.25
-25.08
-26.72
-28.56
-30.94
-34.02
-37.64
-41.41
-44.75
-47.00
-47.53
-45.95
-42.14
-36.47
-29.60
-22.37
-15.56
-9.67
-4.82
-0.81
2.67
5.86
8.83
11.41
13.38
14.62
15.15
15.24
15.20
15.25
15.47
15.74
15.92
15.92
15.74
15.50
15.34
15.28
15.20
14.95
14.32
13.24
11.80
10.21
8.75
7.65
7.00
6.73
6.59
6.25
5.45
4.03
2.07
-0.25
-2.60
-4.77
-6.61
-8.17
-9.61
-11.14
-12.91
-14.90
-17.05
-19.20
-21.28
-23.26
-25.29
-27.58
-30.32
-33.58
-37.24
-40.88
-43.86
-45.41
-44.92
-42.08
-37.04
-30.39
-23.01
-15.79
-9.46
-4.42
-0.68
2.04
4.20
6.25
8.52
11.09
13.80
16.30
18.25
19.45
19.95
20.07
20.16
20.52
21.17
22.01
22.79
23.34
23.65
23.77
23.73
23.52
23.01
22.07
20.71
19.09
17.48
16.10
15.05
14.27
13.52
12.61
11.45
10.08
8.65
7.25
5.92
4.61
3.22
1.64
-0.10
-1.92
-3.70
-5.39
-7.03
-8.74
-10.68
-12.94
-15.46
-18.12
-20.73
-23.17
-25.39
-27.50
-29.62
-31.96
-34.71
-37.89
-41.33
-44.54
-46.82
-47.37
-45.62
-41.45
-35.33
-28.21
-21.11
-14.90
-10.00
-6.31
-3.39
-0.73
2.17
5.56
9.41
13.44
17.15
20.06
21.87
22.64
22.77
22.81
23.17
23.89
24.74
25.34
25.44
25.05
24.34
23.53
22.73
21.92
20.99
20.00
19.07
18.37
18.02
17.93
17.87
17.56
16.81
15.60
14.11
12.58
11.21
10.08
9.12
8.19
7.12
5.82
4.29
2.58
0.71
-1.34
-3.63
-6.21
-9.02
-11.86
-14.40
-16.37
-17.64
-18.35
-18.88
-19.73
-21.28
-23.72
-26.94
-30.56
-33.97
-36.45
-37.34
-36.13
-32.72
-27.46
-21.16
-14.80
-9.32
-5.22
-2.48
-0.65
0.95
2.87
5.36
8.27
11.26
13.85
15.73
16.76
17.10
17.00
16.78
16.66
16.77
17.15
17.77
18.62
19.62
20.71
21.75
22.55
22.93
22.83
22.31
21.50
20.63
19.86
19.24
18.71
18.10
17.21
15.94
14.26
12.28
10.20
8.17
6.25
4.38
2.39
0.11
-2.55
-5.49
-8.49
-11.28
-13.67
-15.63
-17.26
-18.80
-20.50
-22.61
-25.30
-28.61
-32.44
-36.45
-40.04
-42.45
-42.91
-40.97
-36.70
-30.69
-23.96
-17.57
-12.25
-8.26
-5.28
-2.83
-0.34
2.46
5.65
9.03
12.26
15.07
17.21
18.64
19.39
19.66
19.61
19.49
19.41
19.45
19.63
19.88
20.09
20.12
19.82
19.14
18.12
16.95
15.80
14.85
14.07
13.35
12.50
11.39
9.97
8.31
6.49
4.61
2.74
0.89
-0.94
-2.76
-4.61
-6.51
-8.47
-10.43
-12.34
-14.16
-16.02
-18.10
-20.68
-23.93
-27.76
-31.82
-35.48
-37.99
-38.76
-37.44
-34.12
-29.24
-23.54
-17.78
-12.61
-8.40
-5.17
-2.70
-0.61
1.47
3.75
6.24
8.77
11.08
12.96
14.36
15.39
16.26
17.14
18.06
19.00
19.84
20.52
21.07
21.53
21.95
22.28
22.39
22.05
21.20
19.84
18.16
16.50
15.21
14.54
14.49
14.80
15.00
14.63
13.45
11.55
9.32
7.20
5.47
4.11
2.87
1.37
-0.65
-3.27
-6.33
-9.53
-12.58
-15.22
-17.29
-18.80
-19.87
-20.78
-21.91
-23.51
-25.60
-27.90
-29.80
-30.52
-29.42
-26.20
-21.15
-15.04
-8.87
-3.56
0.34
2.80
4.17
5.00
5.77
6.80
8.21
9.95
11.89
13.85
15.64
17.09
18.09
18.64
18.85
18.94
19.11
19.51
20.19
21.08
21.98
22.64
22.86
22.44
21.41
19.89
18.16
16.50
15.16
14.20
13.47
12.74
11.75
10.38
8.68
6.83
5.08
3.58
2.33
1.14
-0.28
-2.17
-4.64
-7.54
-10.60
-13.52
-16.08
-18.30
-20.28
-22.27
-24.45
-26.97
-29.89
-33.00
-35.97
-38.22
-39.10
-38.10
-35.06
-30.27
-24.46
-18.53
-13.16
-8.74
-5.22
-2.33
0.27
2.77
5.21
7.44
9.31
10.75
11.72
12.39
12.87
13.30
13.72
14.13
14.42
14.48
14.24
13.73
13.04
12.37
11.81
11.41
11.06
10.57
9.73
8.45
6.81
5.00
3.23
1.60
0.10
-1.46
-3.24
-5.36
-7.83
-10.48
-13.09
-15.42
-17.31
-18.76
-19.86
-20.84
-21.97
-23.58
-25.91
-29.05
-32.77
-36.54
-39.60
-41.06
-40.33
-37.25
-32.22
-26.13
-20.03
-14.80
-10.97
-8.59
-7.27
-6.40
-5.40
-3.90
-1.84
0.47
2.57
4.09
4.81
4.93
4.93
5.50
7.25
10.54
15.34
21.26
27.65
33.83
39.35
44.11
48.33
52.36
56.45
60.57
64.43
67.48
69.10
68.77
66.05
60.82
53.27
43.94
33.68
23.39
13.77
5.17
-2.44
-9.33
-15.78
-21.83
-27.42
-32.44
-36.95
-41.18
-45.49
-50.16
-55.27
-60.58
-65.53
-69.44
-71.67
-71.80
-69.77
-65.87
-60.68
-54.93
-49.30
-44.29
-40.17
-36.97
-34.58
-32.79
-31.35
-30.05
-28.64
-26.93
-24.76
-22.03
-18.71
-14.88
-10.72
-6.46
-2.35
1.43
4.81
7.79
10.36
12.56
14.36
15.70
16.50
16.74
16.47
15.80
14.92
14.00
13.21
12.66
12.34
12.22
12.23
12.27
12.24
12.04
11.55
10.69
9.38
7.65
5.57
3.25
0.89
-1.36
-3.42
-5.33
-7.25
-9.40
-12.02
-15.18
-18.78
-22.35
-25.24
-26.73
-26.30
-23.87
-19.79
-14.76
-9.62
-5.09
-1.49
1.19
3.28
5.22
7.33
9.69
12.17
14.49
16.38
17.69
18.43
18.77
19.00
19.37
19.99
20.87
21.93
23.05
24.15
25.08
25.75
26.01
25.73
24.87
23.51
21.88
20.28
19.01
18.20
17.84
17.69
17.44
16.88
15.93
14.70
13.37
12.06
10.80
9.44
7.78
5.68
3.16
0.37
-2.46
-5.15
-7.67
-10.07
-12.51
-15.10
-17.86
-20.73
-23.56
-26.08
-28.00
-29.00
-28.77
-27.19
-24.38
-20.72
-16.76
-13.09
-10.04
-7.67
-5.72
-3.82
-1.65
0.93
3.84
6.82
9.55
11.75
13.25
14.02
14.19
13.99
13.70
13.58
13.74
14.19
14.82
15.49
16.02
16.28
16.15
15.55
14.53
13.18
11.75
10.49
9.50
8.76
8.14
7.40
6.48
5.44
4.49
3.81
3.45
3.26
2.96
2.33
1.22
-0.36
-2.31
-4.50
-6.77
-9.04
-11.25
-13.44
-15.64
-17.97
-20.45
-23.00
-25.32
-26.95
-27.39
-26.22
-23.28
-18.78
-13.26
-7.40
-1.91
2.71
6.33
9.12
11.45
13.68
15.96
18.24
20.32
22.03
23.29
24.15
24.75
25.17
25.42
25.43
25.09
24.37
23.30
21.95
20.44
18.82
17.06
15.09
12.84
10.29
7.54
4.75
2.09
-0.26
-2.28
-4.05
-5.76
-7.62
-9.71
-12.01
-14.36
-16.59
-18.52
-20.11
-21.45
-22.72
-24.18
-25.96
-28.07
-30.26
-32.06
-32.85
-32.16
-29.72
-25.74
-20.79
-15.60
-10.87
-6.92
-3.78
-1.13
1.37
3.95
6.59
9.12
11.31
13.03
14.33
15.38
16.37
17.43
18.55
19.53
20.07
19.96
19.11
17.67
16.00
14.55
13.73
13.82
14.85
16.58
18.75
20.98
23.04
24.75
25.99
26.68
26.67
25.91
24.39
22.28
19.84
17.37
15.08
12.95
10.82
8.39
5.44
1.82
-2.39
-6.96
-11.47
-15.40
-18.20
-19.41
-18.84
-16.64
-13.33
-9.63
-6.26
-3.70
-2.06
-1.19
-0.78
-0.56
-0.50
-0.64
-1.04
-1.61
-2.14
-2.32
-1.98
-1.14
-0.07
0.82
1.14
0.58
-0.91
-3.17
-5.89
-8.75
-11.56
-14.35
-17.30
-20.65
-24.56
-28.87
-33.20
-36.95
-39.59
-40.84
-40.72
-39.49
-37.54
-35.24
-32.86
-30.48
-28.07
-25.59
-23.03
-20.55
-18.36
-16.65
-15.57
-15.03
-14.73
-14.26
-13.07
-10.63
-6.49
-0.40
7.61
17.06
27.17
36.96
45.59
52.56
57.81
61.61
64.43
66.71
68.66
70.24
71.08
70.64
68.38
63.99
57.55
49.60
40.95
32.39
24.48
17.34
10.79
4.54
-1.64
-7.78
-13.75
-19.41
-24.62
-29.33
-33.42
-36.83
-39.40
-41.06
-41.83
-41.90
-41.57
-41.18
-40.96
-40.96
-41.09
-41.08
-40.71
-39.85
-38.54
-37.01
-35.53
-34.39
-33.80
-33.91
-34.69
-36.00
-37.53
-38.77
-39.18
-38.27
-35.72
-31.66
-26.55
-21.11
-16.03
-11.82
-8.63
-6.28
-4.40
-2.57
-0.54
1.65
3.77
5.49
6.58
7.09
7.29
7.68
8.72
10.69
13.59
17.12
20.82
24.25
27.11
29.25
30.75
31.76
32.43
32.81
32.89
32.55
31.74
30.45
28.72
26.62
24.22
21.60
18.85
16.11
13.52
11.25
9.43
8.08
7.10
6.30
5.46
4.40
3.00
1.14
-1.31
-4.43
-8.23
-12.53
-16.90
-20.66
-23.14
-23.79
-22.45
-19.34
-14.96
-9.87
-4.57
0.64
5.57
10.14
14.31
18.09
21.48
24.48
27.07
29.20
30.85
32.12
33.20
34.40
36.00
38.08
40.56
43.12
45.50
47.48
49.15
50.72
52.49
54.67
57.11
59.34
60.54
59.81
56.47
50.38
41.99
32.29
22.53
13.76
6.65
1.22
-2.91
-6.36
-9.63
-13.00
-16.47
-19.88
-23.11
-26.10
-28.95
-31.89
-35.11
-38.64
-42.34
-45.84
-48.65
-50.34
-50.54
-49.11
-46.17
-42.10
-37.46
-32.88
-28.99
-26.28
-25.00
-25.06
-26.08
-27.41
-28.41
-28.61
-27.95
-26.75
-25.60
-25.04
-25.34
-26.36
-27.59
-28.40
-28.30
-27.10
-24.96
-22.27
-19.49
-16.99
-15.04
-13.71
-13.01
-12.86
-13.11
-13.49
-13.70
-13.36
-12.23
-10.37
-8.05
-5.81
-4.08
-3.16
-3.07
-3.63
-4.65
-6.00
-7.65
-9.59
-11.81
-14.24
-16.83
-19.57
-22.42
-25.24
-27.67
-29.14
-28.97
-26.68
-22.17
-15.86
-8.57
-1.26
5.17
10.14
13.43
15.13
15.50
14.76
13.15
10.83
7.99
4.79
1.42
-1.90
-4.97
-7.63
-9.79
-11.43
-12.57
-13.22
-13.36
-12.97
-12.04
-10.66
-8.98
-7.23
-5.59
-4.11
-2.71
-1.22
0.38
1.97
3.26
3.93
3.79
2.85
1.41
-0.15
-1.47
-2.35
-2.75
-2.75
-2.49
-2.08
-1.69
-1.55
-1.96
-3.22
-5.47
-8.56
-11.97
-14.98
-16.82
-17.05
-15.62
-12.93
-9.59
-6.25
-3.32
-0.98
0.82
2.22
3.36
4.20
4.68
4.71
4.31
3.63
2.91
2.44
2.47
3.09
4.26
5.75
7.33
8.81
10.12
11.29
12.42
13.60
14.81
15.96
16.84
17.34
17.47
17.42
17.42
17.69
18.24
18.89
19.32
19.24
18.55
17.43
16.26
15.44
15.24
15.56
16.07
16.23
15.58
13.91
11.39
8.43
5.59
3.41
2.26
2.35
3.75
6.28
9.64
13.24
16.46
18.80
20.14
20.83
21.56
23.09
25.85
29.84
34.58
39.46
43.93
47.73
50.82
53.31
55.27
56.74
57.86
58.88
60.27
62.55
66.05
70.81
76.39
82.08
86.97
90.35
91.79
91.34
89.34
86.19
82.29
77.76
72.54
66.48
59.47
51.50
42.77
33.58
24.27
15.12
6.18
-2.64
-11.52
-20.61
-29.87
-38.98
-47.37
-54.41
-59.58
-62.71
-64.02
-64.17
-63.96
-64.26
-65.68
-68.45
-72.40
-76.89
-81.09
-84.03
-84.94
-83.34
-79.27
-73.18
-65.86
-58.24
-51.08
-44.93
-39.95
-36.04
-32.91
-30.22
-27.70
-25.16
-22.56
-19.89
-17.22
-14.67
-12.39
-10.51
-9.05
-7.93
-6.91
-5.66
-3.86
-1.36
1.82
5.44
9.22
12.95
16.59
20.25
24.13
28.45
33.30
38.66
44.36
50.14
55.66
60.53
64.52
67.46
69.38
70.42
70.77
70.59
69.98
69.00
67.63
65.86
63.56
60.51
56.37
50.76
43.34
34.03
23.11
11.17
-0.93
-12.36
-22.52
-31.17
-38.38
-44.38
-49.40
-53.52
-56.75
-59.17
-61.03
-62.68
-64.40
-66.23
-67.93
-69.05
-69.18
-68.15
-66.14
-63.63
-61.24
-59.50
-58.74
-59.09
-60.39
-62.24
-64.10
-65.39
-65.63
-64.60
-62.36
-59.22
-55.49
-51.36
-46.76
-41.47
-35.30
-28.28
-20.74
-13.22
-6.26
-0.30
4.46
7.96
10.27
11.55
12.03
11.99
11.70
11.35
10.98
10.46
9.66
8.52
7.13
5.72
4.48
3.47
2.53
1.41
-0.17
-2.29
-4.85
-7.69
-10.67
-13.83
-17.30
-21.19
-25.41
-29.62
-33.25
-35.78
-36.92
-36.80
-35.93
-34.99
-34.69
-35.50
-37.60
-40.77
-44.40
-47.60
-49.37
-48.92
-45.89
-40.54
-33.69
-26.40
-19.63
-13.89
-9.18
-5.19
-1.53
1.95
5.17
7.89
9.87
11.09
11.64
11.81
11.83
11.83
11.80
11.66
11.33
10.89
10.54
10.51
11.04
12.16
13.74
15.53
17.32
18.99
20.50
21.89
23.13
24.14
24.79
25.03
24.84
24.29
23.44
22.22
20.59
18.51
16.08
13.50
10.92
8.41
5.88
3.15
0.07
-3.38
-7.14
-11.01
-14.81
-18.29
-21.09
-22.77
-22.90
-21.21
-17.77
-13.01
-7.63
-2.38
2.21
5.90
8.77
11.04
13.00
14.86
16.64
18.28
19.64
20.63
21.33
21.88
22.49
23.29
24.25
25.24
26.06
26.61
26.87
26.93
26.82
26.53
25.95
24.99
23.65
22.09
20.53
19.22
18.27
17.66
17.29
17.02
16.67
16.07
15.05
13.53
11.50
9.10
6.57
4.19
2.12
0.33
-1.37
-3.28
-5.65
-8.58
-11.93
-15.31
-18.15
-19.93
-20.24
-18.92
-16.10
-12.16
-7.55
-2.73
1.94
6.22
9.84
12.62
14.48
15.53
16.04
16.43
17.01
17.90
18.96
19.89
20.45
20.55
20.29
19.84
19.36
18.90
18.44
17.95
17.38
16.80
16.21
15.60
14.93
14.17
13.34
12.52
11.84
11.43
11.29
11.26
11.04
10.39
9.16
7.48
5.63
3.94
2.59
1.58
0.70
-0.29
-1.50
-2.91
-4.35
-5.64
-6.71
-7.62
-8.54
-9.69
-11.30
-13.57
-16.57
-20.16
-23.88
-27.11
-29.13
-29.42
-27.81
-24.53
-20.16
-15.43
-10.95
-7.09
-3.97
-1.47
0.62
2.52
4.38
6.28
8.21
10.10
11.86
13.40
14.67
15.70
16.55
17.35
18.17
19.01
19.85
20.62
21.25
21.66
21.87
21.84
21.60
21.16
20.61
20.00
19.44
18.96
18.60
18.32
18.06
17.73
17.24
16.52
15.51
14.22
12.70
11.06
9.44
7.93
6.54
5.24
3.90
2.37
0.61
-1.38
-3.46
-5.50
-7.37
-9.07
-10.67
-12.31
-14.12
-16.15
-18.36
-20.63
-22.71
-24.29
-25.02
-24.63
-22.97
-20.18
-16.58
-12.68
-8.93
-5.63
-2.82
-0.36
1.95
4.30
6.74
9.22
11.60
13.76
15.57
16.97
17.94
18.50
18.72
18.70
18.62
18.58
18.71
19.03
19.50
20.00
20.37
20.48
20.25
19.71
18.90
17.93
16.87
15.71
14.43
12.97
11.32
9.49
7.62
5.81
4.19
2.81
1.67
0.71
-0.18
-1.14
-2.32
-3.82
-5.70
-7.91
-10.28
-12.63
-14.79
-16.71
-18.47
-20.24
-22.21
-24.46
-26.88
-29.17
-30.87
-31.52
-30.76
-28.51
-24.96
-20.54
-15.83
-11.43
-7.75
-4.99
-3.05
-1.66
-0.47
0.83
2.38
4.13
5.93
7.58
8.91
9.89
10.58
11.09
11.55
12.08
12.72
13.42
14.07
14.49
14.48
13.96
12.95
11.54
9.92
8.27
6.70
5.30
4.14
3.26
2.65
2.26
1.96
1.53
0.88
-0.05
-1.16
-2.25
-3.15
-3.84
-4.45
-5.15
-6.12
-7.36
-8.78
-10.21
-11.53
-12.67
-13.68
-14.68
-15.83
-17.29
-19.18
-21.51
-24.21
-26.97
-29.37
-30.91
-31.14
-29.80
-26.97
-22.99
-18.47
-14.05
-10.25
-7.36
-5.32
-3.85
-2.58
-1.23
0.33
2.06
3.85
5.64
7.32
8.85
10.19
11.33
12.25
12.99
13.62
14.27
15.05
16.00
17.07
18.14
19.06
19.69
20.00
19.98
19.72
19.33
18.83
18.26
17.59
16.83
15.97
15.07
14.13
13.14
12.12
11.06
10.02
9.00
7.97
6.79
5.33
3.48
1.16
-1.50
-4.31
-7.00
-9.33
-11.15
-12.45
-13.33
-13.96
-14.64
-15.62
-17.15
-19.33
-22.12
-25.24
-28.20
-30.41
-31.25
-30.38
-27.81
-24.02
-19.74
-15.67
-12.31
-9.83
-8.10
-6.86
-5.79
-4.63
-3.25
-1.57
0.33
2.28
4.05
5.40
6.27
6.80
7.20
7.71
8.44
9.35
10.32
11.26
12.09
12.80
13.38
13.79
13.90
13.64
12.97
12.03
11.05
10.29
9.92
9.98
10.31
10.70
10.93
10.89
10.58
10.01
9.21
8.13
6.74
5.00
3.01
0.86
-1.37
-3.64
-5.96
-8.29
-10.51
-12.47
-14.06
-15.27
-16.24
-17.23
-18.50
-20.20
-22.33
-24.68
-26.92
-28.59
-29.18
-28.33
-25.92
-22.08
-17.21
-11.90
-6.67
-1.89
2.34
6.15
9.78
13.52
17.55
21.91
26.46
30.97
35.23
39.12
42.69
46.03
49.23
52.25
54.90
56.90
58.02
58.20
57.45
55.87
53.49
50.20
45.96
40.83
35.05
29.05
23.24
17.90
13.15
9.01
5.42
2.41
-0.01
-1.88
-3.37
-4.66
-5.97
-7.33
-8.70
-9.96
-11.04
-12.02
-13.01
-14.13
-15.35
-16.61
-17.79
-18.91
-20.19
-21.92
-24.30
-27.28
-30.44
-33.12
-34.70
-34.79
-33.44
-31.10
-28.42
-26.05
-24.40
-23.57
-23.38
-23.49
-23.54
-23.27
-22.54
-21.31
-19.66
-17.68
-15.48
-13.21
-10.97
-8.93
-7.23
-5.98
-5.18
-4.77
-4.54
-4.31
-3.92
-3.34
-2.62
-1.88
-1.21
-0.69
-0.32
-0.05
0.11
0.20
0.22
0.18
0.10
-0.03
-0.22
-0.55
-1.04
-1.72
-2.58
-3.61
-4.81
-6.26
-7.97
-9.97
-12.17
-14.44
-16.73
-19.05
-21.35
-23.55
-25.39
-26.49
-26.43
-24.96
-22.08
-18.12
-13.65
-9.21
-5.26
-1.99
0.61
2.77
4.69
6.54
8.33
9.92
11.12
11.79
11.94
11.70
11.32
10.97
10.83
10.89
11.13
11.49
11.92
12.38
12.81
13.09
13.02
12.54
11.60
10.36
9.03
7.86
7.00
6.46
6.09
5.61
4.80
3.56
1.99
0.33
-1.19
-2.42
-3.35
-4.13
-4.97
-6.00
-7.27
-8.75
-10.32
-11.91
-13.47
-15.01
-16.60
-18.36
-20.37
-22.70
-25.25
-27.77
-29.89
-31.11
-31.06
-29.51
-26.48
-22.29
-17.48
-12.71
-8.51
-5.19
-2.69
-0.74
1.09
3.13
5.45
7.88
10.11
11.89
13.08
13.82
14.30
14.70
15.11
15.53
15.97
16.44
17.02
17.73
18.51
19.17
19.47
19.24
18.47
17.40
16.35
15.66
15.53
15.96
16.80
17.79
18.69
19.33
19.65
19.63
19.36
18.99
18.71
18.73
19.21
20.17
21.48
23.00
24.71
26.79
29.66
33.73
39.06
45.19
51.07
55.35
56.89
55.11
50.34
43.64
36.50
30.30
25.97
23.69
22.99
23.01
22.73
21.34
18.28
13.36
6.83
-0.68
-8.25
-14.76
-19.26
-21.21
-20.70
-18.42
-15.41
-12.68
-10.93
-10.41
-11.00
-12.41
-14.39
-16.76
-19.47
-22.51
-25.86
-29.52
-33.50
-37.81
-42.39
-47.13
-51.78
-55.98
-59.44
-61.89
-63.30
-63.72
-63.28
-62.09
-60.22
-57.72
-54.63
-51.08
-47.19
-43.09
-38.85
-34.45
-29.77
-24.62
-18.79
-12.18
-4.80
3.03
10.74
17.62
23.00
26.56
28.56
29.75
31.18
33.80
38.06
43.82
50.46
57.07
62.82
67.05
69.29
69.35
67.24
63.25
57.99
52.29
46.97
42.62
39.46
37.41
36.20
35.58
35.33
35.33
35.40
35.26
34.62
33.20
30.93
27.91
24.40
20.60
16.65
12.57
8.27
3.74
-0.95
-5.63
-10.11
-14.26
-18.06
-21.56
-24.82
-27.85
-30.63
-33.12
-35.31
-37.23
-38.91
-40.30
-41.30
-41.73
-41.42
-40.22
-38.21
-35.63
-32.91
-30.43
-28.36
-26.60
-24.78
-22.48
-19.47
-15.87
-12.12
-8.69
-5.92
-3.87
-2.35
-1.08
0.14
1.43
2.80
4.23
5.74
7.36
9.11
10.89
12.61
14.07
15.10
15.56
15.43
14.85
14.10
13.50
13.26
13.45
13.85
14.19
14.15
13.58
12.51
11.08
9.51
7.96
6.56
5.25
3.90
2.30
0.28
-2.18
-4.97
-7.77
-10.30
-12.30
-13.78
-14.92
-15.99
-17.33
-19.10
-21.35
-23.99
-26.85
-29.77
-32.72
-35.73
-38.94
-42.51
-46.52
-50.86
-55.18
-58.91
-61.39
-62.03
-60.58
-57.22
-52.50
-47.16
-41.86
-36.96
-32.50
-28.34
-24.25
-20.15
-16.03
-12.01
-8.17
-4.66
-1.56
1.08
3.29
5.20
6.95
8.68
10.41
12.07
13.52
14.66
15.55
16.27
16.93
17.46
17.64
17.26
16.17
14.43
12.31
10.18
8.36
7.04
6.13
5.39
4.46
3.07
1.12
-1.31
-3.97
-6.59
-8.97
-11.04
-12.91
-14.75
-16.70
-18.84
-21.14
-23.51
-25.83
-27.97
-29.90
-31.65
-33.33
-35.18
-37.37
-39.93
-42.75
-45.46
-47.55
-48.51
-47.97
-45.82
-42.21
-37.47
-31.98
-26.10
-20.12
-14.25
-8.68
-3.56
0.96
4.78
7.84
10.15
11.72
12.58
12.82
12.60
12.19
11.95
12.18
13.06
14.56
16.48
18.50
20.32
21.77
22.75
23.27
23.31
22.84
21.79
20.20
18.19
15.98
13.82
11.88
10.26
8.97
7.96
7.16
6.56
6.07
5.59
4.93
3.91
2.41
0.38
-2.06
-4.73
-7.37
-9.87
-12.20
-14.48
-16.91
-19.60
-22.51
-25.33
-27.54
-28.52
-27.86
-25.41
-21.46
-16.68
-11.81
-7.49
-4.05
-1.46
0.57
2.44
4.50
6.92
9.67
12.63
15.59
18.37
20.82
22.89
24.57
25.91
27.02
27.99
28.94
29.92
31.02
32.16
33.24
34.05
34.43
34.33
33.82
33.15
32.59
32.32
32.43
32.85
33.47
34.16
34.85
35.53
36.28
37.19
38.35
39.77
41.36
42.90
44.21
45.14
45.69
46.02
46.39
46.99
47.80
48.64
49.22
49.32
48.86
47.86
46.42
44.69
42.80
40.93
39.34
38.27
37.86
38.00
38.31
38.32
37.65
36.15
33.97
31.35
28.38
24.96
20.79
15.50
8.91
1.10
-7.70
-17.20
-27.17
-37.57
-48.29
-59.06
-69.38
-78.51
-85.80
-90.85
-93.59
-94.35
-93.55
-91.51
-88.24
-83.67
-77.71
-70.59
-62.81
-55.04
-47.88
-41.77
-36.84
-33.08
-30.40
-28.64
-27.48
-26.55
-25.32
-23.37
-20.57
-17.10
-13.43
-10.10
-7.42
-5.40
-3.70
-1.78
0.84
4.45
9.03
14.06
18.76
22.21
23.54
22.29
18.54
12.91
6.37
0.01
-5.37
-9.40
-12.17
-14.13
-15.82
-17.61
-19.60
-21.65
-23.45
-24.68
-25.22
-25.05
-24.35
-23.35
-22.21
-21.10
-20.09
-19.11
-18.06
-16.83
-15.39
-13.89
-12.51
-11.38
-10.49
-9.70
-8.85
-7.89
-6.97
-6.34
-6.25
-6.66
-7.23
-7.42
-6.80
-5.20
-2.84
-0.22
2.16
4.03
5.47
6.80
8.46
10.75
13.77
17.34
21.12
24.74
27.89
30.42
32.29
33.51
34.09
34.00
33.11
31.26
28.34
24.33
19.35
13.66
7.67
1.83
-3.29
-7.25
-9.78
-10.79
-10.46
-9.04
-6.74
-3.46
1.14
7.49
15.82
25.90
37.01
48.03
57.88
65.68
71.03
73.88
74.51
73.25
70.38
66.03
60.12
52.51
43.00
31.67
18.90
5.53
-7.30
-18.38
-26.72
-31.79
-33.43
-31.84
-27.40
-20.64
-12.18
-2.71
6.97
16.20
24.41
31.43
37.30
42.17
45.99
48.28
48.26
44.96
37.85
27.14
14.16
1.06
-9.72
-16.36
-18.23
-16.08
-11.73
-7.19
-4.06
-3.12
-4.42
-7.55
-11.89
-16.60
-20.59
-22.69
-21.94
-18.22
-12.49
-6.46
-1.90
0.38
0.88
1.23
3.23
8.04
15.38
23.81
31.25
35.77
36.16
32.16
24.35
13.95
2.69
-7.39
-14.12
-15.49
-10.22
1.92
19.87
41.53
64.36
86.02
104.78
119.54
129.65
134.53
133.60
126.45
113.08
94.08
70.71
44.49
16.94
-10.59
-37.01
-61.36
-82.88
-101.02
-115.58
-126.65
-134.68
-140.28
-143.97
-146.05
-146.44
-144.81
-140.82
-134.41
-125.94
-116.24
-106.39
-97.43
-90.07
-84.54
-80.65
-77.85
-75.47
-72.80
-69.30
-64.69
-58.97
-52.43
-45.50
-38.63
-32.18
-26.39
-21.34
-17.02
-13.37
-10.32
-7.79
-5.67
-3.84
-2.15
-0.47
1.27
3.13
5.02
6.86
8.56
10.05
11.29
12.23
12.79
12.85
12.36
11.27
9.70
7.88
6.06
4.49
3.29
2.45
1.84
1.34
0.83
0.28
-0.24
-0.72
-1.14
-1.54
-2.00
-2.67
-3.59
-4.82
-6.27
-7.82
-9.30
-10.56
-11.54
-12.36
-13.31
-14.73
-16.86
-19.67
-22.84
-25.79
-27.89
-28.62
-27.78
-25.47
-22.08
-18.20
-14.44
-11.33
-9.23
-8.22
-8.06
-8.34
-8.56
-8.35
-7.57
-6.32
-4.82
-3.33
-1.90
-0.44
1.16
3.00
4.94
6.70
7.94
8.55
8.62
8.50
8.60
9.15
10.16
11.39
12.52
13.34
13.87
14.28
14.80
15.58
16.60
17.69
18.66
19.42
19.93
20.32
20.68
21.10
21.59
22.13
22.71
23.31
23.93
24.48
24.85
24.83
24.27
23.24
22.00
20.97
20.59
21.14
22.60
24.75
27.18
29.49
31.39
32.67
33.26
33.15
32.41
31.17
29.65
28.07
26.60
25.36
24.34
23.48
22.74
22.06
21.35
20.58
19.70
18.75
17.84
17.05
16.41
15.86
15.27
14.48
13.42
12.06
10.56
9.10
7.85
6.91
6.28
5.85
5.50
5.10
4.59
3.98
3.36
2.80
2.31
1.73
0.84
-0.64
-2.77
-5.46
-8.33
-10.86
-12.52
-12.95
-12.08
-10.12
-7.49
-4.66
-2.02
0.21
1.98
3.39
4.60
5.75
6.91
8.04
9.09
9.96
10.64
11.16
11.60
12.04
12.48
12.90
13.23
13.40
13.41
13.30
13.14
12.94
12.64
12.14
11.34
10.21
8.78
7.20
5.64
4.28
3.20
2.41
1.80
1.22
0.57
-0.21
-1.06
-1.92
-2.75
-3.62
-4.63
-5.95
-7.65
-9.75
-12.16
-14.74
-17.31
-19.54
-21.07
-21.51
-20.62
-18.47
-15.47
-12.22
-9.37
-7.30
-5.97
-5.07
-4.13
-2.84
-1.20
0.52
1.94
2.80
3.07
2.98
2.82
2.81
3.02
3.28
3.48
3.54
3.59
3.78
4.28
5.07
6.00
6.85
7.37
7.46
7.13
6.50
5.73
4.94
4.15
3.35
2.52
1.60
0.66
-0.33
-1.39
-2.54
-3.76
-5.01
-6.21
-7.25
-8.19
-9.18
-10.50
-12.45
-15.11
-18.30
-21.55
-24.32
-26.04
-26.37
-25.24
-22.88
-19.70
-16.21
-12.88
-9.99
-7.69
-5.89
-4.48
-3.29
-2.20
-1.12
-0.00
1.15
2.34
3.47
4.52
5.43
6.26
7.14
8.19
9.51
11.05
12.67
14.15
15.26
15.87
15.95
15.63
15.02
14.28
13.52
12.86
12.38
12.13
12.08
12.13
12.15
12.02
11.64
11.02
10.21
9.25
8.17
6.91
5.47
3.85
2.10
0.31
-1.43
-3.09
-4.72
-6.37
-8.20
-10.37
-12.98
-16.00
-19.16
-22.00
-23.95
-24.51
-23.44
-20.87
-17.31
-13.41
-9.78
-6.76
-4.37
-2.39
-0.56
1.32
3.36
5.57
7.91
10.33
12.74
14.96
16.80
18.13
18.92
19.28
19.41
19.47
19.54
19.56
19.39
18.86
17.90
16.51
14.75
12.80
10.85
9.10
7.67
6.61
5.80
5.13
4.45
3.79
3.24
2.93
2.96
3.25
3.62
3.81
3.64
3.00
1.92
0.47
-1.26
-3.14
-5.03
-6.75
-8.25
-9.60
-11.04
-12.84
-15.17
-17.97
-20.90
-23.41
-24.94
-25.10
-23.73
-20.94
-17.08
-12.59
-8.03
-3.85
-0.40
2.23
4.12
5.50
6.62
7.64
8.63
9.61
10.56
11.41
12.09
12.51
12.56
12.26
11.72
11.11
10.63
10.35
10.23
10.12
9.89
9.44
8.82
8.18
7.64
7.31
7.18
7.20
7.27
7.28
7.10
6.68
6.00
5.13
4.18
3.21
2.26
1.28
0.15
-1.22
-2.87
-4.68
-6.48
-8.08
-9.40
-10.50
-11.60
-12.92
-14.62
-16.79
-19.41
-22.38
-25.43
-28.14
-29.98
-30.43
-29.17
-26.26
-22.12
-17.47
-13.08
-9.47
-6.87
-5.21
-4.18
-3.37
-2.47
-1.18
0.55
2.64
4.88
7.00
8.76
10.09
11.04
11.79
12.55
13.50
14.65
15.93
17.14
18.00
18.37
18.21
17.60
16.75
15.93
15.26
14.81
14.53
14.34
14.19
14.02
13.80
13.47
12.94
12.11
11.00
9.66
8.25
6.87
5.55
4.19
2.64
0.78
-1.48
-4.02
-6.67
-9.18
-11.30
-12.91
-14.04
-14.87
-15.75
-17.07
-19.10
-21.87
-25.13
-28.31
-30.76
-31.86
-31.26
-28.99
-25.43
-21.17
-16.91
-13.19
-10.33
-8.35
-7.06
-6.09
-5.11
-3.84
-2.20
-0.19
2.02
4.28
6.44
8.42
10.15
11.64
12.81
13.69
14.31
14.73
15.04
15.31
15.58
15.84
16.10
16.33
16.52
16.65
16.66
16.50
16.19
15.78
15.40
15.11
14.89
14.68
14.29
13.64
12.71
11.61
10.48
9.42
8.41
7.38
6.24
4.93
3.44
1.87
0.25
-1.37
-2.94
-4.49
-6.03
-7.60
-9.29
-11.22
-13.47
-16.15
-19.22
-22.48
-25.62
-28.18
-29.65
-29.62
-27.93
-24.69
-20.40
-15.70
-11.20
-7.34
-4.20
-1.66
0.52
2.54
4.46
6.22
7.72
8.92
9.78
10.37
10.79
11.07
11.31
11.63
12.16
12.97
14.07
15.33
16.63
17.78
18.68
19.29
19.58
19.52
19.03
18.05
16.63
14.92
13.16
11.54
10.15
8.93
7.72
6.35
4.78
3.08
1.42
-0.03
-1.19
-2.15
-3.10
-4.24
-5.68
-7.42
-9.31
-11.19
-12.93
-14.47
-15.84
-17.18
-18.65
-20.43
-22.61
-25.11
-27.62
-29.65
-30.67
-30.24
-28.22
-24.80
-20.48
-15.87
-11.58
-8.02
-5.33
-3.40
-1.96
-0.67
0.74
2.39
4.27
6.27
8.21
10.01
11.62
13.08
14.44
15.74
16.97
18.07
18.98
19.60
19.92
19.96
19.79
19.48
19.05
18.46
17.62
16.46
15.00
13.40
11.83
10.46
9.34
8.37
7.36
6.14
4.68
3.08
1.54
0.28
-0.63
-1.22
-1.67
-2.23
-3.15
-4.60
-6.59
-8.96
-11.41
-13.65
-15.46
-16.83
-17.94
-19.13
-20.76
-23.05
-25.98
-29.21
-32.20
-34.32
-34.99
-33.89
-31.03
-26.84
-22.03
-17.34
-13.41
-10.48
-8.42
-6.79
-5.12
-3.04
-0.53
2.26
5.02
7.49
9.53
11.16
12.53
13.73
14.88
16.01
17.10
18.14
19.07
19.85
20.42
20.73
20.69
20.21
19.27
17.93
16.33
14.69
13.24
12.17
11.53
11.24
11.08
10.81
10.23
9.32
8.17
6.93
5.73
4.65
3.63
2.54
1.27
-0.32
-2.21
-4.35
-6.61
-8.87
-11.00
-12.87
-14.51
-15.97
-17.44
-19.05
-20.95
-23.19
-25.71
-28.27
-30.53
-32.04
-32.38
-31.31
-28.85
-25.29
-21.12
-16.88
-12.98
-9.67
-6.97
-4.71
-2.69
-0.69
1.44
3.72
6.17
8.67
11.08
13.27
15.16
16.74
18.10
19.34
20.55
21.78
23.05
24.31
25.58
26.86
28.11
29.21
30.04
30.47
30.48
30.17
29.73
29.37
29.18
29.14
29.15
29.02
28.55
27.65
26.34
24.73
23.02
21.33
19.75
18.23
16.67
14.97
13.07
11.00
8.87
6.76
4.70
2.62
0.38
-2.28
-5.70
-10.26
-16.35
-24.17
-33.54
-43.85
-53.99
-62.69
-68.78
-71.58
-71.11
-67.96
-62.98
-56.91
-50.18
-42.83
-34.75
-25.85
-16.24
-6.22
3.79
13.47
22.46
30.44
37.13
42.22
45.56
47.19
47.41
46.66
45.46
44.23
43.20
42.47
41.99
41.68
41.46
41.22
40.96
40.70
40.50
40.41
40.44
40.51
40.41
39.77
38.27
35.69
32.07
27.71
23.04
18.55
14.51
10.95
7.64
4.25
0.49
-3.73
-8.35
-13.19
-18.03
-22.70
-27.06
-31.04
-34.60
-37.83
-40.90
-44.04
-47.43
-51.03
-54.52
-57.30
-58.67
-58.13
-55.62
-51.51
-46.52
-41.41
-36.75
-32.79
-29.50
-26.61
-23.83
-20.97
-17.96
-14.83
-11.68
-8.62
-5.77
-3.22
-0.99
0.88
2.48
3.87
5.13
6.29
7.36
8.22
8.77
8.95
8.78
8.36
7.82
7.28
6.77
6.28
5.76
5.21
4.66
4.16
3.69
3.17
2.47
1.44
0.06
-1.56
-3.25
-4.78
-6.04
-7.02
-7.82
-8.55
-9.30
-10.10
-10.99
-12.09
-13.55
-15.45
-17.63
-19.58
-20.64
-20.15
-17.82
-13.79
-8.72
-3.34
1.66
5.93
9.50
12.54
15.31
18.00
20.68
23.35
25.96
28.44
30.67
32.63
34.30
35.78
37.16
38.53
39.83
40.98
41.77
42.04
41.70
40.71
39.11
36.94
34.23
31.04
27.45
23.60
19.66
15.84
12.16
8.60
5.06
1.47
-2.09
-5.47
-8.52
-11.20
-13.64
-16.13
-18.93
-22.18
-25.81
-29.55
-33.07
-36.13
-38.68
-40.84
-42.89
-45.05
-47.42
-49.85
-51.92
-53.11
-52.88
-50.92
-47.24
-42.17
-36.25
-30.08
-24.22
-19.00
-14.52
-10.71
-7.37
-4.22
-1.11
2.08
5.30
8.45
11.45
14.22
16.75
19.09
21.28
23.33
25.30
27.20
29.03
30.77
32.47
34.10
35.70
37.24
38.64
39.72
40.27
40.08
39.03
37.20
34.73
31.78
28.48
24.93
21.19
17.42
13.79
10.45
7.47
4.77
2.16
-0.55
-3.52
-6.75
-10.16
-13.55
-16.70
-19.38
-21.45
-22.92
-23.89
-24.59
-25.25
-26.02
-26.83
-27.39
-27.25
-25.96
-23.27
-19.30
-14.55
-9.76
-5.67
-2.78
-1.21
-0.76
-1.06
-1.73
-2.45
-3.06
-3.52
-3.94
-4.56
-5.62
-7.27
-9.45
-11.90
-14.30
-16.44
-18.34
-20.18
-22.10
-24.10
-25.98
-27.41
-28.24
-28.52
-28.47
-28.34
-28.25
-28.03
-27.43
-26.18
-24.13
-21.28
-17.74
-13.66
-9.15
-4.47
0.08
4.16
7.46
9.84
11.40
12.28
12.63
12.44
11.55
9.76
7.05
3.54
-0.34
-3.97
-6.64
-7.76
-7.00
-4.50
-0.77
3.43
7.38
10.63
13.08
14.94
16.52
17.99
19.35
20.46
21.22
21.72
22.17
22.82
23.80
25.09
26.55
28.00
29.31
30.42
31.28
31.89
32.15
31.94
31.17
29.77
27.79
25.39
22.74
20.02
17.35
14.69
11.90
8.86
5.58
2.24
-0.85
-3.41
-5.38
-6.90
-8.35
-10.07
-12.26
-14.95
-18.07
-21.46
-25.06
-28.83
-32.71
-36.60
-40.25
-43.32
-45.37
-46.02
-45.02
-42.39
-38.43
-33.72
-28.93
-24.58
-20.97
-18.09
-15.67
-13.32
-10.71
-7.64
-4.02
0.02
4.23
8.27
11.77
14.51
16.40
17.52
18.05
18.24
18.25
18.14
17.96
17.70
17.36
16.94
16.44
15.78
14.86
13.51
11.59
9.12
6.21
3.13
0.15
-2.54
-4.85
-6.87
-8.71
-10.47
-12.15
-13.68
-14.96
-15.95
-16.71
-17.32
-17.87
-18.43
-19.10
-19.93
-20.97
-22.20
-23.56
-25.00
-26.48
-27.94
-29.27
-30.16
-30.11
-28.50
-24.94
-19.41
-12.42
-4.82
2.47
8.72
13.66
17.35
20.09
22.16
23.82
25.14
26.18
26.92
27.39
27.56
27.52
27.38
27.28
27.35
27.55
27.80
28.00
28.07
28.04
27.95
27.78
27.38
26.61
25.37
23.71
21.88
20.10
18.48
16.92
15.20
13.03
10.25
6.86
2.99
-1.15
-5.41
-9.58
-13.52
-17.02
-19.92
-22.06
-23.41
-24.06
-24.29
-24.50
-25.04
-26.17
-27.88
-29.92
-31.89
-33.31
-33.74
-32.87
-30.60
-27.08
-22.68
-17.99
-13.64
-10.16
-7.77
-6.41
-5.73
-5.29
-4.74
-3.93
-2.86
-1.60
-0.28
1.10
2.51
3.94
5.33
6.62
7.71
8.54
9.01
9.10
8.79
8.14
7.22
6.15
5.03
3.85
2.65
1.40
0.21
-0.84
-1.60
-2.03
-2.18
-2.25
-2.46
-2.97
-3.87
-5.09
-6.52
-8.00
-9.44
-10.82
-12.16
-13.54
-15.06
-16.80
-18.80
-21.00
-23.22
-25.11
-26.29
-26.36
-25.04
-22.36
-18.57
-14.20
-9.85
-6.11
-3.24
-1.26
0.19
1.61
3.33
5.50
7.88
10.12
11.94
13.28
14.29
15.22
16.19
17.14
17.94
18.41
18.57
18.62
18.77
19.14
19.70
20.28
20.63
20.64
20.26
19.51
18.52
17.45
16.52
15.99
16.06
16.76
17.95
19.29
20.35
20.85
20.75
20.24
19.62
19.18
19.07
19.32
19.82
20.43
21.01
21.55
22.08
22.79
23.97
25.94
28.97
33.07
38.00
43.32
48.49
53.12
57.03
60.29
63.13
65.76
68.27
70.60
72.59
74.03
74.77
74.65
73.49
71.08
67.20
61.62
54.28
45.19
34.56
22.83
10.62
-1.32
-12.21
-21.52
-29.16
-35.64
-41.93
-49.05
-57.70
-67.73
-78.13
-87.18
-92.99
-94.10
-89.91
-80.93
-68.52
-54.55
-40.86
-28.89
-19.45
-12.89
-9.07
-7.62
-7.96
-9.32
-10.82
-11.70
-11.49
-10.28
-8.72
-7.72
-8.16
-10.39
-14.06
-18.19
-21.55
-23.12
-22.50
-19.94
-16.16
-12.01
-8.10
-4.60
-1.28
2.20
6.14
10.52
15.03
19.25
22.80
25.51
27.41
28.64
29.36
29.61
29.37
28.63
27.51
26.19
24.91
23.85
23.09
22.73
22.99
24.08
26.18
29.17
32.57
35.64
37.58
37.80
36.01
32.25
26.65
19.35
10.48
0.19
-11.21
-23.20
-35.12
-46.38
-56.57
-65.63
-73.60
-80.56
-86.50
-91.19
-94.41
-96.05
-96.32
-95.72
-94.88
-94.41
-94.53
-95.19
-95.91
-96.07
-95.06
-92.46
-88.23
-82.73
-76.65
-70.76
-65.71
-61.75
-58.72
-56.17
-53.57
-50.50
-46.83
-42.65
-38.21
-33.80
-29.56
-25.58
-21.87
-18.40
-15.19
-12.24
-9.58
-7.21
-5.15
-3.32
-1.70
-0.34
0.68
1.20
1.11
0.40
-0.77
-2.18
-3.56
-4.78
-5.86
-6.92
-8.06
-9.30
-10.51
-11.46
-11.89
-11.66
-10.80
-9.54
-8.16
-6.89
-5.78
-4.65
-3.16
-0.98
2.04
5.79
9.90
13.92
17.43
20.27
22.42
24.08
25.57
27.26
29.52
32.67
36.95
42.32
48.45
54.67
60.16
64.24
66.65
67.55
67.42
66.73
65.71
64.37
62.39
59.60
56.06
52.06
47.95
43.96
40.10
36.27
32.41
28.28
23.79
19.09
14.40
9.99
6.00
2.46
-0.74
-3.63
-6.82
-10.72
-15.32
-20.21
-24.89
-29.08
-32.75
-36.23
-39.73
-44.17
-50.05
-57.20
-64.75
-71.84
-78.03
-83.28
-88.01
-92.47
-97.76
-104.42
-112.12
-119.60
-125.46
-128.82
-129.28
-127.12
-115.29
-90.31
-53.73
-12.01
27.65
60.76
85.21
103.71
118.44
130.99
141.30
149.62
155.25
158.78
161.31
163.62
166.10
168.26
169.50
168.43
164.10
156.50
146.81
136.52
126.79
118.27
110.76
103.97
97.14
89.71
81.45
72.63
63.46
54.02
44.44
34.89
25.89
17.85
11.05
5.57
1.30
-2.09
-4.95
-7.51
-9.71
-11.12
-11.08
-8.74
-3.34
5.40
16.69
28.50
37.86
41.73
38.11
26.78
9.36
-11.29
-32.20
-51.13
-66.94
-79.33
-88.19
-93.24
-94.03
-90.40
-82.86
-72.86
-62.36
-53.30
-46.94
-43.53
-42.46
-42.62
-42.93
-42.66
-41.55
-39.59
-36.89
-33.55
-29.80
-26.01
-22.68
-20.24
-18.86
-18.32
-18.00
-17.19
-15.33
-12.29
-8.42
-4.42
-1.21
0.41
-0.21
-3.38
-9.00
-16.56
-25.18
-33.86
-41.72
-48.32
-53.73
-58.34
-62.62
-66.62
-69.89
-71.45
-70.29
-65.68
-57.60
-46.72
-34.14
-21.03
-8.32
3.36
13.62
22.13
28.71
33.29
36.16
37.92
39.24
40.63
42.11
43.26
43.38
41.91
38.66
33.93
28.47
23.21
19.06
16.58
15.99
17.00
19.09
21.51
23.64
25.09
25.66
25.41
24.44
22.90
20.95
18.85
16.96
15.72
15.43
16.04
17.22
18.35
18.80
18.18
16.39
13.82
11.04
8.70
7.20
6.63
6.72
7.01
7.07
6.71
6.22
6.29
7.95
12.16
19.53
30.00
42.72
56.15
68.30
77.21
81.29
79.77
72.86
61.76
48.30
34.49
22.08
12.33
5.92
3.07
3.64
7.20
12.88
19.30
24.79
27.68
26.86
21.91
13.14
1.16
-13.44
-30.20
-48.73
-68.32
-87.70
-105.16
-118.99
-128.05
-132.16
-132.24
-129.91
-126.86
-124.35
-122.87
-122.29
-122.10
-121.92
-121.62
-121.18
-120.52
-119.36
-117.43
-114.83
-112.22
-110.68
-111.31
-114.54
-119.74
-125.14
-128.41
-127.50
-121.37
-110.09
-94.55
-76.21
-56.61
-37.10
-18.55
-1.42
14.11
27.89
39.90
50.34
59.35
67.06
73.50
78.94
83.81
88.53
93.44
99.00
105.81
114.41
125.06
137.52
151.49
166.37
182.13
196.10
204.23
203.18
191.52
170.58
141.55
106.44
67.95
28.60
-8.03
-39.12
-63.19
-80.29
-91.54
-98.52
-102.28
-103.30
-101.68
-97.56
-91.21
-83.08
-73.83
-64.38
-55.87
-49.06
-44.34
-41.64
-40.50
-40.19
-39.71
-38.21
-35.24
-30.98
-25.93
-20.63
-15.46
-10.39
-5.01
1.30
9.04
18.36
29.03
40.66
52.90
65.43
77.60
88.27
95.73
98.26
94.96
86.66
76.30
68.22
66.44
72.71
85.20
98.81
107.14
105.08
90.90
66.84
37.78
9.22
-14.78
-32.43
-43.95
-50.52
-53.26
-52.90
-50.06
-45.63
-41.09
-38.14
-38.11
-41.41
-47.31
-54.19
-60.25
-64.15
-65.60
-65.27
-64.31
-63.68
-63.56
-63.34
-61.86
-58.13
-51.79
-43.44
-34.34
-25.91
-19.22
-14.56
-11.55
-9.38
-7.32
-5.01
-2.53
-0.22
1.58
2.79
3.56
4.20
4.89
5.60
6.13
6.17
5.51
4.17
2.39
0.58
-0.79
-1.33
-0.93
0.34
2.14
4.09
5.78
6.85
7.11
6.48
5.06
3.13
1.10
-0.62
-1.78
-2.42
-2.88
-3.66
-5.14
-7.43
-10.16
-12.63
-14.02
-13.63
-11.18
-6.79
-1.02
5.31
11.28
16.10
19.20
20.42
20.07
18.82
17.50
16.83
17.19
18.51
20.44
22.54
24.48
26.16
27.54
28.57
29.12
29.00
28.13
26.69
25.02
23.49
22.32
21.40
20.43
19.11
17.27
15.05
12.80
10.83
9.30
8.07
6.72
4.83
2.17
-1.24
-5.05
-8.84
-12.27
-15.25
-17.93
-20.57
-23.50
-26.85
-30.62
-34.55
-38.24
-41.13
-42.66
-42.33
-39.86
-35.29
-29.00
-21.72
-14.34
-7.69
-2.33
1.67
4.64
7.17
9.82
12.84
16.13
19.31
21.99
24.02
25.49
26.68
27.86
29.15
30.47
31.68
32.59
33.12
33.32
33.27
33.09
32.84
32.51
32.00
31.19
30.04
28.58
26.91
25.18
23.55
22.09
20.79
19.53
18.17
16.56
14.60
12.25
9.64
6.95
4.42
2.23
0.44
-1.08
-2.63
-4.61
-7.43
-11.42
-16.70
-23.14
-30.26
-37.36
-43.62
-48.35
-51.10
-51.82
-50.75
-48.37
-45.14
-41.29
-36.77
-31.21
-24.10
-15.01
-3.85
8.97
22.58
35.96
48.17
58.64
67.25
74.22
79.79
84.10
87.09
88.58
88.48
86.86
83.95
80.01
75.26
69.72
63.43
56.49
49.22
42.15
35.75
30.33
25.84
21.99
18.29
14.38
10.10
5.54
0.97
-3.35
-7.17
-10.35
-12.90
-14.88
-16.42
-17.61
-18.52
-19.11
-19.40
-19.41
-19.29
-19.30
-19.72
-20.81
-22.66
-25.16
-27.96
-30.52
-32.22
-32.56
-31.28
-28.52
-24.74
-20.53
-16.47
-12.84
-9.70
-6.89
-4.18
-1.35
1.75
5.18
8.88
12.69
16.34
19.51
21.97
23.64
24.63
25.16
25.45
25.60
25.64
25.55
25.35
25.03
24.59
23.92
22.91
21.42
19.50
17.33
15.24
13.55
12.43
11.84
11.50
11.05
10.23
8.96
7.29
5.41
3.50
1.67
-0.02
-1.54
-2.89
-4.11
-5.31
-6.69
-8.48
-10.81
-13.61
-16.68
-19.70
-22.46
-24.90
-27.18
-29.58
-32.43
-35.87
-39.81
-43.78
-47.09
-48.98
-48.88
-46.71
-42.83
-38.05
-33.30
-29.35
-26.59
-25.02
-24.27
-23.83
-23.24
-22.20
-20.66
-18.80
-16.93
-15.30
-14.00
-12.91
-11.73
-10.18
-8.11
-5.56
-2.68
0.32
3.35
6.36
9.30
12.10
14.64
16.79
18.40
19.30
19.29
18.28
16.35
13.84
11.24
9.09
7.64
6.86
6.44
6.04
5.54
5.13
5.12
5.78
7.14
8.94
10.83
12.45
13.60
14.22
14.36
14.05
13.33
12.19
10.57
8.49
5.96
3.01
-0.36
-4.12
-8.20
-12.38
-16.29
-19.35
-20.95
-20.67
-18.50
-14.79
-10.26
-5.66
-1.59
1.66
4.13
6.04
7.69
9.32
11.09
13.04
15.13
17.27
19.30
21.04
22.31
23.00
23.11
22.75
22.09
21.34
20.64
20.05
19.50
18.84
17.92
16.65
14.96
12.88
10.50
7.97
5.47
3.21
1.37
0.06
-0.64
-0.82
-0.63
-0.26
0.05
0.16
0.10
0.03
0.22
1.01
2.57
4.97
8.04
11.49
14.97
18.22
21.04
23.29
24.80
25.32
24.63
22.55
19.06
14.47
9.40
4.63
1.01
-0.88
-0.93
0.54
2.92
5.48
7.73
9.43
10.59
11.35
11.86
12.15
12.18
11.89
11.28
10.39
9.34
8.25
7.25
6.47
5.92
5.59
5.39
5.19
4.90
4.40
3.68
2.73
1.55
0.15
-1.47
-3.20
-4.89
-6.30
-7.30
-7.82
-7.99
-8.08
-8.38
-9.09
-10.21
-11.60
-13.06
-14.41
-15.55
-16.51
-17.32
-18.08
-18.87
-19.76
-20.80
-21.94
-23.09
-24.07
-24.80
-25.22
-25.49
-25.85
-26.62
-28.02
-30.09
-32.66
-35.33
-37.58
-38.83
-38.69
-37.02
-34.05
-30.26
-26.28
-22.60
-19.51
-16.96
-14.69
-12.41
-9.85
-6.95
-3.75
-0.42
2.85
5.89
8.52
10.67
12.24
13.26
13.77
13.89
13.77
13.60
13.52
13.68
14.08
14.67
15.27
15.68
15.73
15.32
14.52
13.51
12.50
11.70
11.19
11.01
11.08
11.30
11.49
11.50
11.19
10.46
9.30
7.83
6.17
4.45
2.77
1.14
-0.50
-2.18
-3.92
-5.70
-7.43
-9.05
-10.56
-11.96
-13.34
-14.80
-16.49
-18.53
-20.99
-23.83
-26.90
-29.91
-32.44
-33.95
-34.04
-32.44
-29.26
-24.94
-20.16
-15.57
-11.60
-8.41
-5.81
-3.52
-1.22
1.26
3.94
6.67
9.27
11.57
13.45
14.88
15.92
16.64
17.18
17.61
18.06
18.68
19.60
20.94
22.67
24.70
26.75
28.62
30.15
31.35
32.31
33.15
33.86
34.36
34.49
34.05
32.95
31.16
28.72
25.76
22.43
18.84
15.11
11.27
7.36
3.47
-0.22
-3.56
-6.42
-8.79
-10.77
-12.49
-14.03
-15.44
-16.69
-17.80
-18.88
-20.13
-21.70
-23.73
-26.23
-29.01
-31.70
-33.85
-34.91
-34.53
-32.58
-29.34
-25.38
-21.43
-18.10
-15.73
-14.32
-13.56
-13.03
-12.24
-10.92
-8.91
-6.32
-3.31
-0.16
2.78
5.21
6.83
7.49
7.18
6.12
4.74
3.51
2.80
2.69
2.97
3.21
3.06
2.40
1.43
0.65
0.57
1.60
3.88
7.25
11.33
15.62
19.58
22.78
24.93
25.84
25.50
23.97
21.35
17.83
13.56
8.80
3.80
-1.19
-5.92
-10.25
-14.10
-17.53
-20.63
-23.53
-26.40
-29.32
-32.26
-35.04
-37.32
-38.69
-38.83
-37.58
-35.11
-31.90
-28.46
-25.26
-22.51
-20.16
-17.98
-15.75
-13.39
-10.94
-8.57
-6.41
-4.48
-2.69
-0.84
1.20
3.46
5.74
7.73
9.16
10.00
10.53
11.28
12.82
15.49
19.33
24.08
29.38
34.86
40.17
44.95
48.72
50.99
51.36
49.76
46.41
41.80
36.44
30.77
25.10
19.56
14.23
9.11
4.14
-0.81
-5.89
-11.16
-16.53
-21.75
-26.52
-30.59
-33.87
-36.49
-38.75
-40.95
-43.27
-45.64
-47.73
-49.01
-48.89
-47.04
-43.43
-38.49
-32.88
-27.34
-22.34
-18.08
-14.46
-11.18
-8.03
-4.92
-1.90
0.96
3.61
6.06
8.39
10.63
12.75
14.60
16.00
16.87
17.20
17.11
16.81
16.43
16.08
15.74
15.37
14.94
14.45
13.94
13.45
13.03
12.69
12.42
12.21
12.03
11.85
11.63
11.31
10.85
10.28
9.68
9.13
8.74
8.50
8.30
7.92
7.12
5.77
3.94
1.87
-0.14
-1.92
-3.47
-5.05
-7.02
-9.70
-13.23
-17.47
-22.04
-26.45
-30.14
-32.68
-33.81
-33.46
-31.79
-29.15
-26.00
-22.82
-19.97
-17.63
-15.81
-14.43
-13.35
-12.46
-11.74
-11.21
-10.83
-10.48
-10.02
-9.34
-8.44
-7.45
-6.51
-5.79
-5.34
-5.10
-4.93
-4.60
-3.77
-1.99
1.24
6.30
13.25
21.66
30.67
39.20
46.28
51.35
54.25
55.14
54.29
51.98
48.49
44.17
39.49
34.97
31.01
27.68
24.71
21.59
17.86
13.31
8.11
2.59
-2.81
-7.84
-12.51
-17.03
-21.59
-26.31
-31.11
-35.90
-40.54
-44.99
-49.14
-52.82
