1680161974.00
64.000000
-0.00
-0.00
-0.00
-0.00
-0.00
-0.00
-0.00
-0.00
-0.00
-0.00
0.00
0.01
0.01
-0.00
-0.03
-0.05
-0.05
0.00
0.13
0.36
0.66
1.01
1.37
1.72
2.06
2.40
2.79
3.24
3.80
4.42
5.06
5.66
6.20
6.68
7.15
7.68
8.31
9.14
10.09
11.04
11.88
12.56
13.14
13.76
14.65
15.96
17.91
20.32
22.90
25.38
27.58
29.57
31.68
34.32
37.81
42.54
48.15
54.10
59.83
64.97
69.58
74.14
79.34
85.71
93.76
103.00
112.62
121.73
129.77
136.75
143.30
150.75
157.77
166.64
177.95
191.79
206.97
220.57
228.25
225.36
208.53
176.87
132.76
80.05
23.07
-34.94
-92.44
-149.16
-205.23
-260.37
-313.74
-363.87
-409.83
-450.91
-486.50
-515.74
-537.23
-549.22
-549.95
-538.35
-514.18
-478.63
-433.81
-382.36
-326.89
-269.67
-212.42
-156.40
-102.63
-52.00
-5.47
36.08
71.99
101.98
126.20
145.15
159.54
170.07
177.38
181.85
183.77
183.37
180.93
176.79
171.36
165.05
158.20
151.07
143.79
136.44
129.06
121.69
114.39
107.25
100.32
93.67
87.32
81.30
75.61
70.26
65.27
60.64
56.38
52.50
48.99
45.85
43.07
40.65
38.57
36.83
35.44
34.39
33.68
33.30
33.25
33.48
33.95
34.57
35.24
35.83
36.17
36.09
35.42
34.02
31.78
28.68
24.72
19.97
14.58
8.76
2.78
-3.11
-8.64
-13.57
-17.72
-20.96
-23.24
-24.54
-24.93
-24.54
-23.49
-21.95
-20.05
-17.94
-15.69
-13.40
-11.09
-8.80
-6.55
-4.33
-2.13
0.10
2.36
4.69
7.14
9.75
12.50
15.37
18.36
21.47
24.71
28.11
31.66
35.41
39.41
43.53
47.73
51.97
56.23
60.54
64.91
69.43
74.16
79.24
84.54
89.98
95.55
101.21
106.97
112.82
118.78
124.84
131.06
137.12
142.77
147.77
151.86
154.73
155.99
155.10
151.29
146.02
139.79
132.96
125.77
118.40
111.03
103.80
96.85
90.32
84.40
78.92
73.77
68.90
64.26
59.85
55.63
51.59
47.74
44.13
40.56
36.98
33.35
29.71
26.12
22.63
19.28
16.11
13.18
10.39
7.68
5.07
2.58
0.24
-1.97
-4.07
-6.13
-8.17
-10.26
-12.40
-14.49
-16.42
-18.10
-19.54
-20.87
-22.30
-24.03
-26.20
-28.81
-31.65
-34.48
-37.12
-39.58
-42.14
-45.24
-49.32
-54.61
-61.04
-68.19
-75.50
-82.53
-89.17
-95.75
-102.88
-111.18
-121.00
-132.20
-144.25
-156.45
-168.27
-179.60
-190.77
-202.42
-215.41
-230.67
-249.10
-271.21
-296.48
-322.90
-346.90
-364.20
-371.09
-365.93
-349.76
-325.85
-298.42
-271.07
-245.95
-223.70
-204.19
-187.24
-172.81
-160.83
-150.69
-141.16
-130.66
-117.95
-102.59
-85.12
-66.81
-49.09
-33.10
-19.36
-7.83
1.91
10.38
17.96
24.71
30.46
34.98
38.18
40.21
41.53
42.72
44.23
46.22
48.51
50.74
52.56
53.79
54.50
54.85
54.93
54.69
53.90
52.29
49.69
46.12
41.78
37.01
32.15
27.39
22.78
18.24
13.59
8.73
3.78
-0.92
-4.76
-7.07
-7.34
-5.41
-1.54
3.68
9.52
15.40
20.91
25.87
30.19
33.72
36.28
37.69
37.90
37.13
35.73
34.14
32.71
31.64
30.93
30.46
30.08
29.69
29.22
28.70
28.13
27.51
26.72
25.64
24.11
22.10
19.64
16.97
14.36
12.02
10.04
8.29
6.53
4.50
2.01
-1.05
-4.73
-8.96
-13.57
-18.14
-22.08
-24.59
-25.00
-22.94
-18.54
-12.47
-5.66
0.98
6.81
11.63
15.47
18.52
20.91
22.62
23.63
23.97
23.83
23.51
23.25
23.20
23.30
23.40
23.35
23.14
22.90
22.83
23.16
23.98
25.17
26.41
27.25
27.27
26.17
23.91
20.65
16.77
12.67
8.66
4.92
1.44
-1.87
-5.16
-8.58
-12.24
-16.17
-20.23
-24.06
-27.11
-28.69
-28.28
-25.61
-20.90
-14.80
-8.20
-1.97
3.32
7.48
10.66
13.19
15.35
17.23
18.77
19.88
20.56
21.00
21.48
22.23
23.32
24.55
25.61
26.23
26.32
26.02
25.54
25.03
24.53
23.89
22.92
21.50
19.67
17.56
15.35
13.20
11.15
9.19
7.31
5.42
3.46
1.28
-1.30
-4.49
-8.34
-12.77
-17.49
-22.06
-25.94
-28.62
-29.69
-28.88
-26.17
-21.74
-16.07
-9.74
-3.46
2.18
6.80
10.23
12.51
13.82
14.39
14.42
14.14
13.75
13.43
13.36
13.64
14.26
15.14
16.18
17.28
18.42
19.58
20.64
21.48
21.82
21.47
20.27
18.23
15.50
12.36
9.11
5.99
3.14
0.51
-2.05
-4.79
-7.92
-11.55
-15.57
-19.67
-23.35
-25.96
-26.93
-25.85
-22.72
-17.89
-12.06
-6.04
-0.53
4.06
7.70
10.57
12.86
14.70
16.02
16.72
16.76
16.30
15.63
15.14
15.06
15.41
15.96
16.38
16.40
15.94
15.19
14.40
13.81
13.49
13.26
12.89
12.14
10.93
9.31
7.43
5.45
3.47
1.55
-0.31
-2.20
-4.31
-6.93
-10.39
-14.82
-20.04
-25.56
-30.60
-34.42
-36.40
-36.26
-34.04
-30.00
-24.57
-18.26
-11.60
-5.12
0.76
5.77
9.77
12.77
14.87
16.14
16.64
16.47
15.82
14.98
14.31
14.10
14.42
15.08
15.79
16.32
16.60
16.77
17.02
17.44
17.90
18.13
17.80
16.68
14.77
12.24
9.42
6.63
4.06
1.82
-0.20
-2.17
-4.28
-6.71
-9.58
-12.96
-16.79
-20.89
-24.88
-28.22
-30.27
-30.51
-28.75
-25.23
-20.50
-15.30
-10.29
-5.81
-2.01
1.17
3.84
6.07
7.91
9.42
10.68
11.82
12.95
14.16
15.46
16.77
17.95
18.92
19.62
20.01
20.08
19.87
19.41
18.80
18.13
17.49
16.85
16.15
15.25
14.01
12.40
10.45
8.29
6.02
3.68
1.22
-1.45
-4.43
-7.77
-11.48
-15.49
-19.69
-23.83
-27.54
-30.36
-31.76
-31.33
-28.86
-24.49
-18.68
-12.11
-5.58
0.17
4.67
7.70
9.37
10.00
9.98
9.62
9.12
8.53
7.91
7.36
7.06
7.19
7.85
9.00
10.41
11.81
12.97
13.82
14.35
14.60
14.47
13.81
12.48
10.48
8.04
5.54
3.32
1.59
0.33
-0.71
-1.90
-3.56
-5.93
-9.07
-12.81
-16.80
-20.47
-23.23
-24.56
-24.21
-22.22
-18.85
-14.47
-9.46
-4.21
0.90
5.50
9.30
12.09
13.87
14.76
14.93
14.59
13.86
12.90
11.89
11.01
10.46
10.24
10.28
10.39
10.39
10.19
9.79
9.20
8.44
7.47
6.23
4.68
2.89
1.01
-0.79
-2.41
-3.89
-5.42
-7.31
-9.83
-13.16
-17.28
-21.96
-26.75
-31.09
-34.31
-35.92
-35.61
-33.43
-29.68
-24.86
-19.49
-14.02
-8.73
-3.82
0.49
4.05
6.72
8.49
9.47
9.96
10.28
10.71
11.45
12.54
13.90
15.31
16.56
17.47
17.99
18.26
18.49
18.87
19.39
19.78
19.63
18.54
16.35
13.24
9.59
5.89
2.44
-0.67
-3.62
-6.67
-10.07
-13.96
-18.29
-22.85
-27.18
-30.66
-32.71
-32.84
-30.91
-27.20
-22.28
-16.88
-11.64
-6.94
-2.84
0.74
3.94
6.78
9.17
11.03
12.31
13.07
13.49
13.82
14.26
14.99
16.00
17.20
18.43
19.56
20.49
21.22
21.75
22.10
22.22
22.01
21.32
20.08
18.30
16.07
13.55
10.94
8.33
5.79
3.28
0.72
-1.98
-4.96
-8.34
-12.19
-16.53
-21.20
-25.83
-29.85
-32.65
-33.66
-32.56
-29.33
-24.32
-18.13
-11.52
-5.24
0.14
4.34
7.39
9.57
11.26
12.77
14.21
15.49
16.49
17.08
17.32
17.36
17.43
17.66
18.11
18.67
19.22
19.64
19.77
19.53
18.84
17.62
15.84
13.57
10.93
8.13
5.42
2.97
0.86
-0.89
-2.33
-3.52
-4.49
-5.35
-6.21
-7.26
-8.73
-10.78
-13.50
-16.77
-20.18
-23.18
-25.13
-25.52
-24.16
-21.19
-17.07
-12.36
-7.60
-3.14
0.86
4.34
7.24
9.50
11.07
12.00
12.41
12.52
12.52
12.51
12.47
12.34
12.09
11.73
11.35
10.99
10.71
10.46
10.17
9.75
9.16
8.37
7.40
6.25
4.91
3.37
1.65
-0.21
-2.19
-4.27
-6.55
-9.11
-12.03
-15.22
-18.46
-21.39
-23.62
-24.81
-24.73
-23.26
-20.43
-16.36
-11.36
-5.91
-0.58
4.04
7.53
9.75
10.76
10.85
10.34
9.52
8.60
7.72
6.93
6.27
5.75
5.44
5.43
5.80
6.54
7.61
8.84
9.95
10.68
10.77
10.08
8.58
6.39
3.70
0.78
-2.10
-4.74
-7.01
-8.93
-10.66
-12.49
-14.66
-17.35
-20.46
-23.62
-26.23
-27.63
-27.37
-25.33
-21.78
-17.25
-12.26
-7.27
-2.50
1.95
6.01
9.54
12.38
14.42
15.63
16.06
15.80
14.97
13.65
11.96
10.09
8.37
7.12
6.56
6.73
7.50
8.62
9.79
10.81
11.49
11.73
11.43
10.45
8.77
6.43
3.60
0.51
-2.64
-5.72
-8.68
-11.52
-14.24
-16.84
-19.26
-21.49
-23.43
-24.92
-25.68
-25.40
-23.86
-21.06
-17.28
-12.98
-8.68
-4.74
-1.34
1.53
4.01
6.18
8.05
9.62
10.90
11.96
12.91
13.85
14.77
15.59
16.17
16.41
16.27
15.86
15.31
14.80
14.45
14.26
14.15
13.97
13.53
12.67
11.34
9.52
7.31
4.82
2.17
-0.52
-3.24
-5.98
-8.77
-11.69
-14.77
-18.03
-21.45
-24.77
-27.59
-29.35
-29.59
-28.06
-24.92
-20.63
-15.80
-10.97
-6.44
-2.33
1.30
4.37
6.80
8.56
9.70
10.46
11.02
11.55
12.12
12.78
13.55
14.54
15.73
17.03
18.22
19.01
19.19
18.71
17.66
16.22
14.52
12.66
10.63
8.45
6.18
3.94
1.84
-0.04
-1.81
-3.69
-5.99
-8.96
-12.65
-16.89
-21.24
-25.12
-27.99
-29.38
-29.11
-27.18
-23.84
-19.48
-14.52
-9.40
-4.48
-0.07
3.60
6.34
8.12
9.02
9.29
9.25
9.23
9.48
10.11
11.11
12.37
13.71
14.93
15.89
16.59
17.09
17.47
17.76
17.82
17.37
16.08
13.73
10.37
6.32
2.06
-1.95
-5.41
-8.25
-10.61
-12.78
-15.04
-17.61
-20.55
-23.67
-26.61
-28.89
-30.01
-29.68
-27.86
-24.78
-20.87
-16.59
-12.36
-8.48
-5.09
-2.22
0.21
2.31
4.25
6.15
8.09
10.09
12.13
14.21
16.30
18.32
20.12
21.50
22.26
22.29
21.70
20.71
19.62
18.67
17.92
17.30
16.65
15.83
14.78
13.49
12.02
10.40
8.58
6.47
3.99
1.12
-2.10
-5.59
-9.27
-13.12
-17.12
-21.23
-25.21
-28.64
-31.01
-31.84
-30.89
-28.20
-24.13
-19.20
-13.94
-8.81
-4.18
-0.34
2.54
4.41
5.37
5.69
5.72
5.73
5.93
6.36
7.01
7.85
8.97
10.48
12.45
14.81
17.31
19.53
21.11
21.82
21.70
20.96
19.88
18.67
17.38
15.92
14.26
12.37
10.35
8.35
6.44
4.63
2.84
0.96
-1.04
-3.20
-5.56
-8.25
-11.40
-15.12
-19.34
-23.69
-27.60
-30.33
-31.27
-30.09
-26.84
-21.98
-16.21
-10.31
-4.93
-0.48
2.89
5.31
7.00
8.19
9.10
9.84
10.51
11.19
11.94
12.79
13.75
14.78
15.83
16.85
17.80
18.61
19.24
19.62
19.70
19.42
18.61
17.16
14.94
12.03
8.71
5.43
2.72
0.86
-0.13
-0.57
-0.91
-1.62
-3.03
-5.29
-8.40
-12.22
-16.44
-20.59
-24.06
-26.21
-26.53
-24.80
-21.21
-16.28
-10.71
-5.22
-0.31
3.73
6.79
8.90
10.10
10.47
10.11
9.23
8.10
7.05
6.34
6.05
6.17
6.56
7.07
7.62
8.19
8.78
9.34
9.82
10.07
9.91
9.22
7.91
6.02
3.70
1.21
-1.19
-3.24
-4.81
-5.95
-6.87
-7.88
-9.30
-11.34
-13.97
-16.92
-19.77
-21.99
-23.12
-22.91
-21.36
-18.78
-15.65
-12.46
-9.59
-7.19
-5.18
-3.37
-1.54
0.35
2.22
3.98
5.54
6.94
8.31
9.74
11.24
12.69
13.90
14.74
15.17
15.23
15.01
14.56
13.88
12.94
11.79
10.48
9.18
7.99
6.95
6.02
5.06
3.93
2.58
1.01
-0.71
-2.52
-4.43
-6.54
-9.04
-12.07
-15.69
-19.76
-23.86
-27.50
-30.06
-31.07
-30.28
-27.73
-23.72
-18.79
-13.59
-8.63
-4.35
-0.87
1.81
3.87
5.48
6.77
7.76
8.48
8.93
9.20
9.42
9.72
10.18
10.82
11.60
12.48
13.44
14.43
15.31
15.83
15.70
14.70
12.89
10.54
8.09
5.98
4.44
3.42
2.72
2.09
1.36
0.53
-0.34
-1.17
-2.01
-3.04
-4.50
-6.65
-9.70
-13.72
-18.56
-23.93
-29.32
-34.06
-37.43
-38.82
-37.89
-34.71
-29.68
-23.52
-16.97
-10.66
-4.98
-0.04
4.18
7.76
10.71
13.00
14.63
15.64
16.15
16.34
16.31
16.17
15.91
15.53
15.06
14.57
14.15
13.94
13.97
14.19
14.50
14.67
14.41
13.45
11.63
8.98
5.81
2.54
-0.46
-2.94
-4.94
-6.64
-8.29
-10.07
-12.04
-14.16
-16.42
-18.85
-21.44
-24.16
-26.73
-28.76
-29.81
-29.53
-27.80
-24.76
-20.76
-16.25
-11.68
-7.40
-3.59
-0.33
2.37
4.58
6.33
7.66
8.62
9.24
9.63
9.93
10.27
10.78
11.49
12.31
13.14
13.86
14.39
14.69
14.76
14.55
13.99
12.98
11.45
9.45
7.08
4.53
1.95
-0.57
-3.12
-5.87
-9.06
-12.84
-17.25
-22.12
-27.05
-31.48
-34.78
-36.36
-35.85
-33.19
-28.62
-22.68
-16.04
-9.36
-3.18
2.16
6.47
9.72
11.97
13.29
13.81
13.69
13.14
12.40
11.75
11.40
11.44
11.89
12.63
13.50
14.34
15.01
15.39
15.41
15.02
14.19
12.90
11.10
8.82
6.14
3.24
0.33
-2.35
-4.64
-6.53
-8.22
-10.03
-12.34
-15.49
-19.56
-24.29
-29.12
-33.21
-35.75
-36.15
-34.24
-30.29
-24.86
-18.61
-12.13
-5.86
-0.14
4.79
8.78
11.75
13.74
14.91
15.50
15.75
15.87
15.97
16.06
16.14
16.15
16.09
15.97
15.84
15.76
15.78
15.92
16.14
16.33
16.29
15.81
14.74
13.04
10.81
8.30
5.76
3.37
1.13
-1.16
-3.79
-7.03
-11.06
-15.80
-21.01
-26.17
-30.62
-33.66
-34.72
-33.46
-29.94
-24.51
-17.85
-10.71
-3.81
2.21
7.00
10.37
12.41
13.33
13.49
13.22
12.83
12.55
12.53
12.87
13.63
14.75
16.07
17.42
18.66
19.72
20.62
21.41
22.08
22.49
22.44
21.75
20.31
18.16
15.50
12.58
9.66
6.90
4.33
1.88
-0.64
-3.47
-6.79
-10.73
-15.31
-20.40
-25.72
-30.84
-35.14
-38.00
-38.96
-37.82
-34.72
-30.04
-24.28
-17.92
-11.38
-5.02
0.77
5.59
9.15
11.32
12.29
12.48
12.41
12.51
12.98
13.82
14.86
15.90
16.83
17.61
18.23
18.69
18.93
18.87
18.37
17.28
15.50
12.95
9.71
6.00
2.20
-1.35
-4.40
-6.89
-8.99
-11.00
-13.24
-15.95
-19.17
-22.67
-25.95
-28.36
-29.24
-28.12
-24.93
-19.97
-13.88
-7.39
-1.12
4.49
9.22
13.01
15.84
17.75
18.79
19.15
19.05
18.73
18.33
17.89
17.28
16.41
15.23
13.84
12.47
11.36
10.62
10.18
9.81
9.19
8.08
6.38
4.16
1.62
-1.02
-3.59
-6.02
-8.39
-10.91
-13.82
-17.27
-21.23
-25.41
-29.20
-31.84
-32.60
-31.04
-27.16
-21.43
-14.70
-8.03
-2.38
1.54
3.53
3.88
3.25
2.44
2.11
2.59
3.82
5.54
7.45
9.40
11.34
13.24
14.98
16.38
17.27
17.63
17.59
17.36
17.01
16.47
15.56
14.09
12.03
9.50
6.77
4.05
1.39
-1.29
-4.20
-7.57
-11.56
-16.21
-21.38
-26.70
-31.56
-35.15
-36.69
-35.65
-31.96
-26.10
-18.91
-11.40
-4.36
1.76
6.88
11.14
14.69
17.61
19.84
21.31
22.04
22.23
22.20
22.36
23.02
24.23
25.80
27.35
28.49
28.94
28.70
27.94
26.88
25.61
24.06
22.00
19.24
15.76
11.74
7.56
3.63
0.25
-2.50
-4.69
-6.58
-8.54
-10.98
-14.33
-18.82
-24.42
-30.66
-36.71
-41.55
-44.24
-44.15
-41.16
-35.62
-28.22
-19.79
-11.13
-2.91
4.41
10.58
15.55
19.44
22.45
24.74
26.37
27.38
27.83
27.90
27.89
28.15
28.96
30.33
32.08
33.84
35.23
35.97
35.96
35.20
33.79
31.77
29.18
26.02
22.36
18.34
14.17
10.09
6.30
2.93
0.04
-2.47
-4.81
-7.27
-10.25
-14.06
-18.86
-24.53
-30.60
-36.30
-40.69
-42.84
-42.14
-38.40
-31.95
-23.61
-14.42
-5.40
2.72
9.54
14.99
19.13
22.09
23.88
24.56
24.29
23.41
22.34
21.55
21.34
21.74
22.55
23.52
24.37
24.96
25.25
25.19
24.67
23.46
21.38
18.36
14.56
10.30
6.10
2.38
-0.60
-2.79
-4.42
-5.81
-7.34
-9.30
-11.88
-15.20
-19.26
-23.91
-28.74
-33.17
-36.39
-37.56
-36.13
-31.94
-25.40
-17.34
-8.83
-0.79
6.10
11.59
15.68
18.57
20.40
21.34
21.53
21.09
20.29
19.43
18.83
18.75
19.30
20.50
22.15
24.04
25.86
27.35
28.27
28.52
28.10
26.99
25.19
22.61
19.21
15.09
10.45
5.65
1.08
-3.03
-6.58
-9.68
-12.56
-15.51
-18.87
-22.91
-27.76
-33.24
-38.76
-43.41
-46.18
-46.20
-43.19
-37.44
-29.75
-21.10
-12.43
-4.41
2.59
8.42
13.04
16.52
18.90
20.28
20.80
20.70
20.28
19.86
19.73
20.08
20.90
22.04
23.30
24.47
25.46
26.25
26.84
27.16
27.01
26.16
24.43
21.84
18.54
14.82
10.99
7.27
3.81
0.63
-2.27
-4.96
-7.52
-10.12
-13.05
-16.62
-21.07
-26.44
-32.38
-38.19
-42.91
-45.62
-45.62
-42.72
-37.21
-29.76
-21.23
-12.44
-4.08
3.32
9.49
14.31
17.80
20.14
21.55
22.31
22.60
22.58
22.43
22.33
22.46
22.96
23.86
24.99
26.07
26.81
26.95
26.40
25.21
23.47
21.28
18.70
15.78
12.62
9.38
6.24
3.33
0.74
-1.55
-3.61
-5.54
-7.47
-9.47
-11.60
-13.95
-16.63
-19.78
-23.49
-27.68
-32.03
-35.92
-38.59
-39.27
-37.52
-33.35
-27.28
-20.19
-12.99
-6.37
-0.73
3.86
7.46
10.06
11.61
12.04
11.47
10.23
8.80
7.63
6.99
6.92
7.36
8.24
9.52
11.18
13.06
14.91
16.32
16.98
16.72
15.57
13.74
11.44
8.82
5.95
2.92
-0.17
-3.16
-5.88
-8.24
-10.20
-11.90
-13.59
-15.55
-18.06
-21.23
-24.94
-28.80
-32.19
-34.42
-34.93
-33.41
-29.95
-24.98
-19.08
-12.87
-6.86
-1.36
3.45
7.48
10.63
12.83
14.04
14.34
13.98
13.30
12.65
12.32
12.43
12.94
13.73
14.61
15.45
16.10
16.44
16.36
15.76
14.58
12.77
10.36
7.44
4.11
0.54
-3.16
-6.87
-10.51
-14.00
-17.37
-20.67
-24.07
-27.70
-31.61
-35.68
-39.51
-42.53
-44.08
-43.68
-41.12
-36.56
-30.48
-23.50
-16.32
-9.54
-3.64
1.14
4.73
7.25
8.94
10.05
10.79
11.31
11.69
12.09
12.70
13.68
15.05
16.62
18.01
18.86
19.00
18.55
17.88
17.35
17.13
17.06
16.79
15.89
14.15
11.60
8.50
5.18
1.93
-1.08
-3.84
-6.45
-9.10
-12.06
-15.57
-19.82
-24.83
-30.38
-35.98
-40.93
-44.42
-45.78
-44.59
-40.85
-35.04
-28.04
-20.88
-14.49
-9.44
-5.90
-3.66
-2.33
-1.49
-0.90
-0.47
-0.24
-0.23
-0.37
-0.48
-0.37
0.06
0.70
1.30
1.50
0.95
-0.55
-3.03
-6.33
-10.25
-14.58
-19.13
-23.86
-28.79
-34.05
-39.78
-46.09
-52.91
-59.98
-66.85
-73.01
-78.08
-81.91
-84.71
-87.09
-89.90
-93.97
-99.67
-106.53
-112.95
-116.37
-113.89
-103.11
-83.10
-54.74
-20.57
16.06
51.87
84.40
112.31
135.20
153.33
167.23
177.49
184.71
189.38
191.85
192.24
190.43
186.31
179.91
171.64
162.29
152.83
144.14
136.75
130.70
125.54
120.42
114.48
107.09
98.06
87.75
76.90
66.48
57.22
49.42
42.88
36.99
31.06
24.60
17.48
10.02
2.75
-3.70
-8.78
-12.24
-14.03
-14.38
-13.64
-12.33
-10.97
-10.15
-10.41
-12.24
-15.86
-21.05
-27.19
-33.35
-38.61
-42.47
-44.97
-46.51
-47.57
-48.34
-48.71
-48.36
-47.10
-45.13
-42.93
-41.16
-40.27
-40.44
-41.58
-43.42
-45.87
-48.96
-52.82
-57.56
-63.09
-69.11
-75.09
-80.39
-84.35
-86.52
-86.56
-84.41
-80.18
-74.14
-66.73
-58.54
-50.17
-42.22
-35.09
-28.94
-23.74
-19.36
-15.68
-12.58
-10.03
-7.97
-6.30
-4.92
-3.71
-2.65
-1.76
-1.03
-0.41
0.14
0.64
0.93
0.85
0.22
-1.03
-2.82
-4.89
-7.02
-9.07
-11.08
-13.23
-15.81
-19.04
-22.99
-27.45
-31.95
-35.81
-38.29
-38.84
-37.23
-33.62
-28.51
-22.57
-16.39
-10.39
-4.78
0.33
4.86
8.69
11.65
13.60
14.58
14.76
14.37
13.71
12.99
12.35
11.82
11.40
11.08
10.81
10.57
10.36
10.14
9.91
9.58
9.04
8.06
6.39
3.73
-0.05
-4.89
-10.39
-15.90
-20.65
-23.84
-24.91
-23.60
-20.03
-14.70
-8.31
-1.61
4.73
10.23
14.67
18.02
20.37
21.81
22.43
22.25
21.39
20.01
18.37
16.76
15.38
14.36
13.65
13.14
12.62
11.91
10.91
9.54
7.77
5.61
3.13
0.34
-2.70
-5.99
-9.56
-13.43
-17.57
-21.88
-26.09
-29.77
-32.38
-33.37
-32.42
-29.50
-25.00
-19.54
-13.82
-8.41
-3.61
0.48
3.91
6.67
8.71
9.98
10.52
10.55
10.44
10.54
10.98
11.75
12.61
13.32
13.74
13.92
13.97
13.95
13.75
13.10
11.77
9.63
6.84
3.78
0.95
-1.25
-2.66
-3.45
-3.98
-4.68
-5.92
-7.91
-10.70
-14.19
-18.14
-22.12
-25.53
-27.64
-27.78
-25.65
-21.40
-15.61
-9.13
-2.76
2.97
7.82
11.78
14.90
17.17
18.56
19.03
18.69
17.76
16.59
15.47
14.64
14.15
13.97
14.06
14.42
15.05
15.91
16.88
17.66
17.95
17.48
16.11
13.90
11.07
7.93
4.80
1.94
-0.54
-2.63
-4.52
-6.48
-8.82
-11.78
-15.32
-19.17
-22.70
-25.25
-26.18
-25.15
-22.20
-17.68
-12.19
-6.38
-0.89
3.85
7.53
10.12
11.73
12.62
13.08
13.36
13.62
13.95
14.36
14.86
15.40
15.90
16.26
16.36
16.18
15.77
15.26
14.78
14.34
13.83
13.08
11.94
10.38
8.45
6.34
4.16
1.99
-0.20
-2.55
-5.18
-8.29
-12.01
-16.38
-21.30
-26.40
-31.06
-34.45
-35.81
-34.59
-30.77
-24.84
-17.68
-10.32
-3.68
1.78
5.90
8.88
11.03
12.56
13.63
14.30
14.68
14.90
15.18
15.70
16.55
17.64
18.81
19.78
20.32
20.32
19.79
18.85
17.65
16.33
14.95
13.55
12.07
10.44
8.64
6.65
4.44
2.05
-0.51
-3.13
-5.73
-8.21
-10.54
-12.79
-15.07
-17.59
-20.42
-23.54
-26.71
-29.46
-31.22
-31.45
-29.80
-26.28
-21.22
-15.23
-9.01
-3.19
1.80
5.76
8.69
10.68
11.89
12.49
12.72
12.78
12.90
13.22
13.83
14.67
15.60
16.52
17.33
18.10
18.92
19.82
20.70
21.30
21.31
20.53
19.02
17.04
14.92
12.85
10.81
8.60
6.03
3.08
-0.08
-3.15
-5.92
-8.27
-10.28
-12.07
-13.75
-15.44
-17.23
-19.32
-21.82
-24.70
-27.64
-30.06
-31.23
-30.56
-27.86
-23.37
-17.74
-11.74
-6.04
-1.09
2.98
6.20
8.72
10.64
12.06
13.07
13.75
14.21
14.52
14.77
14.99
15.22
15.49
15.79
16.07
16.33
16.54
16.69
16.78
16.78
16.63
16.22
15.47
14.36
12.97
11.44
9.94
8.52
7.14
5.63
3.81
1.58
-1.01
-3.81
-6.55
-9.01
-11.13
-13.02
-14.98
-17.34
-20.20
-23.40
-26.48
-28.80
-29.70
-28.77
-26.01
-21.75
-16.59
-11.17
-6.00
-1.41
2.47
5.64
8.08
9.79
10.74
10.91
10.41
9.42
8.16
6.87
5.78
5.04
4.83
5.22
6.17
7.47
8.83
9.93
10.53
10.60
10.27
9.74
9.13
8.41
7.44
6.03
4.09
1.73
-0.88
-3.52
-6.05
-8.45
-10.83
-13.25
-15.81
-18.56
-21.53
-24.60
-27.55
-29.93
-31.16
-30.69
-28.22
-23.90
-18.25
-12.11
-6.26
-1.23
2.74
5.75
8.01
9.72
10.98
11.75
12.00
11.76
11.16
10.43
9.83
9.57
9.65
9.92
10.19
10.25
10.03
9.56
8.92
8.22
7.45
6.55
5.45
4.13
2.62
0.98
-0.68
-2.30
-3.82
-5.26
-6.65
-8.04
-9.56
-11.42
-13.87
-17.07
-20.99
-25.25
-29.26
-32.25
-33.58
-32.92
-30.32
-26.17
-21.00
-15.39
-9.79
-4.59
-0.06
3.63
6.44
8.46
9.87
10.85
11.56
12.03
12.28
12.35
12.26
12.15
12.13
12.26
12.57
13.01
13.46
13.77
13.79
13.35
12.39
10.90
9.02
6.92
4.75
2.53
0.21
-2.28
-4.91
-7.59
-10.12
-12.39
-14.44
-16.47
-18.71
-21.31
-24.26
-27.35
-30.21
-32.41
-33.56
-33.37
-31.73
-28.70
-24.53
-19.63
-14.49
-9.54
-5.13
-1.43
1.54
3.87
5.71
7.27
8.70
10.16
11.68
13.22
14.70
15.96
16.93
17.61
18.10
18.56
19.12
19.78
20.39
20.67
20.42
19.47
17.86
15.76
13.33
10.69
7.86
4.84
1.65
-1.55
-4.53
-7.05
-8.98
-10.37
-11.43
-12.45
-13.71
-15.46
-17.89
-21.05
-24.84
-28.85
-32.40
-34.60
-34.69
-32.27
-27.55
-21.28
-14.50
-8.16
-2.81
1.43
4.79
7.57
9.90
11.70
12.87
13.36
13.34
13.13
13.09
13.43
14.10
14.98
15.90
16.84
17.88
19.09
20.45
21.71
22.54
22.65
21.94
20.52
18.71
16.73
14.67
12.40
9.74
6.60
3.07
-0.56
-3.97
-6.93
-9.39
-11.56
-13.72
-16.15
-19.00
-22.29
-25.82
-29.30
-32.31
-34.34
-34.91
-33.69
-30.63
-25.95
-20.21
-14.08
-8.23
-3.16
0.88
3.83
5.80
6.93
7.42
7.49
7.39
7.34
7.51
8.00
8.82
9.90
11.13
12.35
13.39
14.18
14.72
15.12
15.40
15.52
15.29
14.50
12.98
10.75
8.06
5.25
2.58
0.17
-2.03
-4.20
-6.52
-9.10
-11.97
-15.15
-18.55
-22.02
-25.26
-27.76
-28.94
-28.30
-25.60
-20.98
-14.99
-8.38
-1.93
3.77
8.38
11.76
13.98
15.20
15.66
15.58
15.21
14.81
14.54
14.49
14.65
14.94
15.24
15.40
15.35
15.12
14.81
14.51
14.26
13.97
13.43
12.39
10.67
8.24
5.28
2.04
-1.19
-4.15
-6.75
-9.07
-11.36
-14.00
-17.27
-21.31
-26.00
-30.86
-35.22
-38.31
-39.51
-38.45
-35.11
-29.83
-23.24
-16.15
-9.34
-3.40
1.35
4.87
7.39
9.16
10.41
11.25
11.74
11.98
12.12
12.39
12.99
14.02
15.43
17.00
18.40
19.38
19.72
19.36
18.38
16.88
14.95
12.67
10.04
7.11
3.96
0.80
-2.14
-4.65
-6.61
-8.09
-9.28
-10.45
-11.81
-13.57
-15.87
-18.78
-22.24
-26.01
-29.58
-32.21
-33.19
-32.00
-28.56
-23.31
-17.06
-10.75
-5.12
-0.55
3.00
5.77
8.08
10.10
11.80
13.01
13.59
13.59
13.20
12.72
12.47
12.64
13.29
14.37
15.70
17.07
18.26
19.16
19.74
20.02
20.04
19.79
19.16
18.00
16.20
13.78
10.87
7.70
4.51
1.48
-1.28
-3.77
-6.08
-8.42
-11.00
-14.06
-17.72
-21.88
-26.19
-30.06
-32.72
-33.49
-31.94
-28.11
-22.50
-15.94
-9.31
-3.32
1.62
5.46
8.35
10.49
12.07
13.28
14.24
15.06
15.82
16.46
16.93
17.20
17.27
17.28
17.39
17.76
18.46
19.44
20.51
21.47
22.10
22.20
21.70
20.58
18.87
16.64
13.97
10.97
7.78
4.51
1.31
-1.75
-4.65
-7.46
-10.31
-13.29
-16.52
-19.92
-23.32
-26.39
-28.64
-29.60
-28.92
-26.48
-22.48
-17.36
-11.73
-6.20
-1.24
2.93
6.20
8.57
10.10
10.82
10.88
10.52
10.08
9.93
10.33
11.33
12.78
14.40
15.92
17.19
18.16
18.90
19.40
19.58
19.29
18.33
16.60
14.13
11.15
7.99
5.01
2.46
0.40
-1.34
-3.05
-5.10
-7.83
-11.45
-15.93
-20.97
-25.91
-29.89
-32.06
-31.80
-29.01
-24.09
-17.82
-11.04
-4.48
1.42
6.48
10.64
13.86
16.06
17.21
17.39
16.82
15.85
14.89
14.26
14.14
14.53
15.27
16.12
16.83
17.20
17.11
16.52
15.44
13.90
11.98
9.71
7.12
4.30
1.37
-1.49
-4.08
-6.30
-8.17
-9.89
-11.78
-14.17
-17.31
-21.37
-26.26
-31.76
-37.40
-42.45
-46.12
-47.66
-46.70
-43.32
-38.20
-32.29
-26.56
-21.76
-18.15
-15.64
-13.96
-12.85
-12.18
-12.05
-12.61
-13.95
-16.03
-18.70
-21.71
-24.87
-28.04
-31.18
-34.25
-37.13
-39.63
-41.45
-42.33
-42.19
-41.04
-38.99
-36.20
-32.75
-28.69
-24.13
-19.35
-14.77
-10.90
-8.13
-6.46
-5.50
-4.59
-3.15
-0.99
1.55
3.59
4.03
1.93
-3.09
-10.64
-19.58
-28.28
-35.02
-38.51
-38.17
-34.33
-28.00
-20.63
-13.66
-8.24
-5.05
-4.33
-5.83
-8.95
-12.83
-16.56
-19.44
-21.17
-21.78
-21.42
-20.11
-17.66
-13.76
-8.29
-1.59
5.58
12.29
17.92
22.37
26.19
30.19
35.14
41.40
48.84
56.88
64.70
71.51
76.63
79.67
80.60
79.71
77.43
74.19
70.32
65.97
61.30
56.52
52.04
48.41
46.08
45.23
45.63
46.80
48.28
49.86
51.62
53.79
56.40
59.15
61.52
63.06
63.71
63.89
64.31
65.54
67.83
70.88
74.18
77.15
79.47
80.99
81.70
81.38
79.59
75.74
69.35
60.35
49.21
36.90
24.52
13.08
3.27
-4.53
-10.30
-14.26
-16.92
-18.98
-21.24
-24.38
-28.65
-33.82
-39.21
-43.96
-47.32
-48.78
-48.13
-45.36
-40.70
-34.64
-27.90
-21.47
-16.37
-13.47
-13.25
-15.73
-20.52
-26.92
-34.21
-41.72
-49.03
-55.88
-62.04
-67.17
-70.70
-71.91
-70.25
-65.57
-58.43
-49.87
-41.10
-32.97
-25.70
-18.90
-11.94
-4.53
3.03
9.78
14.42
15.83
13.45
7.49
-0.89
-9.76
-16.73
-19.31
-15.79
-5.79
9.33
26.84
43.42
56.22
63.66
65.68
63.49
58.96
54.04
50.31
48.70
49.45
52.16
55.94
59.87
63.34
66.30
69.13
72.25
75.70
79.07
81.82
83.71
84.88
85.47
85.05
82.34
75.48
62.91
44.46
21.69
-2.59
-25.33
-44.32
-58.55
-68.08
-73.50
-75.79
-76.36
-77.10
-79.92
-85.89
-94.49
-103.69
-110.92
-114.49
-114.49
-112.54
-110.50
-108.98
-106.79
-101.49
-90.97
-74.78
-54.48
-32.90
-12.85
4.04
17.52
28.35
37.42
45.22
51.75
56.72
60.02
61.87
62.86
63.61
64.58
65.84
67.17
68.19
68.55
68.09
66.75
64.61
61.80
58.49
54.95
51.41
48.01
44.66
41.07
36.96
32.15
26.74
20.98
15.17
9.43
3.74
-1.91
-7.46
-12.67
-17.31
-21.32
-25.00
-28.88
-33.54
-39.31
-46.03
-53.18
-60.00
-65.76
-69.97
-72.47
-73.21
-72.24
-69.55
-65.02
-58.77
-51.14
-42.86
-34.77
-27.54
-21.33
-15.77
-10.20
-4.04
2.79
9.75
16.04
20.85
23.74
24.80
24.45
23.24
21.65
20.01
18.49
17.11
15.85
14.65
13.40
11.89
9.83
7.07
3.58
-0.33
-4.04
-6.74
-7.72
-6.62
-3.58
0.81
5.74
10.45
14.44
17.48
19.53
20.63
20.83
20.21
18.88
17.05
14.95
12.83
10.86
9.12
7.67
6.49
5.66
5.26
5.38
6.06
7.22
8.59
9.78
10.39
10.18
9.14
7.50
5.63
3.83
2.24
0.77
-0.86
-2.98
-5.87
-9.66
-14.18
-18.97
-23.28
-26.25
-27.08
-25.31
-20.95
-14.53
-6.89
1.03
8.44
14.87
20.14
24.38
27.82
30.72
33.26
35.46
37.16
38.12
38.18
37.46
36.33
35.35
35.02
35.55
36.75
38.17
39.26
39.70
39.45
38.69
37.69
36.70
35.97
35.58
35.51
35.41
34.48
31.45
24.86
13.62
-2.36
-21.93
-42.76
-62.09
-77.56
-88.03
-93.67
-95.66
-95.32
-93.45
-90.07
-84.86
-77.82
-69.80
-62.33
-57.10
-55.05
-55.89
-58.18
-59.96
-59.73
-57.01
-52.45
-47.33
-42.74
-39.05
-35.75
-31.84
-26.54
-19.78
-12.40
-5.73
-0.96
1.44
1.90
1.46
1.13
1.38
1.93
1.97
0.67
-2.31
-6.60
-11.25
-15.02
-16.91
-16.45
-13.75
-9.28
-3.69
2.40
8.59
14.56
20.03
24.67
28.15
30.29
31.12
30.95
30.24
29.45
28.91
28.75
28.94
29.43
30.20
31.30
32.75
34.54
36.51
38.41
39.88
40.67
40.65
39.93
38.82
37.62
36.55
35.60
34.46
32.81
30.40
27.23
23.61
19.88
16.30
12.93
9.62
6.16
2.40
-1.73
-6.21
-11.10
-16.48
-22.41
-28.83
-35.53
-42.18
-48.51
-54.41
-59.89
-64.93
-69.32
-72.53
-73.76
-72.37
-68.15
-61.64
-54.13
-47.29
-42.64
-41.04
-42.37
-45.66
-49.49
-52.50
-53.82
-53.19
-50.75
-46.80
-41.54
-35.06
-27.42
-18.76
-9.38
0.30
9.83
18.87
27.18
34.61
41.03
46.31
50.27
52.69
53.43
52.53
50.31
47.61
45.56
45.35
47.77
52.86
59.78
67.13
73.47
77.87
80.15
80.70
80.05
78.48
75.75
71.47
65.43
58.00
50.06
42.72
36.84
32.66
29.86
27.80
25.88
23.77
21.33
18.45
14.93
10.50
5.01
-1.35
-8.14
-14.79
-20.88
-26.30
-31.15
-35.62
-39.60
-42.59
-43.78
-42.43
-38.33
-32.14
-25.34
-19.83
-17.52
-19.81
-27.36
-39.68
-55.06
-70.60
-82.78
-88.35
-85.42
-73.95
-55.63
-32.95
-8.20
16.85
40.61
60.71
73.47
74.20
58.47
23.96
-28.05
-92.09
-159.34
-219.65
-264.00
-286.62
-285.86
-263.79
-225.25
-176.75
-125.79
-80.14
-46.81
-30.46
-31.70
-46.51
-67.19
-85.12
-93.79
-90.84
-78.13
-59.93
-40.80
-23.98
-11.04
-2.45
1.91
2.42
-0.08
-4.27
-8.54
-11.46
-12.24
-11.03
-8.78
-6.75
-5.94
-6.69
-8.62
-10.84
-12.36
-12.44
-10.71
-7.16
-2.13
3.75
9.58
14.31
17.11
17.72
16.61
14.85
13.78
14.45
17.34
22.29
28.69
35.80
43.03
49.91
56.13
61.40
65.42
67.93
68.76
67.93
65.67
62.41
58.65
54.86
51.42
48.51
46.15
44.23
42.56
40.98
39.33
37.55
35.63
33.60
31.46
29.18
26.70
23.94
20.85
17.38
13.47
9.15
4.63
0.31
-3.17
-5.11
-5.07
-2.98
0.74
5.41
10.35
15.10
19.45
23.34
26.72
29.34
30.85
30.93
29.48
26.78
23.43
20.17
17.63
16.09
15.46
15.29
15.05
14.40
13.30
11.98
10.78
9.97
9.62
9.59
9.67
9.62
9.32
8.71
7.72
6.36
4.66
2.81
1.21
0.36
0.73
2.56
5.74
9.80
14.07
17.94
21.08
23.35
24.76
25.37
25.14
24.07
22.30
20.17
18.12
16.55
15.60
15.20
15.10
15.04
14.93
14.82
14.84
15.02
15.33
15.59
15.54
14.95
13.59
11.33
8.17
4.34
0.20
-3.73
-6.93
-8.96
-9.59
-8.82
-6.81
-3.90
-0.47
3.12
6.52
9.41
11.39
12.08
11.16
8.59
4.62
-0.10
-4.68
-8.31
-10.44
-10.99
-10.25
-8.70
-6.79
-4.81
-2.79
-0.72
1.32
3.17
4.56
5.25
5.17
4.37
3.09
1.56
-0.01
-1.51
-2.75
-3.53
-3.51
-2.39
-0.04
3.43
7.67
12.19
16.52
20.31
23.28
25.20
25.89
25.26
23.33
20.38
16.80
13.10
9.71
6.88
4.62
2.86
1.39
0.06
-1.26
-2.65
-4.14
-5.73
-7.40
-9.05
-10.61
-12.05
-13.42
-14.83
-16.41
-18.21
-20.01
-21.42
-21.91
-20.95
-18.32
-14.09
-8.66
-2.60
3.53
9.29
14.39
18.73
22.28
25.01
26.91
27.92
28.00
27.22
25.73
23.81
21.79
19.92
18.39
17.21
16.27
15.45
14.58
13.48
11.97
9.85
7.04
3.63
-0.09
-3.72
-6.90
-9.51
-11.69
-13.80
-16.19
-19.05
-22.24
-25.38
-27.93
-29.35
-29.32
-27.72
-24.70
-20.62
-15.94
-11.14
-6.64
-2.66
0.64
3.19
4.94
5.85
5.93
5.31
4.29
3.22
2.46
2.23
2.55
3.25
4.12
4.95
5.59
5.97
6.00
5.64
4.85
3.66
2.18
0.58
-0.99
-2.44
-3.84
-5.34
-7.11
-9.24
-11.59
-13.79
-15.33
-15.69
-14.56
-12.00
-8.39
-4.31
-0.37
3.02
5.67
7.61
8.91
9.70
10.01
9.95
9.63
9.29
9.11
9.26
9.70
10.26
10.74
10.92
10.70
10.08
9.09
7.82
6.32
4.63
2.84
1.00
-0.87
-2.78
-4.81
-7.05
-9.54
-12.27
-15.08
-17.78
-20.02
-21.51
-21.94
-21.05
-18.77
-15.19
-10.67
-5.67
-0.82
3.39
6.61
8.72
9.83
10.16
10.00
9.62
9.24
9.04
9.14
9.59
10.38
11.39
12.40
13.23
13.75
13.92
13.74
13.30
12.61
11.69
10.58
9.22
7.64
5.84
3.83
1.63
-0.69
-3.11
-5.62
-8.25
-11.11
-14.24
-17.58
-20.86
-23.66
-25.48
-25.92
-24.71
-21.90
-17.80
-12.95
-7.97
-3.43
0.33
3.25
5.47
7.26
8.82
10.25
11.55
12.72
13.80
14.89
16.10
17.47
18.85
19.99
20.61
20.48
19.52
17.79
15.52
12.99
10.57
8.50
6.92
5.81
5.00
4.31
3.58
2.73
1.73
0.57
-0.87
-2.73
-5.19
-8.36
-12.18
-16.36
-20.48
-24.03
-26.55
-27.72
-27.37
-25.49
-22.27
-18.02
-13.12
-8.05
-3.24
0.96
4.37
6.94
8.75
9.94
10.59
10.77
10.58
10.18
9.75
9.50
9.54
9.86
10.34
10.76
10.96
10.86
10.45
9.87
9.25
8.71
8.25
7.82
7.23
6.34
5.00
3.18
1.03
-1.26
-3.45
-5.36
-6.97
-8.41
-9.89
-11.63
-13.72
-16.02
-18.26
-20.01
-20.93
-20.68
-19.12
-16.27
-12.34
-7.84
-3.37
0.37
2.88
4.01
3.92
3.04
1.86
0.79
0.10
0.01
0.63
2.04
4.16
6.70
9.15
11.05
12.03
12.06
11.37
10.28
9.06
7.84
6.61
5.29
3.82
2.22
0.56
-1.00
-2.35
-3.44
-4.29
-4.99
-5.70
-6.62
-7.93
-9.74
-12.05
-14.61
-17.02
-18.71
-19.12
-17.86
-14.81
-10.19
-4.47
1.76
7.92
13.49
18.03
21.18
22.74
22.67
21.22
18.91
16.43
14.37
13.10
12.61
12.55
12.56
12.33
11.79
11.04
10.23
9.35
8.33
7.02
5.31
3.18
0.68
-2.12
-5.20
-8.48
-11.89
-15.28
-18.50
-21.44
-24.10
-26.57
-28.98
-31.41
-33.84
-36.10
-37.86
-38.69
-38.18
-36.04
-32.24
-27.12
-21.33
-15.62
-10.66
-6.79
-4.08
-2.36
-1.39
-1.01
-1.14
-1.67
-2.41
-3.04
-3.21
-2.67
-1.42
0.32
2.16
3.73
4.76
5.19
5.13
4.69
4.01
3.17
2.20
1.12
-0.06
-1.33
-2.74
-4.45
-6.63
-9.42
-12.87
-16.80
-20.79
-24.21
-26.39
-26.73
-24.97
-21.21
-15.95
-9.92
-3.87
1.61
6.13
9.53
11.82
13.09
13.49
13.21
12.41
11.27
9.93
8.57
7.32
6.32
5.63
5.20
4.90
4.51
3.85
2.82
1.42
-0.25
-2.04
-3.84
-5.59
-7.27
-8.97
-10.77
-12.76
-15.09
-17.81
-20.90
-24.19
-27.32
-29.76
-30.91
-30.25
-27.56
-22.98
-17.03
-10.52
-4.24
1.18
5.47
8.67
11.01
12.73
14.00
14.90
15.45
15.71
15.78
15.78
15.83
16.01
16.27
16.54
16.71
16.64
16.25
15.50
14.40
12.94
11.12
8.96
6.46
3.69
0.73
-2.29
-5.29
-8.25
-11.18
-14.10
-16.94
-19.50
-21.40
-22.20
-21.55
-19.29
-15.62
-10.98
-5.96
-1.16
3.02
6.40
8.89
10.54
11.40
11.55
11.17
10.52
9.88
9.54
9.69
10.38
11.57
13.18
15.04
16.94
18.67
20.00
20.84
21.16
21.04
20.53
19.56
17.94
15.49
12.16
8.18
3.92
-0.18
-3.89
-7.25
-10.54
-14.13
-18.22
-22.79
-27.57
-32.08
-35.75
-37.95
-38.10
-35.80
-30.92
-23.79
-15.22
-6.30
1.86
8.42
13.05
15.84
17.20
17.56
17.28
16.56
15.58
14.58
13.81
13.54
13.86
14.67
15.70
16.60
17.16
17.28
17.03
16.54
15.86
14.99
13.87
12.45
10.79
8.98
7.18
5.51
4.02
2.69
1.43
0.08
-1.54
-3.55
-6.10
-9.23
-12.85
-16.78
-20.62
-23.88
-25.97
-26.44
-25.05
-21.96
-17.63
-12.69
-7.76
-3.21
0.83
4.39
7.55
10.37
12.83
14.91
16.73
18.51
20.54
23.07
26.14
29.53
32.79
35.41
36.95
37.23
36.32
34.52
32.15
29.48
26.62
23.51
20.03
16.05
11.60
6.81
2.00
-2.48
-6.32
-9.36
-11.65
-13.37
-14.88
-16.50
-18.53
-21.12
-24.20
-27.47
-30.35
-32.15
-32.21
-30.10
-25.82
-19.81
-12.84
-5.80
0.51
5.58
9.27
11.67
13.05
13.72
13.93
13.87
13.72
13.68
13.93
14.65
15.88
17.53
19.35
21.00
22.19
22.81
22.92
22.66
22.20
21.59
20.74
19.50
17.74
15.44
12.73
9.86
7.04
4.39
1.90
-0.55
-3.12
-5.92
-9.02
-12.45
-16.22
-20.28
-24.43
-28.22
-30.99
-31.99
-30.66
-26.85
-20.91
-13.64
-6.02
1.04
6.89
11.20
13.89
15.05
14.89
13.73
11.96
10.11
8.70
8.17
8.69
10.11
12.02
13.93
15.39
16.18
16.24
15.67
14.62
13.30
11.90
10.57
9.44
8.50
7.56
6.42
4.82
2.68
0.06
-2.78
-5.57
-8.09
-10.27
-12.23
-14.22
-16.49
-19.18
-22.17
-24.97
-26.86
-27.13
-25.34
-21.50
-16.02
-9.65
-3.20
2.60
7.18
10.13
11.33
10.95
9.51
7.73
6.29
5.74
6.20
7.50
9.27
11.18
12.88
14.19
14.92
14.93
14.18
12.75
10.86
8.74
6.58
4.38
2.00
-0.65
-3.55
-6.40
-8.77
-10.27
-10.71
-10.29
-9.54
-9.13
-9.66
-11.49
-14.62
-18.62
-22.83
-26.35
-28.38
-28.31
-25.90
-21.37
-15.36
-8.68
-2.22
3.37
7.72
10.66
12.26
12.68
12.15
11.01
9.66
8.52
7.93
8.05
8.78
9.76
10.61
11.02
10.88
10.31
9.47
8.48
7.36
6.01
4.40
2.58
0.62
-1.37
-3.33
-5.29
-7.27
-9.20
-10.97
-12.50
-13.84
-15.25
-17.04
-19.37
-22.05
-24.52
-25.95
-25.63
-23.17
-18.73
-12.93
-6.59
-0.54
4.62
8.58
11.29
12.78
13.12
12.39
10.79
8.66
6.47
4.73
3.84
3.95
4.96
6.53
8.28
9.91
11.19
12.05
12.48
12.49
12.07
11.26
10.05
8.45
6.50
4.20
1.58
-1.38
-4.76
-8.66
-13.07
-17.74
-22.14
-25.51
-27.13
-26.59
-23.88
-19.52
-14.26
-8.86
-3.93
0.20
3.42
5.67
7.05
7.65
7.62
7.15
6.42
5.65
4.99
4.65
4.74
5.29
6.18
7.17
7.95
8.31
8.16
7.56
6.55
5.19
3.48
1.41
-0.89
-3.23
-5.42
-7.44
-9.47
-11.81
-14.66
-17.89
-20.91
-22.89
-23.00
-20.78
-16.28
-10.03
-2.88
4.32
10.86
16.25
20.21
22.64
23.64
23.48
22.55
21.34
20.38
20.15
21.10
23.61
27.86
33.75
40.74
47.92
54.14
58.31
59.55
57.47
52.06
43.67
32.99
20.88
8.33
-3.75
-14.72
-24.24
-32.27
-38.91
-44.13
-47.72
-49.31
-48.56
-45.42
-40.22
-33.67
-26.64
-19.98
-14.31
-9.93
-6.86
-4.94
-3.92
-3.56
-3.59
-3.77
-3.86
-3.70
-3.17
-2.29
-1.19
0.11
1.58
3.30
5.34
7.66
10.10
12.28
13.83
14.41
13.89
12.32
9.90
6.90
3.52
-0.13
-3.97
-7.99
-12.16
-16.44
-20.70
-24.67
-27.93
-29.90
-30.01
-27.85
-23.37
-16.95
-9.37
-1.55
5.65
11.64
16.15
19.15
20.71
20.98
20.11
18.43
16.44
14.73
13.91
14.35
16.06
18.57
21.10
22.82
23.08
21.63
18.61
14.44
9.63
4.68
-0.05
-4.28
-7.84
-10.63
-12.71
-14.29
-15.68
-17.19
-18.91
-20.69
-22.23
-23.22
-23.52
-23.15
-22.26
-20.91
-19.09
-16.70
-13.71
-10.28
-6.80
-3.79
-1.67
-0.66
-0.60
-1.07
-1.50
-1.41
-0.52
1.16
3.41
5.90
8.43
10.95
13.62
16.68
20.24
24.28
28.53
32.64
36.18
38.75
40.06
39.85
38.08
34.99
31.14
27.29
24.26
22.54
22.09
22.43
22.78
22.50
21.30
19.33
16.94
14.52
12.20
9.82
7.07
3.69
-0.34
-4.80
-9.28
-13.28
-16.42
-18.41
-19.17
-18.75
-17.42
-15.69
-14.25
-13.82
-14.82
-17.08
-19.71
-21.38
-20.84
-17.51
-11.76
-4.81
1.90
7.24
10.81
12.82
13.76
14.03
13.83
13.24
12.52
12.12
12.56
14.03
16.15
17.89
17.96
15.27
9.45
0.96
-9.00
-18.93
-27.45
-33.67
-37.22
-38.17
-36.86
-33.63
-28.75
-22.40
-14.81
-6.45
1.88
9.03
13.78
15.07
12.41
5.93
-3.52
-14.62
-25.90
-36.03
-44.23
-50.36
-54.98
-59.00
-63.37
-68.69
-75.05
-82.20
-89.80
-97.83
-106.60
-116.70
-128.60
-142.37
-157.62
-173.52
-188.97
-202.60
-212.86
-218.07
-216.73
-207.92
-191.68
-169.22
-142.49
-113.76
-84.81
-56.71
-29.86
-4.45
19.27
40.73
59.22
74.29
85.92
94.50
100.63
104.84
107.38
108.29
107.62
105.64
102.90
100.10
97.94
96.81
96.77
97.49
98.45
99.03
98.77
97.42
94.91
91.31
86.78
81.46
75.53
69.13
62.39
55.47
48.53
41.68
34.97
28.34
21.62
14.56
7.02
-0.86
-8.53
-15.17
-19.87
-21.99
-21.53
-19.04
-15.49
-11.81
-8.61
-6.04
-3.93
-2.03
-0.28
1.22
2.34
3.08
3.73
4.75
6.57
9.33
12.90
16.83
20.60
23.88
26.49
28.44
29.75
30.35
30.05
28.69
26.17
22.67
18.62
14.59
11.11
8.50
6.83
5.94
5.58
5.42
5.09
4.11
2.00
-1.65
-6.89
-13.30
-19.94
-25.55
-28.99
-29.47
-26.84
-21.59
-14.56
-6.73
0.99
7.86
13.29
16.77
17.95
16.73
13.43
8.86
4.22
0.74
-0.62
0.51
3.84
8.61
13.89
18.88
22.98
25.95
27.68
28.16
27.41
25.49
22.49
18.67
14.36
10.03
6.19
3.28
1.58
1.13
1.71
2.86
4.02
4.61
4.13
2.21
-1.25
-6.10
-11.84
-17.67
-22.60
-25.65
-26.16
-23.85
-18.91
-11.90
-3.55
5.43
14.36
22.61
29.57
34.62
37.24
37.19
34.63
30.19
24.81
19.58
15.43
12.98
12.37
13.44
15.84
19.15
23.02
27.09
30.92
33.97
35.61
35.20
32.31
26.83
19.14
10.05
0.67
-7.89
-14.83
-19.81
-22.97
-24.70
-25.42
-25.39
-24.73
-23.55
-22.12
-20.87
-20.24
-20.50
-21.59
-23.11
-24.57
-25.49
-25.66
-25.07
-23.76
-21.74
-18.90
-15.10
-10.22
-4.29
2.43
9.48
16.28
22.20
26.67
29.25
29.71
28.05
24.57
19.84
14.62
9.70
5.71
3.01
1.67
1.54
2.36
3.88
5.84
7.95
9.87
11.20
11.52
10.55
8.18
4.54
-0.12
-5.44
-11.07
-16.67
-22.02
-26.92
-31.24
-34.79
-37.24
-38.08
-36.64
-32.36
-25.03
-15.08
-3.65
7.66
17.15
23.50
26.12
25.28
21.88
17.21
12.47
8.61
6.13
5.22
5.85
7.94
11.40
16.06
21.55
27.16
31.94
34.86
35.22
32.84
28.20
22.24
16.04
10.53
6.18
3.06
0.94
-0.49
-1.49
-2.14
-2.39
-2.18
-1.52
-0.57
0.33
0.68
-0.03
-2.27
-6.32
-12.13
-19.32
-27.15
-34.65
-40.80
-44.68
-45.64
-43.38
-37.92
-29.68
-19.37
-8.02
3.13
12.88
20.24
24.62
25.97
24.74
21.71
17.80
13.92
10.70
8.56
7.66
8.05
9.72
12.68
16.84
21.93
27.41
32.51
36.39
38.32
37.93
35.18
30.35
23.92
16.46
8.65
1.16
-5.36
-10.43
-13.76
-15.39
-15.53
-14.51
-12.71
-10.52
-8.38
-6.86
-6.63
-8.33
-12.35
-18.56
-26.17
-33.84
-39.97
-43.18
-42.79
-38.95
-32.53
-24.69
-16.41
-8.27
-0.41
7.10
14.00
19.73
23.56
24.91
23.71
20.39
15.86
11.15
7.12
4.27
2.68
2.21
2.62
3.80
5.80
8.67
12.35
16.46
20.30
22.94
23.54
21.57
17.03
10.45
2.73
-5.05
-11.96
-17.42
-21.24
-23.64
-25.00
-25.69
-25.80
-25.17
-23.51
-20.63
-16.61
-11.95
-7.42
-3.81
-1.66
-1.08
-1.75
-3.02
-4.20
-4.76
-4.47
-3.42
-1.87
-0.06
1.95
4.24
6.99
10.24
13.81
17.19
19.74
20.94
20.52
18.59
15.59
12.10
8.66
5.66
3.28
1.48
0.17
-0.71
-1.15
-1.02
-0.24
1.01
2.32
3.02
2.51
0.48
-2.82
-6.60
-9.80
-11.44
-10.98
-8.38
-4.11
1.20
6.89
12.54
17.94
22.98
27.51
31.23
33.78
34.76
33.90
31.11
26.58
20.74
14.24
7.83
2.27
-1.89
-4.41
-5.37
-5.07
-3.83
-1.87
0.68
3.67
6.74
9.24
10.43
9.57
6.28
0.55
-7.16
-16.08
-25.15
-33.17
-38.95
-41.55
-40.54
-36.11
-29.04
-20.41
-11.30
-2.49
5.50
12.31
17.64
21.09
22.29
21.03
17.44
12.07
5.76
-0.50
-5.81
-9.57
-11.53
-11.79
-10.66
-8.50
-5.59
-2.10
1.80
5.83
9.52
12.23
13.32
12.27
8.90
3.42
-3.67
-11.61
-19.61
-26.91
-32.98
-37.40
-39.86
-40.13
-38.02
-33.49
-26.72
-18.27
-9.02
-0.05
7.60
13.14
16.08
16.33
14.12
10.06
5.09
0.38
-2.99
-4.27
-3.28
-0.43
3.59
8.07
12.60
16.98
21.07
24.59
27.07
28.01
27.08
24.26
19.77
13.96
7.26
0.08
-7.10
-13.80
-19.62
-24.37
-28.10
-31.03
-33.36
-35.04
-35.77
-35.10
-32.65
-28.33
-22.48
-15.80
-9.19
-3.47
0.80
3.48
4.84
5.37
5.58
5.81
6.14
6.51
6.87
7.29
7.97
9.13
10.80
12.78
14.62
15.80
15.90
14.78
12.58
9.67
6.53
3.64
1.36
-0.13
-0.82
-0.91
-0.66
-0.38
-0.25
-0.37
-0.73
-1.31
-2.21
-3.68
-6.09
-9.78
-14.89
-21.14
-27.84
-33.90
-38.11
-39.52
-37.75
-33.11
-26.43
-18.80
-11.11
-3.91
2.65
8.56
13.70
17.82
20.53
21.58
20.87
18.58
15.03
10.66
5.94
1.39
-2.44
-5.12
-6.38
-6.29
-5.16
-3.44
-1.50
0.41
2.16
3.67
4.76
5.19
4.70
3.14
0.52
-3.02
-7.20
-11.73
-16.31
-20.67
-24.50
-27.47
-29.22
-29.35
-27.59
-23.77
-18.06
-10.88
-2.91
5.05
12.17
17.80
21.47
22.98
22.44
20.22
16.92
13.28
10.02
7.71
6.70
7.03
8.53
10.91
13.85
17.09
20.40
23.53
26.14
27.81
28.06
26.51
23.01
17.70
11.06
3.86
-3.06
-8.89
-13.12
-15.64
-16.75
-16.97
-16.83
-16.54
-15.90
-14.50
-11.98
-8.31
-3.97
0.30
3.66
5.59
5.97
5.07
3.35
1.33
-0.55
-1.96
-2.60
-2.17
-0.47
2.59
6.81
11.78
16.82
21.21
24.30
25.64
25.03
22.45
18.09
12.27
5.59
-1.18
-7.13
-11.54
-14.05
-14.78
-14.21
-12.93
-11.38
-9.77
-8.20
-6.79
-5.89
-5.94
-7.31
-10.11
-14.05
-18.44
-22.45
-25.28
-26.36
-25.47
-22.71
-18.44
-13.17
-7.36
-1.35
4.65
10.51
16.04
20.90
24.65
26.79
26.94
24.98
21.05
15.57
9.27
3.02
-2.24
-5.72
-7.05
-6.32
-4.07
-1.07
2.04
4.87
7.33
9.48
11.31
12.55
12.73
11.32
7.89
2.25
-5.36
-14.37
-23.79
-32.39
-38.84
-42.05
-41.47
-37.17
-29.86
-20.58
-10.47
-0.47
8.66
16.40
22.31
26.03
27.33
26.15
22.71
17.55
11.45
5.37
0.26
-3.11
-4.34
-3.53
-1.12
2.21
5.87
9.50
12.92
16.00
18.45
19.82
19.52
17.13
12.58
6.17
-1.41
-9.27
-16.57
-22.64
-27.07
-29.78
-30.98
-31.09
-30.58
-29.84
-29.01
-28.00
-26.60
-24.64
-22.11
-19.33
-16.73
-14.73
-13.49
-12.87
-12.48
-11.85
-10.64
-8.71
-6.14
-3.13
0.18
3.66
7.27
10.95
14.55
17.78
20.25
21.51
21.19
19.17
15.63
11.09
6.28
1.98
-1.24
-3.13
-3.85
-3.76
-3.26
-2.64
-1.93
-1.03
0.14
1.46
2.64
3.24
2.81
1.01
-2.24
-6.84
-12.43
-18.50
-24.31
-29.08
-32.07
-32.78
-30.99
-26.87
-20.89
-13.64
-5.81
1.96
9.06
14.95
19.20
21.47
21.64
19.87
16.63
12.70
8.98
6.35
5.40
6.26
8.67
12.11
16.01
20.02
23.98
27.82
31.43
34.51
36.60
37.18
35.84
32.43
27.05
20.14
12.36
4.55
-2.47
-7.98
-11.54
-13.07
-12.83
-11.36
-9.22
-6.93
-4.78
-2.85
-1.09
0.59
2.08
3.11
3.30
2.35
0.31
-2.38
-4.96
-6.61
-6.74
-5.20
-2.27
1.60
5.90
10.29
14.57
18.49
21.72
23.77
24.10
22.33
18.44
12.86
6.46
0.26
-4.84
-8.25
-9.88
-9.94
-8.81
-6.80
-4.14
-1.04
2.18
4.96
6.61
6.50
4.23
-0.26
-6.64
-14.28
-22.35
-29.86
-35.77
-39.18
-39.55
-36.79
-31.29
-23.77
-15.01
-5.74
3.39
11.72
18.50
23.02
24.74
23.49
19.65
13.96
7.43
1.05
-4.35
-8.20
-10.17
-10.21
-8.45
-5.22
-0.95
3.87
8.71
12.98
16.06
17.32
16.26
12.63
6.66
-0.95
-9.12
-16.67
-22.63
-26.51
-28.31
-28.39
-27.25
-25.23
-22.56
-19.36
-15.81
-12.22
-9.04
-6.69
-5.49
-5.54
-6.70
-8.62
-10.80
-12.70
-13.84
-13.93
-12.95
-11.12
-8.71
-5.92
-2.84
0.54
4.09
7.45
10.02
11.10
10.25
7.50
3.35
-1.37
-5.79
-9.30
-11.63
-12.87
-13.26
-13.03
-12.29
-11.07
-9.34
-7.21
-4.97
-3.07
-2.11
-2.62
-5.00
-9.23
-14.89
-21.16
-26.99
-31.37
-33.58
-33.32
-30.68
-26.05
-19.95
-12.90
-5.40
1.99
8.66
13.99
17.46
18.85
18.27
16.16
13.26
10.38
8.28
7.47
8.15
10.20
13.32
17.12
21.28
25.53
29.62
33.21
35.85
37.03
36.30
33.43
28.49
21.92
14.41
6.85
0.15
-4.99
-8.17
-9.43
-9.21
-8.13
-6.77
-5.48
-4.28
-2.94
-1.28
0.72
2.82
4.56
5.47
5.27
4.00
2.04
0.04
-1.30
-1.48
-0.34
1.97
5.11
8.74
12.64
16.73
20.85
24.70
27.74
29.36
29.03
26.54
22.03
15.99
9.10
2.15
-4.10
-9.00
-12.12
-13.36
-12.86
-10.99
-8.15
-4.80
-1.41
1.48
3.21
3.13
0.79
-3.94
-10.76
-18.95
-27.44
-35.00
-40.43
-42.75
-41.53
-36.92
-29.67
-20.80
-11.33
-2.00
6.76
14.70
21.50
26.70
29.68
29.99
27.50
22.61
16.12
9.13
2.73
-2.19
-5.13
-5.94
-4.83
-2.17
1.62
6.08
10.77
15.22
18.88
21.15
21.45
19.43
15.00
8.44
0.40
-8.22
-16.46
-23.44
-28.56
-31.60
-32.68
-32.13
-30.36
-27.68
-24.24
-20.10
-15.31
-10.09
-4.85
-0.17
3.36
5.27
5.42
4.07
1.80
-0.59
-2.33
-2.86
-1.96
0.31
3.71
7.98
12.85
18.03
23.09
27.43
30.36
31.30
29.88
26.13
20.42
13.44
6.08
-0.74
-6.17
-9.62
-10.85
-10.06
-7.74
-4.55
-1.04
2.34
5.33
7.61
8.85
8.59
6.43
2.14
-4.24
-12.32
-21.39
-30.43
-38.30
-43.90
-46.44
-45.50
-41.21
-34.05
-24.79
-14.26
-3.41
6.85
15.58
21.96
25.45
25.83
23.28
18.38
11.92
4.88
-1.78
-7.26
-11.02
-12.87
-12.94
-11.61
-9.28
-6.27
-2.83
0.87
4.65
8.23
11.24
13.31
14.11
13.46
11.37
8.09
4.06
-0.14
-3.90
-6.73
-8.38
-8.87
-8.49
-7.60
-6.57
-5.74
-5.40
-5.83
-7.33
-10.04
-13.87
-18.37
-22.78
-26.21
-27.89
-27.40
-24.78
-20.41
-14.90
-8.87
-2.81
3.03
8.56
13.78
18.66
23.02
26.54
28.85
29.59
28.57
25.81
21.67
16.72
11.74
7.55
4.81
3.87
4.72
7.03
10.34
14.16
18.13
21.94
25.29
27.87
29.34
29.42
27.92
24.80
20.13
14.14
7.27
0.13
-6.53
-12.00
-15.71
-17.45
-17.29
-15.51
-12.49
-8.57
-4.09
0.63
5.17
9.00
11.55
12.36
11.20
8.24
4.03
-0.55
-4.53
-7.13
-7.92
-6.85
-4.18
-0.23
4.64
10.15
15.96
21.63
26.61
30.26
32.09
31.80
29.37
24.96
18.90
11.61
3.64
-4.33
-11.52
-17.28
-21.17
-23.14
-23.51
-22.79
-21.51
-20.07
-18.72
-17.67
-17.17
-17.48
-18.84
-21.19
-24.18
-27.19
-29.41
-30.14
-28.91
-25.59
-20.40
-13.82
-6.49
0.98
8.14
14.69
20.48
25.36
29.11
31.48
32.22
31.26
28.72
24.87
20.05
14.55
8.65
2.71
-2.77
-7.22
-10.14
-11.29
-10.79
-9.02
-6.53
-3.84
-1.37
0.55
1.62
1.55
0.12
-2.70
-6.70
-11.37
-16.04
-20.04
-22.88
-24.33
-24.50
-23.63
-21.90
-19.36
-15.90
-11.44
-6.13
-0.49
4.68
8.48
10.24
9.76
7.33
3.66
-0.37
-3.89
-6.29
-7.19
-6.51
-4.42
-1.20
2.82
7.32
12.03
16.59
20.60
23.53
24.87
24.23
21.49
16.92
11.15
5.04
-0.49
-4.76
-7.39
-8.43
-8.14
-6.90
-5.01
-2.72
-0.27
1.92
3.26
3.03
0.71
-3.90
-10.56
-18.59
-27.09
-35.03
-41.51
-45.80
-47.49
-46.53
-43.19
-37.99
-31.51
-24.31
-16.78
-9.31
-2.33
3.66
8.06
10.34
10.26
7.99
4.10
-0.52
-4.90
-8.25
-10.07
-10.28
-9.04
-6.70
-3.60
0.02
3.96
8.07
12.04
15.47
17.81
18.60
17.53
14.63
10.24
4.92
-0.67
-5.95
-10.44
-13.85
-16.05
-17.04
-16.95
-16.02
-14.59
-13.03
-11.70
-10.84
-10.56
-10.78
-11.31
-11.91
-12.32
-12.33
-11.73
-10.40
-8.29
-5.49
-2.25
1.11
4.32
7.26
9.97
12.65
15.44
18.31
20.95
22.87
23.60
22.82
20.56
17.20
13.44
10.04
7.70
6.76
7.23
8.76
10.86
13.11
15.27
17.26
19.04
20.47
21.22
20.84
18.86
15.00
9.24
1.88
-6.39
-14.63
-21.67
-26.37
-27.87
-25.83
-20.57
-12.97
-4.20
4.58
12.50
19.01
23.88
26.91
27.98
26.95
23.80
18.73
12.31
5.40
-0.92
-5.60
-7.96
-7.75
-5.27
-1.18
3.77
8.95
13.93
18.44
22.19
24.75
25.67
24.50
21.09
15.62
8.59
0.70
-7.28
-14.66
-20.90
-25.63
-28.74
-30.25
-30.30
-29.01
-26.41
-22.47
-17.27
-11.10
-4.58
1.44
6.06
8.61
8.81
6.85
3.33
-0.90
-4.93
-7.92
-9.30
-8.77
-6.35
-2.32
2.91
8.83
14.90
20.59
25.34
28.63
30.09
29.51
26.92
22.48
16.45
9.18
1.20
-6.80
-13.94
-19.38
-22.52
-23.21
-21.73
-18.71
-14.86
-10.84
-7.19
-4.34
-2.59
-2.13
-2.95
-4.83
-7.36
-10.07
-12.55
-14.50
-15.73
-16.10
-15.56
-14.11
-11.82
-8.85
-5.41
-1.72
2.02
5.57
8.72
11.23
12.88
13.53
13.09
11.56
9.05
5.77
2.07
-1.47
-4.22
-5.59
-5.30
-3.44
-0.44
3.10
6.67
9.99
12.96
15.44
17.18
17.68
16.46
13.22
8.01
1.27
-6.33
-14.12
-21.45
-27.81
-32.70
-35.61
-36.15
-34.06
-29.44
-22.77
-14.82
-6.60
0.87
6.73
10.39
11.67
10.71
7.97
4.07
-0.28
-4.37
-7.55
-9.25
-9.13
-7.14
-3.60
0.85
5.42
9.37
12.17
13.55
13.46
11.98
9.26
5.53
1.15
-3.40
-7.52
-10.66
-12.41
-12.60
-11.39
-9.12
-6.30
-3.43
-0.99
0.61
1.03
-0.01
-2.68
-6.90
-12.27
-17.95
-22.87
-25.94
-26.44
-24.21
-19.71
-13.80
-7.34
-0.96
5.05
10.61
15.68
20.03
23.27
24.99
24.91
23.08
19.90
16.01
12.12
8.91
6.84
6.15
6.84
8.76
11.68
15.34
19.41
23.49
27.06
29.50
30.23
28.85
25.23
19.60
12.44
4.42
-3.74
-11.38
-17.93
-22.96
-26.26
-27.82
-27.71
-26.09
-23.05
-18.63
-12.95
-6.27
0.89
7.76
13.52
17.45
19.16
18.67
16.43
13.20
9.86
7.26
6.01
6.43
8.50
11.96
16.37
21.22
25.95
29.97
32.71
33.63
32.37
28.82
23.22
16.12
8.35
0.82
-5.65
-10.48
-13.44
-14.56
-14.06
-12.22
-9.35
-5.80
-2.04
1.33
3.61
4.17
2.61
-1.14
-6.77
-13.63
-20.80
-27.23
-31.92
-34.13
-33.53
-30.31
-25.05
-18.57
-11.64
-4.83
1.49
7.09
11.71
15.05
16.78
16.67
14.74
11.28
6.87
2.26
-1.78
-4.60
-5.79
-5.30
-3.33
-0.25
3.59
7.94
12.54
17.07
21.02
23.73
24.54
22.97
18.90
12.60
4.68
-4.02
-12.54
-19.96
-25.56
-28.99
-30.34
-30.12
-28.98
-27.40
-25.50
-23.06
-19.79
-15.60
-10.79
-6.05
-2.17
0.16
0.66
-0.60
-3.13
-6.21
-9.06
-11.01
-11.66
-10.93
-8.99
-6.15
-2.68
1.18
5.21
9.12
12.51
14.87
15.80
15.08
12.76
9.10
4.54
-0.43
-5.32
-9.66
-13.12
-15.51
-16.87
-17.38
-17.26
-16.71
-15.81
-14.59
-13.12
-11.55
-10.13
-9.16
-8.86
-9.38
-10.72
-12.77
-15.23
-17.67
-19.50
-20.13
-19.11
-16.23
-11.65
-5.79
0.70
7.05
12.54
16.53
18.57
18.44
16.18
12.20
7.19
2.09
-2.08
-4.53
-4.88
-3.28
-0.33
3.29
7.02
10.67
14.31
18.12
22.08
25.89
29.00
30.83
30.96
29.22
25.70
20.75
14.89
8.80
3.26
-1.07
-3.72
-4.56
-3.81
-1.98
0.27
2.32
3.66
3.98
3.20
1.49
-0.85
-3.33
-5.47
-6.75
-6.77
-5.31
-2.41
1.67
6.48
11.48
16.19
20.23
23.37
25.44
26.31
25.82
23.84
20.31
15.43
9.61
3.49
-2.13
-6.45
-8.90
-9.25
-7.68
-4.77
-1.29
2.00
4.56
6.15
6.83
6.80
6.28
5.35
3.97
2.10
-0.21
-2.73
-5.09
-6.85
-7.73
-7.62
-6.54
-4.65
-2.05
1.20
5.00
9.15
13.23
16.67
18.86
19.34
17.90
14.71
10.24
5.27
0.63
-2.83
-4.49
-4.04
-1.50
2.80
8.30
14.31
20.08
24.90
28.11
29.26
28.10
24.66
19.21
12.19
4.24
-3.89
-11.33
-17.28
-21.16
-22.82
-22.51
-20.85
-18.50
-15.93
-13.34
-10.77
-8.31
-6.20
-4.96
-5.11
-7.00
-10.64
-15.63
-21.27
-26.64
-30.80
-32.91
-32.50
-29.53
-24.47
-18.13
-11.36
-4.85
1.04
6.19
10.59
14.15
16.69
17.93
17.67
15.87
12.67
8.45
3.79
-0.62
-4.08
-6.06
-6.35
-5.17
-2.99
-0.36
2.30
4.79
7.04
9.01
10.46
11.04
10.37
8.14
4.23
-1.24
-7.92
-15.33
-22.81
-29.66
-35.30
-39.31
-41.53
-42.03
-40.99
-38.66
-35.26
-31.02
-26.28
-21.43
-16.97
-13.35
-10.89
-9.66
-9.46
-9.93
-10.58
-11.05
-11.09
-10.65
-9.76
-8.46
-6.71
-4.41
-1.45
2.11
6.02
9.87
13.14
15.43
16.49
16.31
15.09
13.16
10.98
8.97
7.53
6.95
7.32
8.53
10.29
12.27
14.20
16.05
17.96
20.11
22.59
25.22
27.67
29.56
30.64
30.93
30.62
29.99
29.22
28.40
27.69
27.29
27.54
28.68
30.70
33.22
35.57
37.05
37.17
35.82
33.20
29.66
25.33
20.16
13.92
6.52
-1.74
-10.11
-17.50
-22.93
-25.89
-26.55
-25.71
-24.32
-23.15
-22.38
-21.73
-20.67
-18.82
-16.17
-13.09
-10.13
-7.72
-6.09
-5.20
-4.79
-4.55
-4.19
-3.51
-2.38
-0.64
1.89
5.41
10.03
15.69
22.00
28.30
33.67
37.18
37.96
35.40
29.16
19.26
6.27
-8.60
-23.55
-36.60
-46.17
-51.64
-53.60
-53.50
-52.94
-52.90
-53.47
-53.95
-53.44
-51.45
-48.12
-44.03
-39.89
-36.20
-33.13
-30.73
-28.94
-27.67
-26.80
-26.10
-25.27
-24.09
-22.53
-20.72
-18.84
-16.94
-14.87
-12.30
-8.94
-4.74
0.09
5.04
9.51
13.05
15.45
16.78
17.31
17.31
16.99
16.43
15.71
14.94
14.29
13.95
14.03
14.46
15.01
15.36
15.22
14.40
12.83
10.60
7.82
4.74
1.54
-1.54
-4.33
-6.64
-8.31
-9.11
-8.77
-7.09
-3.96
0.41
5.59
10.92
15.86
20.12
23.84
27.61
32.27
38.59
46.97
57.18
68.36
79.20
88.36
94.86
98.40
99.39
98.71
97.29
95.83
94.40
92.51
89.29
83.86
75.71
64.94
52.29
39.06
26.80
17.02
10.83
8.68
10.14
13.90
18.10
20.93
21.30
19.18
15.40
11.01
6.31
0.49
-8.09
-20.97
-38.47
-59.09
-79.94
-97.86
-110.69
-118.03
-121.10
-121.72
-121.36
-120.45
-118.59
-115.09
-109.70
-102.93
-95.79
-89.33
-84.13
-80.13
-76.88
-73.89
-71.03
-68.52
-66.80
-66.15
-66.43
-67.02
-67.01
-65.57
-62.25
-57.14
-50.88
-44.36
-38.39
-33.52
-29.88
-27.22
-25.05
-22.86
-20.35
-17.52
-14.69
-12.35
-10.95
-10.70
-11.52
-13.11
-15.02
-16.87
-18.26
-18.88
-18.41
-16.67
-13.66
-9.59
-4.87
-0.03
4.49
8.36
11.42
13.64
15.12
16.05
16.68
17.25
17.88
18.57
19.16
19.44
19.25
18.61
17.71
16.88
16.42
16.50
17.11
18.12
19.36
20.74
22.32
24.18
26.35
28.70
30.89
32.40
32.71
31.40
28.28
23.47
17.47
11.06
5.14
0.54
-2.19
-2.96
-2.11
-0.29
1.68
3.10
3.49
2.72
0.94
-1.46
-4.02
-6.42
-8.51
-10.41
-12.37
-14.67
-17.43
-20.53
-23.61
-26.13
-27.42
-26.93
-24.35
-19.82
-14.00
-7.92
-2.61
1.23
3.59
5.05
6.47
8.39
10.71
12.55
12.68
10.11
4.66
-2.81
-10.55
-16.40
-18.25
-14.53
-4.54
11.16
30.46
49.69
64.29
70.18
65.31
50.92
31.36
12.65
0.32
-2.50
4.20
18.10
35.88
54.69
72.64
88.55
101.41
110.19
114.11
113.15
108.44
101.94
95.89
92.03
91.06
92.49
94.80
95.83
93.32
85.43
71.42
51.97
29.15
5.89
-14.93
-31.31
-42.53
-48.86
-50.95
-49.29
-44.07
-35.54
-24.53
-12.61
-1.69
6.72
12.18
15.52
18.35
22.25
28.10
35.82
44.65
53.59
61.85
69.04
75.17
80.50
85.41
90.14
94.66
98.50
100.99
101.56
100.19
97.61
95.04
93.60
93.65
94.43
94.37
91.69
85.25
75.00
61.87
47.26
32.55
18.63
5.92
-5.52
-15.74
-24.86
-32.90
-39.74
-44.98
-47.97
-48.15
-45.61
-41.48
-37.86
-37.18
-41.16
-50.02
-62.32
-75.44
-86.58
-93.61
-95.51
-92.34
-84.97
-74.88
-63.94
-54.24
-47.65
-45.32
-47.33
-52.62
-59.41
-65.83
-70.42
-72.46
-72.06
-69.89
-66.99
-64.32
-62.49
-61.54
-61.02
-60.18
-58.44
-55.67
-52.27
-49.01
-46.59
-45.40
-45.44
-46.39
-47.82
-49.27
-50.15
-49.84
-47.73
-43.48
-37.23
-29.54
-21.21
-12.96
-5.24
1.76
7.88
12.80
15.99
17.02
15.76
12.67
8.62
4.60
1.35
-0.77
-1.75
-1.63
-0.33
2.41
6.82
12.83
19.89
27.10
33.36
37.75
39.76
39.25
36.43
31.75
25.79
19.21
12.79
7.22
2.96
-0.01
-2.35
-5.17
-9.69
-16.69
-26.04
-36.53
-46.10
-52.49
-53.99
-50.05
-41.46
-30.01
-17.85
-6.76
2.31
9.24
14.45
18.42
21.25
22.57
21.66
17.99
11.61
3.41
-5.08
-12.02
-15.94
-16.22
-13.30
-8.47
-3.44
0.29
1.89
1.33
-0.65
-2.86
-4.15
-3.71
-1.44
1.93
4.86
5.34
1.63
-6.96
-19.48
-33.37
-45.20
-51.97
-52.19
-46.42
-36.86
-26.28
-16.90
-9.66
-4.31
0.11
4.49
9.22
14.18
19.02
23.44
27.33
30.78
33.89
36.64
38.89
40.50
41.57
42.51
44.04
46.81
51.09
56.50
62.07
66.63
69.26
69.69
68.30
65.93
63.34
60.93
58.59
55.82
51.88
45.98
37.46
26.05
12.18
-2.77
-16.48
-26.28
-30.10
-27.36
-19.51
-9.62
-1.35
2.31
0.03
-7.77
-19.40
-32.82
-46.34
-58.87
-69.84
-78.78
-85.09
-87.97
-86.75
-81.35
-72.50
-61.80
-51.17
-42.26
-35.83
-31.62
-28.67
-25.95
-23.00
-20.01
-17.60
-16.28
-15.90
-15.56
-13.94
-9.93
-3.20
5.47
14.43
21.68
25.44
24.78
19.81
11.65
2.27
-5.86
-10.24
-8.96
-1.41
11.07
25.17
36.39
40.46
34.97
20.30
-0.53
-23.06
-43.15
-58.21
-67.61
-72.12
-72.95
-70.97
-66.68
-60.47
-53.10
-45.73
-39.60
-35.39
-32.92
-31.23
-29.05
-25.57
-20.82
-15.73
-11.59
-9.51
-9.83
-12.02
-14.97
-17.43
-18.57
-18.16
-16.54
-14.39
-12.40
-11.01
-10.30
-10.05
-9.81
-9.18
-7.89
-6.06
-4.14
-2.79
-2.69
-4.30
-7.74
-12.77
-18.89
-25.43
-31.63
-36.75
-40.08
-41.07
-39.47
-35.42
-29.43
-22.26
-14.73
-7.54
-1.16
4.12
8.21
11.20
13.34
14.98
16.52
18.24
20.26
22.50
24.70
26.51
27.61
27.75
26.84
24.96
22.32
19.15
15.60
11.71
7.50
3.07
-1.28
-5.09
-7.84
-9.24
-9.33
-8.57
-7.74
-7.62
-8.82
-11.55
-15.53
-20.03
-23.98
-26.22
-25.74
-21.95
-14.81
-4.92
6.55
18.02
27.84
34.58
37.45
36.49
32.44
26.53
19.98
13.72
8.28
3.88
0.58
-1.49
-2.22
-1.60
0.20
2.78
5.68
8.48
10.94
12.90
14.29
15.02
14.96
14.12
12.64
10.75
8.76
6.83
5.03
3.16
0.85
-2.33
-6.69
-12.20
-18.35
-24.23
-28.80
-31.33
-31.72
-30.49
-28.53
-26.57
-24.80
-22.82
-19.94
-15.66
-9.90
-3.06
4.27
11.61
18.68
25.44
31.85
37.79
42.97
47.06
49.74
50.81
50.30
48.46
45.71
42.57
39.42
36.34
33.17
29.68
25.79
21.81
18.34
15.98
14.93
14.86
14.96
14.43
12.85
10.47
8.11
6.83
7.47
10.38
15.40
21.94
29.16
36.14
42.05
46.23
48.28
48.23
46.53
43.90
41.16
38.92
37.30
35.95
34.11
30.93
25.78
18.53
9.49
-0.68
-11.22
-21.44
-30.89
-39.34
-46.74
-53.13
-58.54
-62.98
-66.39
-68.71
-69.92
-70.10
-69.36
-67.83
-65.52
-62.34
-58.27
-53.47
-48.39
-43.63
-39.70
-36.70
-34.19
-31.32
-27.14
-20.93
-12.42
-1.87
10.02
22.29
33.78
43.34
49.86
52.52
50.90
45.20
36.29
25.53
14.48
4.54
-3.39
-9.03
-12.57
-14.47
-15.16
-14.84
-13.55
-11.22
-7.79
-3.28
2.16
8.34
14.90
21.33
26.99
31.21
33.59
34.08
33.04
31.04
28.57
25.94
23.17
20.21
17.15
14.29
12.09
10.90
10.74
11.19
11.50
10.91
8.92
5.34
0.32
-5.75
-12.25
-18.32
-22.88
-24.94
-23.89
-19.86
-13.83
-7.28
-1.63
2.36
4.87
6.84
9.54
13.92
20.22
27.95
36.08
43.48
49.24
52.80
54.04
53.11
50.36
46.26
41.35
36.19
31.24
26.72
22.53
18.28
13.44
7.61
0.67
-7.13
-15.19
-22.77
-29.14
-33.69
-36.07
-36.23
-34.43
-31.17
-27.06
-22.64
-18.26
-14.08
-10.16
-6.64
-3.72
-1.75
-1.01
-1.69
-3.78
-7.06
-11.11
-15.33
-19.03
-21.42
-21.86
-20.01
-15.97
-10.35
-4.03
2.05
7.23
11.24
14.11
16.06
17.21
17.50
16.72
14.59
11.01
6.16
0.54
-5.16
-10.12
-13.63
-15.20
-14.65
-12.13
-8.11
-3.26
1.71
6.22
9.87
12.44
13.97
14.51
14.25
13.42
12.37
11.55
11.40
12.24
14.09
16.78
19.92
23.10
25.87
27.89
28.87
28.64
27.11
24.36
20.62
16.25
11.71
7.50
4.13
1.98
1.32
2.16
4.22
7.02
9.96
12.53
14.44
15.68
16.58
17.60
19.18
21.45
24.16
26.68
28.26
28.33
26.83
24.21
21.30
18.90
17.53
17.14
17.17
16.55
13.97
8.17
-1.66
-15.55
-32.58
-51.13
-69.23
-85.17
-97.94
-107.22
-113.20
-116.27
-116.88
-115.65
-113.45
-111.37
-110.47
-111.34
-113.92
-117.55
-121.11
-123.33
-122.92
-118.71
-109.86
-96.14
-78.12
-57.20
-35.25
-13.97
5.66
23.55
40.41
57.15
74.41
92.31
110.41
127.91
143.96
157.80
168.93
177.27
183.11
187.04
189.79
192.03
194.13
196.16
197.98
199.43
200.46
201.17
201.66
201.78
200.92
198.09
192.24
182.67
169.46
153.51
136.26
119.20
103.33
88.93
75.45
61.76
46.35
27.71
4.61
-23.24
-54.64
-86.48
-114.17
-132.77
-138.80
-131.76
-114.76
-93.67
-75.30
-65.24
-66.42
-78.69
-99.41
-124.69
-150.42
-173.01
-189.76
-198.95
-199.88
-192.90
-179.27
-161.00
-140.49
-120.13
-101.83
-86.68
-74.80
-65.39
-57.26
-49.33
-41.13
-33.01
-25.86
-20.65
-17.90
-17.28
-17.77
-17.96
-16.69
-13.49
-8.82
-3.71
0.61
3.39
4.58
4.76
4.74
5.08
5.82
6.59
6.90
6.45
5.24
3.58
1.81
0.13
-1.42
-3.07
-5.23
-8.34
-12.82
-18.88
-26.34
-34.59
-42.77
-50.05
-55.94
-60.52
-64.29
-67.88
-71.69
-75.61
-79.14
-81.57
-82.43
-81.62
-79.44
-76.40
-73.07
-69.88
-67.28
-65.71
-65.58
-66.95
-69.21
-70.88
-69.89
-64.29
-52.97
-36.19
-15.39
7.47
30.70
53.37
75.18
95.92
114.99
131.24
143.32
150.27
151.99
149.20
143.12
134.95
125.41
114.73
102.76
89.36
74.60
58.95
43.16
28.09
14.36
2.17
-8.82
-19.38
-30.31
-42.00
-54.15
-65.71
-75.25
-81.55
-84.13
-83.52
-81.13
-78.76
-78.01
-79.84
-84.38
-90.92
-98.03
-103.62
-105.23
-100.68
-89.08
-71.56
-51.38
-32.91
-19.91
-13.86
-13.37
-14.96
-14.81
-10.54
-2.04
9.00
20.28
30.21
38.46
45.62
52.45
59.19
65.42
70.41
73.65
75.20
75.65
75.83
76.28
76.99
77.41
76.79
74.58
70.75
65.80
60.51
55.56
51.31
47.76
44.71
41.95
39.46
37.59
36.89
37.88
40.62
44.36
47.49
47.97
44.00
34.82
21.14
4.99
-10.94
-24.16
-33.12
-37.50
-37.97
-35.75
-32.04
-27.79
-23.57
-19.70
-16.40
-13.84
-12.07
-10.91
-9.94
-8.56
-6.24
-2.71
1.85
7.01
12.12
16.63
20.21
22.79
24.47
25.46
25.92
25.93
25.42
24.25
22.38
19.93
17.23
14.76
12.92
11.93
11.65
11.71
11.52
10.50
8.19
4.31
-1.11
-7.68
-14.70
-21.26
-26.55
-30.01
-31.61
-31.79
-31.40
-31.38
-32.52
-35.27
-39.60
-45.08
-51.04
-56.66
-61.23
-64.09
-64.76
-62.94
-58.58
-51.94
-43.62
-34.40
-25.13
-16.40
-8.48
-1.32
5.20
11.07
16.02
19.65
21.64
21.92
20.87
19.05
17.01
15.10
13.37
11.67
9.84
7.91
6.10
4.76
4.23
4.80
6.61
9.65
13.75
18.52
23.41
27.87
31.47
34.09
35.84
36.92
37.49
37.48
36.77
35.24
33.09
30.81
29.01
28.17
28.39
29.31
30.27
30.60
29.85
27.89
24.90
21.21
17.22
13.27
9.75
6.99
5.28
4.71
5.06
5.89
6.60
6.68
5.89
4.27
2.13
-0.13
-2.17
-3.86
-5.30
-6.70
-8.32
-10.16
-11.96
-13.18
-13.21
-11.63
-8.44
-4.05
0.80
5.42
9.28
12.22
14.27
15.59
16.29
16.36
15.74
14.53
13.03
11.82
11.60
12.89
15.76
19.73
23.92
27.30
29.15
29.22
27.75
25.26
22.24
18.94
15.30
11.09
6.07
0.26
-5.96
-11.90
-16.73
-19.79
-20.80
-19.91
-17.54
-14.14
-9.98
-5.19
0.17
5.84
11.26
15.61
18.02
17.82
14.80
9.40
2.62
-4.17
-9.54
-12.51
-12.70
-10.53
-6.91
-2.86
0.89
4.13
7.10
10.11
13.22
15.99
17.63
17.28
14.48
9.50
3.32
-2.68
-7.21
-9.50
-9.49
-7.71
-4.96
-1.98
0.76
3.06
4.85
6.13
6.87
7.19
7.34
7.81
9.19
11.95
16.18
21.51
27.10
32.09
36.01
39.10
42.40
47.20
54.43
63.94
74.18
82.53
85.69
80.50
64.63
37.51
1.22
-38.93
-74.78
-96.88
-96.92
-70.06
-16.29
59.37
147.97
238.40
319.36
381.28
417.91
427.55
413.23
381.78
341.82
301.31
265.70
237.34
216.29
201.35
191.03
183.75
177.65
170.63
160.74
146.81
128.89
108.08
85.98
63.94
42.36
20.75
-1.99
-26.93
-54.67
-84.99
-116.79
-148.17
-176.74
-200.14
-216.56
-225.34
-227.12
-223.53
-216.47
-207.32
-196.46
-183.33
-167.12
-147.50
-125.19
-101.92
-79.97
-61.35
-47.29
-37.98
-32.82
-30.92
-31.51
-34.31
-39.33
-46.57
-55.58
-65.21
-73.77
-79.46
-81.11
-78.55
-72.81
-65.62
-58.81
-53.68
-50.65
-49.40
-49.34
-50.14
-52.02
-55.64
-61.60
-69.88
-79.67
-89.46
-97.58
-102.78
-104.62
-103.46
-100.18
-95.71
-90.72
-85.61
-80.61
-76.00
-72.19
-69.61
-68.51
-68.85
-70.20
-71.88
-73.15
-73.40
-72.46
-70.65
-68.75
-67.73
-68.28
-70.49
-73.60
-76.25
-76.99
-74.99
-70.56
-65.13
-60.72
-59.02
-60.74
-65.10
-70.35
-74.37
-75.69
-74.05
-70.52
-67.26
-66.94
-72.20
-84.79
-104.66
-129.28
-153.47
-170.23
-172.53
-155.80
-119.99
-70.16
-15.07
35.66
74.75
99.34
110.88
113.23
110.16
103.52
93.04
77.60
56.85
32.26
6.88
-15.61
-32.16
-41.09
-42.02
-35.55
-22.90
-5.88
13.02
30.98
45.26
54.08
57.28
56.45
54.48
54.62
59.33
69.45
83.69
98.99
111.49
117.87
116.29
106.79
90.80
70.27
46.96
22.08
-3.42
-28.49
-51.85
-72.12
-88.35
-100.42
-108.93
-114.76
-118.58
-120.56
-120.42
-117.97
-113.34
-107.13
-100.15
-93.05
-85.93
-78.48
-70.10
-60.47
-49.86
-39.07
-29.29
-21.57
-16.39
-13.45
-11.72
-9.91
-6.99
-2.80
1.88
5.49
6.42
3.77
-2.00
-8.84
-13.52
-12.48
-3.01
15.77
42.18
72.15
100.08
120.31
128.87
124.68
109.90
89.11
67.69
50.08
38.64
33.63
33.86
37.89
44.67
53.70
64.44
75.76
85.80
92.37
93.90
90.12
82.25
72.61
63.80
57.93
56.21
58.92
65.68
75.73
88.09
101.66
115.14
127.10
136.23
141.42
142.11
138.37
130.79
120.39
108.36
95.80
83.61
72.35
62.33
53.64
46.35
40.54
36.30
33.69
32.61
32.86
34.13
36.07
38.30
40.27
41.17
39.98
35.69
27.71
16.21
2.27
-12.34
-25.64
-35.96
-42.48
-45.27
-45.25
-43.79
-42.22
-41.38
-41.09
-40.04
-36.09
-27.07
-11.84
8.78
31.75
52.37
65.67
67.92
57.73
36.28
6.68
-27.17
-61.67
-94.01
-122.30
-145.28
-162.12
-172.43
-176.47
-175.33
-170.81
-165.02
-159.69
-155.59
-152.47
-149.25
-144.66
-137.88
-128.90
-118.45
-107.61
-97.37
-88.16
-79.88
-72.00
-63.97
-55.54
-46.85
-38.43
-30.88
-24.62
-19.77
-16.10
-13.26
-10.92
-8.95
-7.36
-6.20
-5.43
-4.82
-4.04
-2.84
-1.22
0.55
2.10
3.16
3.68
3.83
3.87
3.92
3.80
3.09
1.29
-1.97
-6.72
-12.62
-18.95
-24.82
-29.31
-31.65
-31.41
-28.61
-23.70
-17.38
-10.44
-3.58
2.71
8.11
12.37
15.27
16.60
16.20
14.08
10.55
6.17
1.75
-1.89
-4.07
-4.54
-3.57
-1.86
-0.34
0.33
0.02
-0.62
-0.22
2.88
10.01
21.62
36.95
54.12
70.55
83.72
91.89
94.53
92.43
87.47
82.12
78.91
79.80
85.68
95.88
108.18
119.22
125.34
123.66
112.95
93.88
68.72
40.52
12.25
-13.70
-35.79
-53.13
-65.38
-72.57
-75.11
-73.83
-69.73
-63.90
-57.33
-50.77
-44.67
-39.36
-35.04
-31.86
-29.92
-29.13
-29.14
-29.40
-29.28
-28.31
-26.30
-23.43
-20.18
-17.18
-15.00
-14.02
-14.39
-16.02
-18.59
-21.71
-24.91
-27.83
-30.19
-31.83
-32.66
-32.62
-31.65
-29.77
-27.12
-23.97
-20.62
-17.40
-14.46
-11.86
-9.64
-7.86
-6.64
-6.15
-6.45
-7.46
-8.92
-10.45
-11.63
-12.08
-11.61
-10.13
-7.78
-4.75
-1.41
1.89
4.79
7.09
8.65
9.47
9.59
9.11
8.14
6.78
5.15
3.33
1.37
-0.67
-2.69
-4.50
-5.77
-6.12
-5.26
-3.12
0.03
3.61
6.93
9.46
10.98
11.59
11.63
11.43
11.21
10.98
10.65
10.17
9.65
9.32
9.44
10.17
11.43
12.96
14.39
15.43
16.03
16.27
16.40
16.55
16.68
16.53
15.78
14.21
11.89
9.14
6.41
4.10
2.37
1.09
-0.10
-1.60
-3.65
-6.15
-8.66
-10.52
-11.08
-9.96
-7.24
-3.44
0.65
4.26
6.94
8.68
9.78
10.67
11.60
12.51
13.16
13.25
12.74
11.85
11.02
10.61
10.79
11.43
12.16
12.62
12.58
12.04
11.16
10.20
9.37
8.73
8.27
7.88
7.46
6.96
6.40
5.82
5.19
4.42
3.31
1.60
-0.89
-4.17
-8.11
-12.32
-16.31
-19.50
-21.33
-21.39
-19.50
-15.78
-10.67
-4.83
1.01
6.27
10.58
13.87
16.21
17.79
18.70
18.99
18.63
17.65
16.19
14.49
12.89
11.68
11.08
11.12
11.66
12.49
13.32
13.89
14.06
13.78
13.13
12.27
11.34
10.43
9.47
8.31
6.79
4.80
2.34
-0.47
-3.43
-6.40
-9.24
-11.86
-14.11
-15.70
-16.25
-15.43
-13.11
-9.52
-5.34
-1.43
1.41
2.72
2.55
1.35
-0.22
-1.62
-2.57
-3.08
-3.30
-3.36
-3.29
-2.98
-2.36
-1.41
-0.27
0.80
1.54
1.75
1.35
0.37
-1.09
-3.01
-5.43
-8.48
-12.22
-16.60
-21.35
-26.12
-30.59
-34.55
-38.10
-41.54
-45.19
-49.31
-53.93
-58.83
-63.59
-67.79
-71.15
-73.61
-75.34
-76.72
-78.13
-79.90
-82.22
-85.15
-88.60
-92.31
-95.89
-98.89
-100.73
-100.79
-98.42
-93.02
-84.12
-71.45
-55.06
-35.32
-13.03
10.70
34.52
57.08
77.16
93.86
106.68
115.46
120.35
121.72
120.13
116.21
110.62
103.91
96.54
88.78
80.85
72.98
65.50
58.80
53.22
48.97
46.02
44.22
43.25
42.75
42.43
42.05
41.41
40.36
38.78
36.60
33.89
30.81
27.65
24.72
22.27
20.42
19.16
18.42
18.09
18.15
18.58
19.31
20.20
21.03
21.51
21.38
20.53
19.04
17.15
15.17
13.31
11.68
10.17
8.63
6.92
4.99
2.87
0.73
-1.21
-2.70
-3.46
-3.26
-2.08
-0.09
2.35
4.74
6.70
8.02
8.70
8.83
8.50
7.79
6.75
5.56
4.41
3.54
3.11
3.08
3.31
3.51
3.49
3.13
2.50
1.70
0.92
0.27
-0.24
-0.68
-1.29
-2.29
-3.90
-6.17
-8.92
-11.73
-14.07
-15.44
-15.50
-14.13
-11.50
-7.91
-3.78
0.43
4.32
7.55
9.93
11.39
12.04
12.04
11.55
10.73
9.68
8.55
7.55
6.90
6.75
7.09
7.76
8.46
8.92
8.99
8.66
8.01
7.13
6.15
5.14
4.22
3.49
3.02
2.74
2.50
2.04
1.23
0.07
-1.18
-2.13
-2.43
-1.85
-0.43
1.62
4.00
6.38
8.49
10.13
11.15
11.46
11.07
10.07
8.65
7.04
5.46
4.12
3.18
2.72
2.76
3.25
4.04
4.98
5.86
6.52
6.82
6.69
6.10
5.12
3.84
2.35
0.68
-1.21
-3.41
-5.93
-8.63
-11.17
-13.06
-13.84
-13.27
-11.41
-8.54
-5.09
-1.43
2.13
5.39
8.18
10.25
11.36
11.35
10.25
8.31
5.96
3.74
2.05
1.12
0.90
1.16
1.58
1.87
1.86
1.53
0.95
0.30
-0.29
-0.74
-1.07
-1.37
-1.79
-2.51
-3.63
-5.15
-6.91
-8.62
-9.88
-10.27
-9.45
-7.24
-3.73
0.74
5.57
10.14
13.79
16.10
16.92
16.37
14.86
12.81
10.67
8.73
7.12
5.85
4.84
3.97
3.12
2.22
1.20
0.10
-1.05
-2.19
-3.26
-4.26
-5.21
-6.10
-6.88
-7.46
-7.78
-7.82
-7.72
-7.68
-7.94
-8.63
-9.77
-11.15
-12.46
-13.28
-13.23
-12.13
-9.96
-6.97
-3.53
-0.06
3.15
5.94
8.26
10.06
11.28
11.84
11.72
11.09
10.23
9.45
8.96
8.74
8.61
8.38
7.97
7.43
6.89
6.47
6.19
5.94
5.61
5.15
4.55
3.83
2.94
1.80
0.32
-1.44
-3.30
-4.91
-5.91
-6.01
-5.10
-3.24
-0.66
2.32
5.40
8.29
10.79
12.75
14.10
14.80
14.87
14.37
13.47
12.36
11.30
10.49
10.05
9.98
10.16
10.45
10.67
10.73
10.60
10.30
9.85
9.23
8.41
7.36
6.17
4.93
3.82
2.89
2.04
1.06
-0.33
-2.21
-4.43
-6.54
-8.01
-8.39
-7.53
-5.57
-2.89
0.10
3.01
5.57
7.60
8.97
9.56
9.37
8.50
7.18
5.76
4.55
3.73
3.40
3.51
3.92
4.51
5.15
5.73
6.20
6.55
6.77
6.84
6.75
6.45
5.91
5.17
4.31
3.49
2.83
2.41
2.17
1.97
1.63
1.00
0.04
-1.22
-2.63
-3.99
-5.09
-5.74
-5.79
-5.21
-4.04
-2.43
-0.61
1.22
2.84
4.15
5.07
5.52
5.45
4.82
3.66
2.05
0.25
-1.46
-2.76
-3.45
-3.50
-3.07
-2.37
-1.61
-0.90
-0.22
0.49
1.28
2.06
2.67
2.92
2.66
1.91
0.80
-0.47
-1.76
-2.99
-4.18
-5.37
-6.64
-7.96
-9.28
-10.48
-11.49
-12.23
-12.71
-12.90
-12.75
-12.13
-10.87
-8.88
-6.13
-2.81
0.78
4.28
7.35
9.78
11.47
12.40
12.61
12.18
11.30
10.23
9.30
8.77
8.69
8.95
9.28
9.42
9.32
9.11
9.04
9.30
9.94
10.84
11.78
12.59
13.21
13.62
13.81
13.76
13.39
12.64
11.49
9.98
8.20
6.25
4.19
2.07
0.00
-1.77
-2.90
-2.97
-1.64
1.24
5.50
10.76
16.44
21.97
26.92
31.09
34.48
37.25
39.62
41.77
43.81
45.78
47.65
49.31
50.63
51.49
51.87
51.79
51.35
50.68
49.89
49.02
48.05
47.06
46.26
46.09
47.04
49.47
53.45
58.65
64.38
69.78
74.03
76.53
77.22
76.37
74.49
72.20
70.03
68.33
67.11
66.35
66.02
66.36
67.53
69.54
72.20
75.12
77.84
79.69
80.51
80.34
79.95
80.07
81.27
83.91
87.75
91.92
94.60
94.31
89.84
81.72
71.47
61.61
55.17
54.43
60.64
73.25
91.30
107.15
114.50
108.95
89.71
60.20
25.86
-2.60
-22.22
-33.73
-39.87
-43.04
-45.88
-52.18
-64.61
-85.06
-113.02
-144.94
-174.14
-193.81
-199.02
-189.85
-171.71
-150.38
-133.10
-129.03
-140.98
-164.55
-194.22
-224.58
-251.75
-273.27
-287.28
-292.82
-289.36
-276.98
-256.96
-232.12
-205.69
-180.58
-158.62
-140.12
-124.54
-110.72
-97.26
-83.53
-70.06
-57.83
-47.77
-40.22
-34.77
-30.70
-27.11
-23.16
-18.65
-14.21
-10.67
-8.73
-8.59
-9.82
-11.63
-13.14
-13.46
-12.21
-9.57
-6.05
-2.19
1.59
5.07
8.21
11.09
13.92
16.89
20.06
23.36
26.53
29.15
30.74
30.93
29.61
26.93
23.26
19.04
14.68
10.56
6.98
4.19
2.31
1.29
0.89
0.80
0.75
0.62
0.51
0.65
1.25
2.42
4.13
6.25
8.51
10.63
12.30
13.31
13.70
13.71
13.74
14.16
15.16
16.64
18.27
19.65
20.50
20.75
20.50
19.98
19.37
18.75
18.07
17.15
15.68
13.37
9.99
5.57
0.41
-4.90
-9.69
-13.32
-15.46
-16.03
-15.28
-13.59
-11.41
-9.23
-7.46
-6.47
-6.47
-7.52
-9.49
-12.06
-14.78
-17.09
-18.39
-18.18
-16.11
-12.12
-6.41
0.55
8.22
15.97
23.16
29.05
32.89
34.05
32.25
27.75
21.44
14.64
8.77
5.12
4.51
7.23
13.03
21.13
30.43
39.69
47.88
54.32
58.84
61.64
63.15
63.86
64.29
64.91
66.18
68.36
71.26
74.11
75.68
74.83
71.12
65.17
58.66
53.71
52.09
54.61
60.96
69.95
80.00
89.55
97.17
101.69
102.08
97.69
88.44
75.01
58.77
41.53
25.10
10.98
0.16
-6.97
-10.54
-11.09
-9.37
-6.24
-2.54
0.93
3.40
4.17
2.68
-1.25
-7.45
-15.40
-24.47
-34.09
-43.97
-53.97
-63.95
-73.57
-82.25
-89.29
-94.08
-96.22
-95.62
-92.37
-86.76
-79.29
-70.69
-61.82
-53.62
-46.93
-42.30
-39.99
-39.89
-41.64
-44.60
-47.99
-50.86
-52.30
-51.52
-47.94
-41.37
-32.01
-20.52
-8.03
3.99
14.03
20.84
23.81
23.09
19.53
14.34
8.67
3.34
-1.27
-5.06
-8.14
-10.57
-12.34
-13.44
-13.85
-13.64
-12.93
-11.92
-10.94
-10.42
-10.81
-12.41
-15.17
-18.57
-21.76
-23.78
-23.94
-22.08
-18.69
-14.63
-10.80
-7.78
-5.55
-3.58
-1.01
2.99
8.84
16.46
25.18
33.99
41.64
46.81
48.28
45.26
37.90
27.71
17.50
10.68
9.92
16.01
27.35
40.48
51.48
57.32
56.63
49.53
36.93
19.85
-0.76
-23.71
-47.25
-69.04
-86.83
-99.07
-105.60
-107.48
-106.57
-104.70
-103.03
-101.79
-100.41
-98.01
-93.86
-87.80
-80.28
-72.16
-64.31
-57.34
-51.45
-46.47
-42.00
-37.47
-32.25
-25.79
-17.77
-8.29
2.01
12.13
21.01
27.91
32.68
35.73
37.62
38.78
39.33
39.12
38.03
36.19
33.99
31.91
30.23
28.85
27.46
25.67
23.20
20.02
16.30
12.24
8.03
3.81
-0.26
-4.05
-7.55
-10.82
-14.13
-17.72
-21.85
-26.53
-31.59
-36.70
-41.40
-45.31
-48.15
-49.83
-50.43
-50.24
-49.58
-48.70
-47.69
-46.40
-44.56
-41.97
-38.63
-34.84
-31.20
-28.40
-27.08
-27.64
-30.16
-34.37
-39.72
-45.49
-50.87
-55.16
-57.76
-58.36
-56.89
-53.52
-48.63
-42.70
-36.31
-30.05
-24.46
-19.93
-16.68
-14.69
-13.81
-13.78
-14.34
-15.24
-16.19
-16.92
-17.12
-16.65
-15.56
-14.13
-12.79
-11.94
-11.76
-12.19
-13.03
-14.08
-15.21
-16.40
-17.64
-18.99
-20.46
-22.09
-23.90
-25.76
-27.30
-27.87
-26.71
-23.12
-16.74
-7.71
3.43
15.86
28.67
41.06
52.50
62.74
71.84
79.91
86.93
92.69
96.82
99.13
99.87
99.79
99.93
101.09
103.45
106.35
108.54
108.68
105.84
99.79
90.95
80.15
68.35
56.40
44.93
34.43
25.23
17.64
11.85
7.82
5.20
3.28
1.18
-1.81
-5.96
-11.03
-16.56
-22.18
-27.87
-33.88
-40.32
-46.88
-52.71
-56.74
-58.17
-56.81
-52.99
-47.29
-40.24
-32.17
-23.44
-14.71
-6.89
-0.96
2.48
3.42
2.42
0.29
-2.23
-4.68
-6.79
-8.37
-9.17
-8.93
-7.47
-4.74
-0.77
4.41
10.71
17.86
25.41
32.65
38.89
43.71
47.04
49.11
50.21
50.38
49.45
47.20
43.57
38.85
33.60
28.42
23.74
19.68
16.15
12.97
10.03
7.45
5.57
4.96
6.23
9.79
15.58
22.89
30.47
36.86
40.78
41.64
39.52
35.14
29.44
23.27
17.26
11.76
6.98
3.14
0.47
-0.85
-0.72
0.77
3.30
6.38
9.38
11.64
12.62
11.84
9.10
4.36
-2.08
-9.71
-17.75
-25.37
-31.83
-36.51
-39.08
-39.44
-37.67
-34.07
-29.19
-23.84
-19.04
-15.77
-14.71
-15.95
-18.83
-22.03
-23.98
-23.27
-19.10
-11.48
-1.23
10.39
22.04
32.69
41.81
49.36
55.60
60.79
64.95
67.80
68.94
68.02
65.19
61.00
56.36
52.15
48.82
46.30
44.04
41.40
37.83
33.15
27.40
20.86
13.95
7.29
1.64
-2.27
-4.05
-4.08
-3.42
-3.68
-6.29
-11.95
-20.31
-30.08
-39.55
-47.24
-52.34
-54.83
-55.27
-54.44
-52.95
-51.06
-48.66
-45.51
-41.45
-36.60
-31.26
-25.84
-20.65
-15.78
-11.16
-6.67
-2.30
1.84
5.60
8.96
12.07
15.29
19.06
23.63
28.95
34.66
40.19
45.03
48.94
52.10
54.94
57.95
61.32
64.81
67.77
69.41
69.15
66.87
62.84
57.53
51.33
44.41
36.86
28.80
20.59
12.76
5.81
-0.16
-5.55
-11.13
-17.71
-25.67
-34.76
-44.09
-52.41
-58.50
-61.53
-61.20
-57.74
-51.80
-44.30
-36.26
-28.66
-22.36
-17.94
-15.62
-15.19
-16.05
-17.41
-18.54
-19.01
-18.80
-18.22
-17.73
-17.63
-17.96
-18.49
-18.85
-18.74
-18.17
-17.47
-17.27
-18.19
-20.50
-23.97
-27.90
-31.41
-33.89
-35.17
-35.60
-35.74
-36.02
-36.58
-37.24
-37.73
-37.95
-38.07
-38.47
-39.60
-41.82
-45.25
-49.80
-55.07
-60.39
-64.91
-67.72
-68.15
-65.88
-61.08
-54.33
-46.37
-37.96
-29.58
-21.41
-13.33
-5.15
3.15
11.24
18.41
23.79
26.65
26.85
24.93
22.01
19.34
17.86
17.79
18.64
19.56
19.78
19.19
18.47
18.98
22.34
29.86
42.14
58.80
78.51
99.14
118.01
132.21
139.01
136.50
124.19
103.38
77.08
49.39
24.51
5.74
-5.11
-7.83
-3.38
6.44
19.40
33.11
45.20
53.71
57.55
56.68
52.03
45.01
36.81
28.02
18.69
8.69
-1.88
-12.44
-22.05
-29.85
-35.33
-38.43
-39.44
-38.72
-36.65
-33.66
-30.41
-27.70
-26.33
-26.80
-29.09
-32.67
-36.68
-40.30
-42.94
-44.26
-44.21
-42.89
-40.51
-37.37
-33.89
-30.65
-28.39
-27.89
-29.70
-33.94
-40.03
-46.71
-52.45
-55.88
-56.26
-53.70
-48.88
-42.70
-35.88
-28.82
-21.62
-14.26
-6.73
0.96
8.78
16.73
24.70
32.35
39.11
44.23
46.95
46.70
43.14
36.30
26.62
15.25
4.09
-4.30
-7.23
-2.50
11.09
33.30
62.36
94.98
126.70
152.50
167.71
169.17
156.04
130.19
95.80
58.31
23.24
-4.89
-23.19
-30.73
-28.54
-19.47
-7.71
1.95
5.32
-0.10
-14.37
-35.25
-59.10
-82.07
-101.35
-115.65
-125.03
-130.27
-132.05
-130.55
-125.58
-116.99
-105.20
-91.35
-76.86
-62.82
-49.62
-36.96
-24.43
-12.02
-0.38
9.41
16.30
19.86
20.27
18.07
13.72
7.18
-1.89
-13.74
-27.95
-43.13
-57.04
-67.23
-71.93
-70.78
-65.05
-57.19
-49.92
-45.27
-43.87
-45.02
-47.29
-49.21
-49.96
-49.40
-47.87
-45.79
-43.43
-40.90
-38.24
-35.54
-32.88
-30.25
-27.47
-24.26
-20.32
-15.54
-10.12
-4.58
0.41
4.18
6.36
6.95
6.30
4.95
3.42
2.08
1.03
0.14
-0.85
-2.29
-4.39
-7.21
-10.47
-13.66
-16.18
-17.51
-17.43
-15.97
-13.34
-9.75
-5.35
-0.24
5.33
10.85
15.61
18.83
20.02
19.20
17.02
14.75
14.00
16.22
22.16
31.45
42.43
52.57
59.25
60.65
56.57
48.66
39.95
33.84
33.02
38.60
49.89
64.67
79.98
93.05
102.04
106.40
106.66
103.85
98.87
92.09
83.38
72.43
59.22
44.29
28.75
14.12
1.82
-7.12
-12.40
-14.45
-14.34
-13.54
-13.54
-15.47
-19.62
-25.32
-31.18
-35.61
-37.51
-36.75
-34.15
-31.07
-28.73
-27.74
-27.96
-28.88
-30.14
-31.82
-34.44
-38.39
-43.50
-48.81
-52.83
-54.22
-52.19
-46.76
-38.47
-28.11
-16.41
-4.04
8.34
20.05
30.48
39.37
46.88
53.56
60.10
66.94
74.17
81.49
88.50
94.74
99.76
103.07
104.10
102.45
98.07
91.54
83.95
76.63
70.60
66.21
62.98
59.88
55.80
50.14
42.97
35.04
27.32
20.63
15.34
11.29
8.00
4.91
1.62
-1.97
-5.72
-9.30
-12.39
-14.73
-16.20
-16.78
-16.50
-15.44
-13.74
-11.71
-9.81
-8.57
-8.47
-9.65
-11.85
-14.36
-16.31
-16.86
-15.50
-12.10
-6.91
-0.48
6.56
13.55
19.89
25.18
29.23
31.97
33.44
33.64
32.55
30.22
26.83
22.76
18.54
14.68
11.58
9.38
8.05
7.47
7.49
7.99
8.83
9.81
10.76
11.53
12.05
12.25
11.98
10.96
8.88
5.61
1.32
-3.49
-8.18
-12.22
-15.51
-18.34
-21.26
-24.85
-29.48
-35.24
-42.04
-49.67
-57.81
-66.16
-74.31
-81.98
-89.01
-95.45
-101.61
-107.93
-114.89
-122.94
-132.29
-142.89
-154.27
-165.53
-175.45
-182.46
-184.79
-180.48
-167.62
-144.80
-111.88
-70.65
-24.86
20.32
59.88
90.39
111.08
123.59
130.93
136.04
140.75
145.59
150.28
154.33
157.49
159.68
160.76
160.38
158.15
153.96
148.28
142.13
136.73
132.82
130.36
128.53
126.18
122.47
117.34
111.47
105.78
100.82
96.23
90.72
82.46
69.73
51.45
27.45
-1.44
-33.66
-67.09
-99.45
-128.63
-153.07
-172.10
-185.93
-195.54
-202.26
-207.28
-211.20
-213.73
-213.67
-209.26
-198.90
-182.00
-159.48
-133.79
-108.17
-85.52
-67.43
-53.83
-43.29
-33.77
-23.57
-11.72
1.85
16.51
31.27
45.03
56.75
65.73
71.77
75.34
77.52
79.67
82.82
87.06
91.24
93.20
90.76
82.72
69.56
53.28
36.59
21.76
9.90
0.82
-6.75
-14.79
-25.66
-41.60
-63.89
-91.69
-121.44
-147.41
-163.45
-165.47
-152.94
-128.88
-98.28
-65.97
-35.29
-8.00
14.89
32.23
42.69
45.33
40.39
29.59
15.79
2.09
-8.85
-15.40
-16.95
-13.89
-7.34
1.15
10.11
18.60
26.30
33.47
40.40
47.12
53.32
58.50
62.33
64.79
66.19
66.96
67.44
67.71
67.66
67.08
65.72
63.46
60.27
56.30
51.81
47.25
43.08
39.69
37.28
35.78
34.97
34.60
34.59
34.97
35.90
37.45
39.58
42.10
44.73
47.21
49.39
51.21
52.74
54.11
55.45
56.82
58.14
59.26
59.94
60.08
59.70
58.97
58.02
56.91
55.56
53.75
51.34
48.28
44.68
40.72
36.49
32.00
27.13
21.73
15.76
9.26
2.40
-4.67
-11.80
-18.88
-25.84
-32.60
-39.04
-44.93
-50.02
-54.07
-56.94
-58.53
-58.87
-57.99
-56.01
-53.11
-49.55
-45.62
-41.64
-37.91
-34.66
-32.06
-30.13
-28.66
-27.32
-25.66
-23.44
-20.67
-17.72
-15.10
-13.22
-12.12
-11.50
-10.80
-9.55
-7.62
-5.25
-2.95
-1.25
-0.46
-0.49
-0.89
-1.03
-0.32
1.52
4.21
7.08
9.37
10.64
11.11
11.54
13.02
16.40
22.07
29.83
39.05
48.76
57.48
63.09
63.13
55.53
39.81
17.72
-6.97
-29.77
-47.21
-58.08
-63.48
-65.72
-66.82
-67.49
-67.14
-64.81
-60.08
-53.54
-46.42
-39.75
-33.84
-28.11
-21.55
-13.40
-3.61
6.96
16.81
24.26
28.00
27.49
23.01
15.51
6.24
-3.70
-13.57
-23.06
-32.04
-40.29
-47.21
-51.89
-53.37
-51.15
-45.42
-37.26
-28.28
-20.27
-14.62
-12.06
-12.43
-14.84
-17.87
-20.01
-20.04
-17.44
-12.57
-6.66
-1.49
1.12
-0.14
-5.54
-14.25
-24.43
-33.80
-40.31
-42.68
-40.77
-35.52
-28.51
-21.37
-15.38
-11.28
-9.34
-9.53
-11.62
-15.21
-19.57
-23.75
-26.74
-27.84
-26.87
-24.28
-20.81
-17.24
-14.08
-11.43
-9.17
-7.07
-5.06
-3.18
-1.66
-0.69
-0.41
-0.80
-1.68
-2.75
-3.72
-4.39
-4.70
-4.80
-4.88
-5.19
-5.93
-7.24
-9.13
-11.59
-14.42
-17.35
-19.97
-21.82
-22.51
-21.83
-19.80
-16.65
-12.78
-8.64
-4.57
-0.84
2.44
5.24
7.53
9.31
10.54
11.22
11.43
11.29
10.95
10.53
10.11
9.71
9.31
8.92
8.58
8.33
8.15
8.03
7.91
7.76
7.56
7.32
7.04
6.66
6.12
5.26
3.96
2.14
-0.17
-2.81
-5.61
-8.39
-11.04
-13.51
-15.74
-17.59
-18.81
-19.10
-18.18
-15.98
-12.64
-8.49
-3.94
0.64
4.97
8.85
12.12
14.62
16.15
16.60
16.01
14.58
12.71
10.87
9.45
8.67
8.54
8.88
9.51
10.21
10.84
11.30
11.50
11.38
10.86
9.98
8.76
7.32
5.75
4.10
2.38
0.52
-1.58
-4.06
-7.01
-10.42
-14.06
-17.53
-20.32
-21.92
-22.08
-20.79
-18.33
-15.08
-11.48
-7.84
-4.40
-1.37
1.11
2.87
3.83
3.97
3.37
2.21
0.76
-0.69
-1.83
-2.43
-2.40
-1.80
-0.82
0.29
1.27
1.93
2.13
1.85
1.08
-0.11
-1.66
-3.45
-5.40
-7.43
-9.55
-11.79
-14.20
-16.75
-19.26
-21.37
-22.60
-22.54
-20.98
-18.01
-14.00
-9.46
-4.90
-0.65
3.11
6.31
8.89
10.73
11.68
11.66
10.72
9.13
7.32
5.70
4.62
4.18
4.25
4.57
4.82
4.78
4.38
3.61
2.53
1.18
-0.38
-2.18
-4.28
-6.80
-9.89
-13.67
-18.11
-23.00
-27.91
-32.24
-35.33
-36.65
-35.91
-33.19
-28.87
-23.56
-17.85
-12.22
-6.96
-2.19
2.09
5.81
8.92
11.37
13.16
14.38
15.11
15.38
15.18
14.51
13.43
12.09
10.67
9.25
7.82
6.21
4.26
1.88
-0.91
-3.96
-7.20
-10.61
-14.32
-18.49
-23.20
-28.36
-33.75
-39.08
-44.15
-48.89
-53.44
-57.97
-62.55
-66.92
-70.43
-72.01
-70.49
-64.93
-55.10
-41.73
-26.50
-11.55
1.28
11.25
19.00
26.33
35.28
47.15
61.85
78.01
93.67
107.25
117.97
125.73
130.61
132.79
133.05
133.56
137.68
148.75
167.93
192.61
216.48
231.77
232.32
216.02
184.94
143.58
96.36
46.12
-5.46
-56.07
-101.35
-135.27
-152.28
-150.26
-132.16
-105.50
-79.54
-61.70
-54.92
-57.01
-62.46
-65.36
-62.00
-51.98
-37.47
-21.45
-5.96
8.66
23.42
39.49
57.10
75.08
91.24
103.26
109.74
110.66
107.36
101.81
95.70
89.78
83.58
75.62
63.94
46.65
22.23
-10.23
-50.61
-97.27
-146.72
-193.69
-231.94
-255.65
-261.02
-247.42
-217.57
-176.70
-131.04
-86.21
-46.13
-12.72
13.77
34.24
50.20
63.55
76.40
90.53
106.71
124.00
139.57
149.47
150.11
139.92
120.35
95.46
70.47
49.88
36.21
29.50
27.84
28.24
27.66
23.70
15.13
2.35
-12.78
-27.31
-38.29
-43.75
-43.40
-38.58
-31.64
-24.87
-19.79
-16.93
-16.02
-16.57
-18.29
-21.18
-25.31
-30.52
-36.20
-41.37
-44.97
-46.31
-45.30
-42.46
-38.62
-34.51
-30.50
-26.50
-22.27
-17.62
-12.74
-8.10
-4.22
-1.36
0.65
2.39
4.58
7.75
12.05
17.21
22.73
28.06
32.84
36.97
40.52
43.68
46.59
49.23
51.44
52.99
53.70
53.53
52.64
51.24
49.60
47.87
46.12
44.44
42.98
41.96
41.53
41.65
41.97
41.86
40.62
37.68
32.79
26.10
18.07
9.35
0.54
-7.83
-15.34
-21.73
-27.01
-31.50
-35.85
-40.88
-47.06
-54.22
-61.42
-67.24
-70.38
-70.20
-66.96
-61.59
-55.23
-48.64
-42.05
-35.31
-28.28
-21.25
-14.90
-10.10
-7.49
-7.25
-8.98
-11.88
-14.94
-17.28
-18.20
-17.27
-14.25
-9.13
-2.15
6.13
14.74
22.43
27.89
30.11
28.69
24.09
17.51
10.55
4.66
0.73
-1.11
-1.29
-0.56
0.48
1.45
2.24
2.86
3.36
3.77
4.10
4.40
4.73
5.16
5.76
6.55
7.52
8.64
9.91
11.25
12.59
13.87
15.05
16.11
17.00
17.61
17.89
17.82
17.51
17.17
16.98
16.95
16.87
16.36
15.06
12.86
9.97
6.89
4.25
2.50
1.83
2.12
3.11
4.42
5.77
6.86
7.39
7.12
5.86
3.56
0.31
-3.68
-8.20
-13.09
-18.13
-23.10
-27.59
-31.10
-33.16
-33.34
-31.47
-27.61
-22.07
-15.43
-8.51
-2.22
2.54
5.13
5.34
3.42
-0.03
-4.24
-8.47
-12.10
-14.64
-15.70
-15.01
-12.46
-8.17
-2.49
3.94
10.38
16.00
20.08
22.13
21.90
19.49
15.23
9.70
3.59
-2.37
-7.48
-11.18
-13.12
-13.22
-11.68
-8.91
-5.38
-1.65
1.72
4.14
5.05
3.98
0.66
-4.84
-12.08
-20.35
-28.74
-36.32
-42.24
-45.84
-46.62
-44.36
-39.14
-31.39
-21.90
-11.66
-1.83
6.54
12.59
15.88
16.36
14.41
10.63
5.77
0.60
-4.17
-7.93
-10.21
-10.64
-9.08
-5.56
-0.36
6.05
13.00
19.69
25.28
28.92
29.95
28.00
23.19
16.09
7.73
-0.68
-7.99
-13.33
-16.28
-16.85
-15.31
-12.15
-7.83
-2.87
2.18
6.66
9.85
10.98
9.49
5.13
-1.95
-11.17
-21.61
-32.15
-41.62
-48.90
-53.05
-53.44
-49.93
-42.91
-33.23
-22.17
-11.08
-1.21
6.48
11.41
13.36
12.47
9.22
4.38
-1.02
-5.94
-9.49
-11.07
-10.53
-7.99
-3.78
1.74
8.17
15.10
22.11
28.71
34.32
38.27
39.87
38.58
34.18
26.99
17.88
8.09
-1.05
-8.49
-13.65
-16.48
-17.27
-16.52
-14.74
-12.33
-9.61
-6.65
-3.36
0.40
4.53
8.46
11.04
10.80
6.52
-2.24
-14.75
-29.19
-43.16
-54.34
-61.11
-62.75
-59.36
-51.62
-40.53
-27.24
-13.09
0.48
12.00
20.19
24.25
23.98
19.85
12.85
4.31
-4.42
-12.16
-18.05
-21.63
-22.73
-21.40
-17.74
-12.02
-4.62
3.75
12.06
19.14
23.87
25.49
23.78
19.08
12.15
3.86
-4.92
-13.54
-21.48
-28.34
-33.76
-37.40
-38.99
-38.38
-35.59
-30.83
-24.54
-17.33
-9.96
-3.32
1.67
4.32
4.30
1.80
-2.48
-7.54
-12.30
-15.84
-17.58
-17.26
-14.84
-10.53
-4.68
2.23
9.65
16.92
23.49
28.81
32.45
34.08
33.48
30.69
26.00
19.98
13.35
6.94
1.40
-2.88
-5.76
-7.45
-8.26
-8.64
-9.01
-9.85
-11.59
-14.45
-18.33
-22.71
-26.73
-29.44
-30.10
-28.43
-24.66
-19.37
-13.31
-7.19
-1.50
3.40
7.33
10.25
12.16
13.21
13.49
13.15
12.35
11.25
10.06
9.02
8.35
8.21
8.62
9.43
10.33
10.92
10.84
9.84
7.91
5.30
2.38
-0.51
-3.18
-5.65
-8.12
-10.78
-13.76
-17.05
-20.46
-23.74
-26.49
-28.26
-28.55
-27.03
-23.63
-18.65
-12.68
-6.46
-0.61
4.44
8.47
11.45
13.41
14.50
14.94
15.03
15.08
15.32
15.74
16.20
16.55
16.74
16.90
17.23
17.81
18.52
19.01
18.87
17.87
15.99
13.49
10.72
7.92
5.14
2.24
-0.97
-4.65
-8.83
-13.40
-18.15
-22.76
-26.77
-29.69
-31.00
-30.32
-27.55
-22.91
-16.94
-10.34
-3.81
2.12
7.15
11.12
13.97
15.69
16.35
16.12
15.29
14.23
13.22
12.43
11.82
11.25
10.59
9.81
9.05
8.48
8.24
8.29
8.42
8.29
7.59
6.17
4.11
1.65
-0.93
-3.38
-5.62
-7.69
-9.70
-11.87
-14.38
-17.43
-21.10
-25.32
-29.76
-33.80
-36.66
-37.60
-36.10
-32.14
-26.12
-18.82
-11.10
-3.74
2.77
8.26
12.81
16.63
19.86
22.49
24.38
25.41
25.54
25.04
24.34
23.90
23.98
24.50
25.12
25.42
25.16
24.34
23.16
21.80
20.29
18.49
16.21
13.35
10.02
6.51
3.16
0.21
-2.28
-4.44
-6.55
-8.90
-11.71
-15.04
-18.81
-22.79
-26.70
-30.22
-32.99
-34.58
-34.55
-32.55
-28.55
-22.83
-15.99
-8.75
-1.77
4.54
9.99
14.52
18.07
20.55
21.90
22.22
21.79
21.08
20.58
20.69
21.53
22.96
24.60
25.95
26.61
26.39
25.35
23.71
21.81
19.87
17.98
16.12
14.14
11.94
9.46
6.75
3.89
0.99
-1.85
-4.61
-7.33
-10.08
-12.95
-16.02
-19.33
-22.82
-26.32
-29.44
-31.69
-32.48
-31.35
-28.10
-22.89
-16.27
-8.99
-1.83
4.56
9.77
13.64
16.17
17.54
17.96
17.71
17.07
16.28
15.57
15.11
15.05
15.43
16.23
17.30
18.44
19.41
20.06
20.31
20.20
19.73
18.91
17.62
15.74
13.24
10.12
6.59
2.90
-0.69
-3.99
-6.95
-9.62
-12.19
-14.84
-17.75
-21.02
-24.57
-28.06
-30.98
-32.65
-32.51
-30.23
-25.90
-19.96
-13.08
-5.99
0.70
6.63
11.65
15.75
18.98
21.38
23.01
23.94
24.29
24.22
23.91
23.56
23.27
23.13
23.15
23.30
23.50
23.67
23.69
23.48
22.96
22.10
20.87
19.27
17.30
14.92
12.17
9.11
5.86
2.59
-0.55
-3.44
-6.09
-8.57
-11.06
-13.72
-16.68
-19.94
-23.37
-26.68
-29.53
-31.61
-32.63
-32.40
-30.83
-27.97
-23.92
-18.83
-12.91
-6.37
0.48
7.21
13.31
18.19
21.41
22.82
22.69
21.63
20.47
19.96
20.54
22.27
24.82
27.63
30.14
31.94
32.90
33.25
33.41
33.92
35.22
37.45
40.42
43.57
46.10
47.18
46.29
43.26
38.51
32.82
27.15
22.27
18.59
15.95
13.91
11.88
9.41
6.34
2.85
-0.54
-3.04
-3.71
-1.87
2.46
8.26
13.48
15.65
12.86
4.68
-7.53
-20.95
-32.36
-39.25
-40.60
-36.97
-29.96
-21.48
-13.13
-5.95
-0.47
3.11
4.70
4.34
2.27
-1.00
-4.69
-7.86
-9.77
-10.13
-9.22
-7.72
-6.37
-5.66
-5.64
-6.02
-6.46
-6.87
-7.39
-8.38
-10.12
-12.60
-15.61
-18.75
-21.74
-24.44
-26.91
-29.31
-31.82
-34.54
-37.44
-40.34
-42.90
-44.63
-44.98
-43.51
-40.08
-34.88
-28.48
-21.65
-15.09
-9.30
-4.51
-0.73
2.13
4.16
5.44
6.10
6.36
6.44
6.61
6.99
7.59
8.37
9.23
10.06
10.77
11.25
11.35
10.94
9.90
8.16
5.77
2.82
-0.46
-3.80
-6.94
-9.64
-11.85
-13.62
-15.13
-16.65
-18.36
-20.36
-22.47
-24.34
-25.46
-25.31
-23.52
-20.00
-14.98
-8.93
-2.46
3.86
9.59
14.42
18.27
21.16
23.23
24.67
25.68
26.49
27.27
28.21
29.39
30.81
32.36
33.89
35.29
36.53
37.64
38.62
39.33
39.47
38.74
36.93
34.12
30.57
26.66
22.68
18.75
14.90
11.10
7.42
3.92
0.68
-2.41
-5.54
-9.00
-13.04
-17.64
-22.55
-27.21
-30.93
-33.10
-33.41
-31.92
-29.07
-25.49
-21.83
-18.54
-15.82
-13.70
-12.00
-10.54
-9.14
-7.67
-6.11
-4.54
-3.15
-2.13
-1.69
-1.90
-2.76
-4.14
-5.79
-7.39
-8.57
-9.01
-8.52
-7.11
-5.08
-2.90
-1.04
0.10
0.38
-0.08
-1.06
-2.36
-3.94
-5.83
-8.10
-10.79
-13.84
-17.12
-20.52
-23.87
-26.86
-29.04
-29.77
-28.45
-24.72
-18.78
-11.38
-3.65
3.20
8.27
11.23
12.23
11.86
10.76
9.47
8.36
7.61
7.37
7.87
9.36
12.04
15.90
20.61
25.60
30.12
33.50
35.28
35.26
33.45
30.06
25.41
19.95
14.21
8.78
4.25
1.05
-0.64
-0.91
-0.10
1.30
2.78
3.79
3.80
2.33
-0.96
-6.16
-12.96
-20.66
-28.19
-34.36
-38.11
-38.79
-36.27
-30.99
-23.76
-15.58
-7.40
0.03
6.21
10.91
14.08
15.75
16.01
15.06
13.24
10.97
8.80
7.24
6.62
7.07
8.44
10.38
12.45
14.24
15.39
15.65
14.91
13.17
10.55
7.30
3.70
0.11
-3.21
-6.13
-8.68
-11.00
-13.24
-15.56
-17.99
-20.54
-23.17
-25.83
-28.36
-30.43
-31.55
-31.18
-28.92
-24.77
-19.15
-12.78
-6.39
-0.54
4.55
8.85
12.44
15.29
17.31
18.40
18.59
18.07
17.19
16.34
15.83
15.75
16.06
16.51
16.83
16.80
16.35
15.51
14.37
13.01
11.45
9.64
7.51
5.08
2.46
-0.12
-2.47
-4.48
-6.24
-8.00
-10.12
-12.94
-16.63
-21.05
-25.82
-30.37
-34.02
-36.20
-36.52
-34.86
-31.37
-26.47
-20.69
-14.61
-8.70
-3.26
1.59
5.79
9.41
12.45
14.87
16.65
17.79
18.38
18.62
18.71
18.87
19.21
19.71
20.26
20.73
21.00
21.01
20.80
20.43
19.92
19.28
18.40
17.11
15.26
12.75
9.63
6.11
2.47
-1.00
-4.12
-6.88
-9.39
-11.83
-14.31
-16.98
-19.93
-23.28
-27.06
-31.18
-35.23
-38.52
-40.29
-39.84
-36.90
-31.64
-24.69
-16.84
-8.89
-1.50
4.96
10.30
14.50
17.60
19.70
20.93
21.45
21.45
21.07
20.53
19.98
19.55
19.34
19.43
19.82
20.43
21.07
21.54
21.66
21.34
20.63
19.61
18.38
16.97
15.30
13.30
10.89
8.10
5.03
1.85
-1.26
-4.19
-6.89
-9.37
-11.71
-14.05
-16.53
-19.41
-22.90
-27.09
-31.85
-36.66
-40.63
-42.81
-42.42
-39.24
-33.70
-26.72
-19.33
-12.30
-5.99
-0.38
4.62
9.06
12.76
15.54
17.30
18.20
18.54
18.68
18.82
19.05
19.29
19.48
19.65
19.94
20.47
21.28
22.21
22.99
23.34
23.13
22.38
21.21
19.79
18.14
16.19
13.86
11.13
8.10
4.96
1.86
-1.17
-4.18
-7.29
-10.57
-14.01
-17.59
-21.27
-25.04
-28.87
-32.57
-35.69
-37.63
-37.72
-35.49
-30.88
-24.33
-16.67
-8.90
-1.92
3.73
7.86
10.58
12.14
12.74
12.57
11.81
10.74
9.73
9.18
9.33
10.20
11.52
12.93
14.04
14.67
14.79
14.55
14.06
13.36
12.36
10.86
8.68
5.75
2.15
-1.84
-5.85
-9.54
-12.72
-15.34
-17.55
-19.57
-21.66
-24.07
-26.94
-30.25
-33.68
-36.69
-38.50
-38.38
-35.84
-30.85
-23.80
-15.46
-6.74
1.55
8.83
14.74
19.22
22.29
24.11
24.86
24.85
24.41
23.94
23.80
24.15
24.94
25.92
26.66
26.81
26.25
25.11
23.73
22.47
21.49
20.73
19.96
18.90
17.28
15.01
12.10
8.66
4.89
1.02
-2.74
-6.29
-9.65
-13.01
-16.65
-20.74
-25.28
-29.92
-34.08
-37.03
-38.10
-36.82
-33.10
-27.19
-19.70
-11.47
-3.39
3.78
9.50
13.53
15.92
16.92
16.98
16.64
16.44
16.89
18.20
20.32
22.82
25.12
26.74
27.56
27.84
28.12
28.95
30.52
32.60
34.55
35.62
35.24
33.24
29.87
25.63
21.14
16.83
12.99
9.68
6.80
4.21
1.70
-0.93
-3.85
-7.24
-11.25
-15.87
-20.86
-25.70
-29.57
-31.61
-31.12
-27.85
-22.15
-14.93
-7.46
-1.10
2.99
4.14
2.28
-2.01
-7.78
-13.92
-19.51
-23.98
-27.13
-28.92
-29.40
-28.59
-26.65
-23.93
-21.05
-18.74
-17.49
-17.32
-17.68
-17.67
-16.41
-13.42
-8.77
-3.12
2.60
7.39
10.53
11.76
11.32
9.85
8.16
6.92
6.42
6.49
6.60
6.16
4.72
2.14
-1.48
-5.92
-10.89
-16.02
-20.74
-24.31
-25.95
-25.08
-21.64
-16.09
-9.34
-2.40
3.93
9.22
13.39
16.63
19.19
21.18
22.64
23.48
23.65
23.25
22.53
21.86
21.62
22.01
22.96
24.21
25.37
26.10
26.22
25.70
24.57
22.88
20.64
17.87
14.65
11.13
7.52
4.04
0.82
-2.11
-4.74
-7.19
-9.59
-12.15
-15.09
-18.54
-22.50
-26.67
-30.56
-33.52
-34.92
-34.33
-31.63
-27.07
-21.16
-14.58
-8.01
-2.02
3.00
6.88
9.64
11.39
12.26
12.38
11.86
10.85
9.54
8.19
7.03
6.26
5.99
6.21
6.77
7.48
8.10
8.36
8.08
7.18
5.69
3.78
1.63
-0.64
-2.99
-5.47
-8.16
-11.12
-14.39
-17.95
-21.75
-25.58
-29.09
-31.81
-33.23
-32.89
-30.60
-26.50
-20.97
-14.62
-8.04
-1.73
3.94
8.70
12.45
15.09
16.65
17.23
17.02
16.30
15.40
14.58
14.01
13.72
13.62
13.62
13.59
13.44
13.14
12.69
12.09
11.35
10.41
9.21
7.63
5.65
3.25
0.53
-2.37
-5.40
-8.61
-12.17
-16.29
-20.97
-25.95
-30.70
-34.48
-36.60
-36.62
-34.43
-30.33
-24.84
-18.61
-12.24
-6.23
-0.91
3.55
7.13
9.93
12.13
13.84
15.12
15.94
16.31
16.30
16.08
15.84
15.76
15.89
16.15
16.39
16.47
16.34
15.99
15.42
14.55
13.25
11.39
8.97
6.09
2.97
-0.15
-3.13
-5.99
-8.88
-12.00
-15.53
-19.54
-23.94
-28.42
-32.45
-35.40
-36.61
-35.66
-32.48
-27.45
-21.24
-14.66
-8.36
-2.73
2.11
6.23
9.72
12.57
14.73
16.12
16.75
16.81
16.61
16.49
16.75
17.50
18.69
20.05
21.32
22.24
22.66
22.57
22.02
21.11
19.89
18.38
16.58
14.45
12.00
9.24
6.34
3.44
0.72
-1.73
-3.94
-6.02
-8.17
-10.54
-13.21
-16.23
-19.56
-23.19
-26.96
-30.57
-33.48
-35.05
-34.73
-32.29
-27.86
-21.95
-15.25
-8.44
-2.09
3.44
7.94
11.39
13.90
15.64
16.82
17.60
18.11
18.42
18.64
18.92
19.40
20.12
21.00
21.82
22.34
22.39
21.91
20.90
19.49
17.80
15.99
14.17
12.33
10.40
8.25
5.76
2.92
-0.14
-3.23
-6.18
-8.96
-11.71
-14.63
-17.91
-21.65
-25.74
-29.93
-33.83
-36.87
-38.50
-38.23
-35.77
-31.22
-25.04
-17.96
-10.80
-4.23
1.32
5.71
8.99
11.27
12.67
13.28
13.23
12.73
12.03
11.36
10.88
10.66
10.66
10.82
11.07
11.39
11.74
12.06
12.30
12.36
12.23
11.89
11.30
10.38
9.10
7.45
5.55
3.54
1.53
-0.53
-2.86
-5.72
-9.27
-13.45
-18.04
-22.70
-27.07
-30.81
-33.58
-35.02
-34.81
-32.82
-29.17
-24.25
-18.62
-12.83
-7.29
-2.20
2.36
6.38
9.79
12.50
14.44
15.59
16.08
16.07
15.80
15.50
15.35
15.43
15.75
16.25
16.82
17.33
17.73
17.96
18.00
17.85
17.47
16.82
15.84
14.46
12.56
10.06
6.96
3.38
-0.41
-4.09
-7.33
-9.96
-12.03
-13.79
-15.65
-17.99
-21.06
-24.90
-29.22
-33.42
-36.73
-38.44
-38.05
-35.46
-30.98
-25.21
-18.90
-12.66
-6.92
-1.88
2.45
6.19
9.54
12.63
15.53
18.18
20.41
22.00
22.87
23.06
22.78
22.31
21.86
21.57
21.49
21.62
21.92
22.32
22.66
22.73
22.38
21.49
20.03
18.03
15.49
12.39
8.76
4.80
0.87
-2.50
-4.87
-6.04
-6.19
-5.84
-5.70
-6.37
-8.20
-11.23
-15.26
-19.94
-24.79
-29.29
-32.83
-34.79
-34.67
-32.27
-27.79
-21.86
-15.32
-8.95
-3.28
1.54
5.62
9.17
12.28
14.94
17.08
18.61
19.60
20.17
20.49
20.70
20.86
21.05
21.32
21.72
22.26
22.91
23.48
23.79
23.57
22.63
20.89
18.39
15.42
12.34
9.52
7.18
5.24
3.42
1.34
-1.24
-4.29
-7.53
-10.56
-13.14
-15.33
-17.46
-19.94
-23.07
-26.82
-30.99
-35.26
-39.38
-43.17
-46.45
-48.99
-50.51
-50.79
-49.75
-47.62
-44.73
-41.39
-37.76
-33.81
-29.47
-24.71
-19.63
-14.43
-9.28
-4.23
0.78
5.91
11.28
16.91
22.68
28.35
33.63
38.23
41.90
44.50
45.88
45.95
44.66
42.04
38.24
33.55
28.33
23.02
17.93
13.24
9.03
5.25
1.83
-1.31
-4.21
-6.99
-9.74
-12.62
-15.74
-19.11
-22.54
-25.62
-27.82
-28.63
-27.76
-25.27
-21.55
-17.10
-12.42
-7.79
-3.40
0.71
4.48
7.83
10.70
13.07
14.96
16.40
17.39
17.88
17.82
17.27
16.40
15.51
14.87
14.62
14.66
14.69
14.29
13.10
11.03
8.28
5.32
2.71
0.80
-0.30
-0.82
-1.10
-1.51
-2.19
-3.16
-4.26
-5.38
-6.49
-7.64
-9.00
-10.77
-13.11
-16.15
-19.87
-23.96
-27.90
-30.94
-32.36
-31.75
-29.15
-25.01
-20.10
-15.11
-10.53
-6.50
-2.90
0.46
3.70
6.79
9.57
11.78
13.20
13.79
13.80
13.78
14.53
16.78
20.90
26.58
32.86
38.35
41.70
42.07
39.32
33.96
26.87
18.93
10.88
3.13
-4.09
-10.59
-16.31
-21.24
-25.57
-29.66
-33.97
-38.92
-44.81
-51.67
-59.32
-67.40
-75.48
-83.13
-89.87
-95.15
-98.28
-98.57
-95.45
-88.70
-78.57
-65.85
-51.67
-37.21
-23.48
-11.12
-0.33
9.03
17.20
24.42
30.78
36.21
40.55
43.70
45.65
46.52
46.59
46.14
45.44
44.65
43.85
43.08
42.29
41.40
40.33
38.89
36.91
34.29
31.00
27.17
23.00
18.77
14.75
11.16
8.09
5.55
3.49
1.81
0.35
-1.14
-2.94
-5.37
-8.60
-12.61
-17.03
-21.25
-24.56
-26.25
-25.87
-23.31
-18.83
-13.05
-6.78
-0.81
4.23
7.99
10.51
12.03
12.92
13.41
13.60
13.47
12.99
12.25
11.48
10.95
10.87
11.22
11.78
12.18
12.10
11.42
10.23
8.76
7.22
5.70
4.12
2.31
0.20
-2.16
-4.53
-6.67
-8.44
-9.91
-11.37
-13.25
-15.93
-19.57
-24.12
-29.15
-34.04
-37.95
-40.06
-39.70
-36.57
-30.78
-22.89
-13.75
-4.31
4.58
12.31
18.55
23.20
26.26
27.73
27.62
25.95
22.91
18.90
14.53
10.45
7.24
5.20
4.39
4.63
5.67
7.22
9.02
10.78
12.16
12.79
12.31
10.44
7.06
2.31
-3.44
-9.65
-15.69
-21.05
-25.46
-28.95
-31.78
-34.23
-36.34
-37.82
-38.06
-36.44
-32.61
-26.72
-19.50
-12.01
-5.23
0.15
3.94
6.30
7.66
8.43
9.00
9.66
10.64
12.14
14.26
16.99
20.13
23.31
26.01
27.72
28.07
26.84
24.08
20.10
15.35
10.34
5.56
1.38
-1.97
-4.41
-5.92
-6.57
-6.48
-5.82
-4.89
-4.17
-4.24
-5.64
-8.74
-13.52
-19.52
-25.89
-31.51
-35.30
-36.43
-34.55
-29.86
-23.04
-15.04
-6.78
1.04
8.01
14.00
18.97
22.89
25.64
27.05
27.01
25.56
22.92
19.49
15.83
12.47
9.91
8.49
8.35
9.40
11.39
13.95
16.59
18.81
20.09
20.00
18.22
14.68
9.57
3.32
-3.53
-10.47
-17.07
-23.12
-28.52
-33.19
-36.92
-39.33
-39.88
-38.06
-33.69
-26.99
-18.74
-10.00
-1.93
4.61
9.19
11.91
13.25
13.87
14.36
15.05
15.99
16.98
17.79
18.26
18.48
18.64
18.98
19.54
20.18
20.58
20.39
19.34
17.35
14.43
10.71
6.33
1.54
-3.38
-8.08
-12.25
-15.72
-18.53
-20.90
-23.21
-25.84
-28.99
-32.69
-36.68
-40.43
-43.25
-44.39
-43.29
-39.73
-33.94
-26.52
-18.25
-9.91
-2.00
5.18
11.54
17.01
21.50
24.88
27.05
28.01
27.86
26.80
25.04
22.81
20.36
17.96
15.92
14.54
13.99
14.28
15.19
16.30
17.10
17.07
15.81
13.21
9.33
4.50
-0.93
-6.65
-12.50
-18.52
-24.85
-31.58
-38.62
-45.53
-51.54
-55.63
-56.79
-54.33
-48.18
-39.00
-28.10
-17.04
-7.22
0.54
6.15
10.11
13.22
16.18
19.31
22.57
25.69
28.37
30.53
32.25
33.72
35.07
36.27
37.14
37.50
37.18
36.20
34.62
32.56
30.08
27.24
24.11
20.78
17.41
14.12
10.95
7.83
4.63
1.23
-2.47
-6.58
-11.24
-16.63
-22.94
-30.27
-38.56
-47.57
-56.85
-65.79
-73.60
-79.30
-81.86
-80.41
-74.55
-64.59
-51.60
-37.18
-23.02
-10.49
-0.35
7.20
12.43
15.79
17.86
19.24
20.57
22.36
24.93
28.26
31.98
35.54
38.44
40.40
41.39
41.57
41.15
40.29
39.05
37.42
35.32
32.65
29.27
25.09
20.11
14.49
8.58
2.88
-2.18
-6.29
-9.51
-12.19
-14.88
-18.11
-22.17
-27.06
-32.48
-38.11
-43.72
-49.30
-55.02
-61.03
-67.31
-73.52
-78.77
-81.75
-80.85
-74.66
-62.46
-44.68
-22.92
0.39
22.59
41.64
56.48
67.07
74.15
78.79
82.09
85.06
88.51
92.91
98.22
103.81
108.65
111.75
112.47
110.81
107.26
102.49
96.98
90.88
83.96
75.94
66.67
56.26
45.09
33.59
22.30
11.70
2.23
-5.79
-12.18
-16.87
-19.88
-21.18
-20.68
-18.33
-14.15
-8.34
-1.22
6.82
15.25
23.37
30.32
35.43
38.55
40.51
42.94
47.50
54.84
63.83
71.68
75.07
71.72
61.59
47.02
31.69
19.02
10.80
6.80
5.30
4.20
1.96
-1.90
-6.91
-12.23
-17.12
-21.18
-24.28
-26.23
-26.61
-24.81
-20.45
-13.75
-5.80
1.65
6.78
8.38
6.36
1.73
-3.74
-8.33
-10.78
-10.75
-8.62
-5.28
-1.74
1.02
2.23
1.30
-2.10
-7.84
-15.26
-23.17
-30.15
-34.97
-37.03
-36.52
-34.25
-31.33
-28.68
-26.78
-25.64
-25.00
-24.58
-24.25
-24.02
-23.91
-23.80
-23.44
-22.47
-20.63
-17.80
-14.07
-9.69
-4.98
-0.33
3.91
7.36
9.69
10.58
9.79
7.20
2.84
-3.02
-9.86
-16.93
-23.33
-28.35
-31.65
-33.34
-34.09
-34.79
-36.25
-38.92
-42.76
-47.22
-51.45
-54.47
-55.34
-53.41
-48.39
-40.55
-30.62
-19.73
-9.03
0.56
8.54
14.88
19.86
23.73
26.55
28.18
28.33
26.88
23.94
19.90
15.29
10.65
6.41
2.91
0.33
-1.17
-1.52
-0.78
0.86
3.07
5.35
7.17
7.99
7.34
4.95
0.92
-4.24
-9.67
-14.39
-17.74
-19.60
-20.42
-21.03
-22.20
-24.30
-27.19
-30.30
-32.92
-34.47
-34.55
-32.96
-29.66
-24.79
-18.77
-12.23
-5.90
-0.40
4.05
7.73
11.21
15.19
20.03
25.71
31.81
37.71
42.90
47.01
49.87
51.41
51.59
50.34
47.67
43.68
38.70
33.24
27.90
23.28
19.78
17.54
16.38
15.91
15.65
15.15
14.10
12.24
9.39
5.41
0.16
-6.42
-14.19
-22.86
-31.96
-41.00
-49.55
-57.28
-63.79
-68.49
-70.53
-68.92
-63.04
-52.98
-39.87
-25.64
-12.50
-2.27
4.15
6.96
7.07
5.66
3.65
1.59
-0.34
-1.96
-3.00
-2.92
-1.13
2.78
8.82
16.47
24.71
32.28
37.97
40.86
40.62
37.49
32.21
25.81
19.29
13.44
8.71
5.28
3.14
2.24
2.41
3.41
4.84
6.14
6.70
5.97
3.59
-0.58
-6.44
-13.75
-22.01
-30.44
-37.89
-43.09
-44.87
-42.54
-36.18
-26.64
-15.30
-3.65
7.05
15.97
22.65
26.95
28.86
28.51
26.19
22.38
17.75
13.05
9.01
6.16
4.74
4.76
6.09
8.47
11.67
15.37
19.24
22.74
25.28
26.25
25.22
22.09
17.14
10.92
4.07
-2.85
-9.43
-15.40
-20.52
-24.57
-27.37
-28.89
-29.31
-29.08
-28.89
-29.55
-31.74
-35.78
-41.36
-47.55
-52.92
-55.97
-55.59
-51.43
-43.99
-34.32
-23.65
-12.94
-2.73
6.82
15.67
23.75
30.77
36.29
39.85
41.17
40.23
37.37
33.22
28.55
24.14
20.57
18.17
16.97
16.83
17.54
18.91
20.77
22.85
24.82
26.15
26.30
24.80
21.43
16.21
9.48
1.75
-6.32
-14.09
-21.01
-26.67
-30.89
-33.69
-35.28
-36.06
-36.52
-37.18
-38.42
-40.33
-42.62
-44.59
-45.32
-43.98
-40.13
-33.94
-26.19
-18.02
-10.49
-4.21
0.80
5.02
9.17
13.90
19.54
26.09
33.14
39.98
45.65
49.14
49.67
46.92
41.32
33.95
26.22
19.32
13.89
9.72
6.20
2.64
-1.23
-5.04
-8.12
-9.63
-9.30
-7.31
-4.47
-1.77
-0.06
0.23
-0.72
-2.30
-3.70
-4.41
-4.42
-4.39
-5.35
-8.31
-13.80
-21.62
-30.85
-40.13
-47.97
-53.15
-54.87
-52.90
-47.62
-40.00
-31.39
-23.29
-16.94
-13.02
-11.39
-11.25
-11.43
-10.58
-7.87
-2.93
3.88
11.68
19.32
25.68
29.98
31.80
31.16
28.40
24.04
18.72
13.10
7.84
3.47
0.42
-1.12
-1.11
0.32
2.92
6.26
9.79
12.86
14.80
15.14
13.68
10.58
6.20
1.02
-4.62
-10.56
-16.74
-23.03
-29.01
-33.86
-36.46
-35.73
-30.97
-22.34
-10.87
1.63
13.06
21.66
26.45
27.43
25.40
21.52
16.92
12.43
8.61
5.89
4.70
5.47
8.44
13.41
19.69
26.14
31.51
34.76
35.45
33.70
30.13
25.48
20.29
14.72
8.63
1.93
-5.07
-11.47
-15.93
-17.16
-14.60
-8.86
-1.78
4.07
6.31
3.68
-3.57
-13.74
-24.57
-34.21
-41.91
-48.18
-54.21
-60.84
-67.63
-72.56
-72.55
-64.76
-48.14
-24.47
1.64
23.90
36.39
35.64
21.92
-0.49
-24.36
-41.33
-44.25
-29.43
1.58
41.53
78.71
100.47
97.87
69.51
22.87
-28.30
-69.34
-90.60
-91.08
-78.07
-62.91
-55.16
-57.97
-67.17
-73.95
-70.00
-52.12
-24.08
5.00
24.50
26.36
7.72
-28.81
-76.68
-127.71
-174.36
-210.98
-234.50
-244.37
-242.39
-231.91
-216.89
-200.90
-186.37
-174.19
-163.73
-153.19
-140.14
-122.39
-98.87
-70.40
-39.85
-11.29
11.40
26.07
32.86
34.05
33.17
33.89
38.97
49.65
65.47
84.39
103.39
119.53
130.76
136.72
138.57
138.26
137.47
136.91
135.94
133.14
127.06
116.95
103.19
87.11
70.60
55.55
43.51
35.53
32.09
33.20
38.35
46.60
56.56
66.59
75.05
80.50
81.98
79.15
72.44
63.03
52.73
43.57
37.27
34.77
35.83
39.23
43.23
46.27
47.55
47.16
45.87
44.67
44.27
44.81
45.88
46.74
46.59
44.78
41.08
35.54
28.45
20.23
11.33
2.19
-6.72
-14.91
-21.91
-27.31
-30.83
-32.52
-32.77
-32.41
-32.64
-34.75
-39.81
-48.21
-59.40
-71.89
-83.56
-92.26
-96.42
-95.36
-89.33
-79.19
-66.06
-50.99
-34.86
-18.46
-2.69
11.33
22.33
29.13
31.01
28.05
21.25
12.39
3.65
-2.88
-5.66
-3.96
2.09
11.71
23.72
36.89
50.15
62.67
73.84
83.00
89.40
92.06
90.02
82.76
70.64
55.10
38.51
23.50
12.33
6.22
5.05
7.64
12.16
16.88
20.55
22.79
23.85
24.30
24.55
24.45
23.35
20.41
15.23
8.23
0.78
-5.24
-8.09
-6.81
-1.52
6.73
16.37
25.80
33.69
39.21
42.01
42.26
40.47
37.28
33.20
28.41
22.85
16.54
9.93
4.01
0.06
-0.92
1.27
5.95
11.82
17.62
22.49
26.24
28.95
30.69
31.25
30.10
26.76
21.07
13.37
4.45
-4.53
-12.41
-18.19
-21.19
-21.10
-17.90
-11.79
-3.14
7.55
19.56
31.94
43.50
52.93
59.00
60.68
57.36
49.07
36.57
21.50
6.16
-6.98
-15.97
-20.05
-19.74
-16.64
-12.62
-9.10
-6.70
-5.26
-4.29
-3.38
-2.38
-1.46
-0.99
-1.42
-3.14
-6.27
-10.45
-14.80
-18.15
-19.65
-19.30
-18.10
-17.58
-18.97
-22.51
-27.31
-31.91
-35.18
-37.00
-38.31
-40.59
-44.91
-51.27
-58.40
-64.10
-65.96
-62.21
-52.48
-38.05
-21.61
-6.26
5.63
13.40
18.28
22.80
29.41
39.23
51.40
63.32
71.86
74.72
71.52
64.11
55.85
50.43
50.37
56.13
65.78
75.66
81.62
80.34
70.55
53.53
33.02
14.21
2.11
-0.35
6.24
17.68
27.46
29.28
19.52
-1.21
-28.39
-55.47
-76.57
-88.53
-91.43
-87.70
-80.27
-71.23
-61.29
-50.47
-38.89
-27.30
-16.75
-7.74
0.28
8.80
19.21
31.58
44.06
53.39
56.32
51.07
38.16
20.21
0.88
-16.31
-28.85
-35.56
-36.46
-32.42
-24.81
-15.09
-4.39
6.72
18.33
30.85
44.48
58.79
72.54
84.02
91.64
94.52
92.80
87.53
80.08
71.63
62.83
53.68
43.89
33.14
21.37
8.87
-3.82
-16.01
-27.00
-36.25
-43.51
-48.93
-52.99
-56.35
-59.58
-62.93
-66.17
-68.71
-69.89
-69.35
-67.16
-63.54
-58.60
-52.18
-44.43
-36.31
-29.72
-26.64
-27.51
-30.32
-31.02
-25.62
-12.63
5.64
24.00
37.06
42.05
40.08
35.08
31.25
30.82
33.35
36.83
39.34
40.12
39.45
37.63
34.18
27.68
16.42
-0.56
-22.78
-48.17
-73.63
-96.08
-113.41
-125.21
-132.72
-138.03
-143.13
-148.72
-153.93
-156.68
-154.69
-146.58
-132.60
-114.39
-94.34
-74.55
-56.12
-39.15
-23.13
-7.58
7.59
21.92
34.82
45.94
55.32
63.42
70.80
77.73
84.06
89.27
92.78
94.33
94.11
92.68
90.69
88.64
86.67
84.64
82.29
79.45
76.10
72.31
68.21
63.80
58.98
53.55
47.37
40.53
33.33
26.24
19.73
14.03
9.09
4.64
0.26
-4.31
-9.12
-13.97
-18.49
-22.22
-24.67
-25.46
-24.43
-21.80
-18.22
-14.60
-11.75
-10.01
-9.11
-8.30
-6.81
-4.23
-0.77
2.96
6.33
9.03
11.13
12.92
14.60
16.11
17.14
17.43
17.03
16.26
15.63
15.44
15.66
15.91
15.67
14.57
12.50
9.65
6.34
2.93
-0.16
-2.49
-3.63
-3.27
-1.53
0.97
3.07
3.46
1.17
-3.85
-10.54
-16.93
-20.80
-20.42
-15.16
-5.62
6.89
20.91
35.44
50.08
64.82
79.71
94.45
108.38
120.60
130.28
136.74
139.53
138.40
133.42
125.22
115.02
104.47
95.19
88.13
83.15
79.02
73.88
66.01
54.50
39.71
23.14
6.95
-6.68
-16.13
-20.71
-20.65
-16.98
-11.11
-4.58
1.19
4.97
5.69
2.52
-5.13
-17.39
-33.97
-54.09
-76.67
-100.43
-123.93
-145.74
-164.53
-179.42
-190.12
-197.04
-201.11
-203.52
-205.41
-207.80
-211.44
-216.77
-223.58
-230.82
-236.62
-238.76
-235.49
-226.38
-212.62
-196.59
-180.93
-167.28
-155.75
-145.05
-133.26
-118.80
-101.10
-80.72
-59.02
-37.64
-18.07
-1.51
11.07
18.88
21.31
18.06
9.44
-3.57
-19.40
-36.21
-52.66
-68.52
-84.92
-103.89
-126.85
-153.03
-178.65
-197.66
-203.87
-193.67
-167.44
-129.03
-83.63
-35.32
13.97
63.80
113.31
159.89
199.32
227.56
242.83
246.77
243.78
239.20
237.27
240.10
247.80
259.16
272.52
286.13
298.19
306.99
311.17
310.00
303.57
292.69
278.53
262.27
244.85
226.83
208.45
189.50
169.36
147.14
121.97
93.52
62.45
30.50
0.11
-26.44
-47.78
-63.94
-75.98
-85.22
-92.27
-96.52
-96.39
-90.20
-77.23
-58.38
-36.03
-13.16
7.86
25.95
41.46
55.49
69.00
82.08
93.95
103.29
108.89
110.03
106.55
98.67
86.74
71.15
52.43
31.39
9.12
-13.24
-34.94
-55.90
-76.76
-98.48
-121.85
-146.96
-172.92
-197.95
-219.78
-236.13
-245.28
-246.47
-240.10
-227.63
-211.18
-192.92
-174.60
-157.15
-140.80
-125.49
-111.33
-99.07
-90.12
-86.15
-88.30
-96.34
-108.20
-120.36
-129.02
-131.59
-127.92
-120.36
-112.69
-108.45
-109.35
-114.79
-122.50
-129.92
-135.39
-138.58
-139.90
-139.61
-137.13
-131.07
-119.90
-102.89
-80.60
-54.68
-27.18
0.29
26.94
52.55
76.88
99.03
117.50
130.68
137.70
139.06
136.51
132.40
128.69
126.34
125.15
124.23
122.65
119.90
116.06
111.60
107.02
102.66
98.56
94.51
90.24
85.56
80.49
75.15
69.71
64.29
58.82
53.17
47.20
40.92
34.50
28.23
22.37
17.02
12.10
7.36
2.51
-2.64
-8.14
-13.91
-19.85
-25.89
-31.99
-38.02
-43.72
-48.51
-51.68
-52.53
-50.75
-46.51
-40.53
-33.74
-26.97
-20.66
-14.77
-9.00
-3.04
3.20
9.54
15.65
21.15
25.70
29.00
30.83
30.98
29.46
26.56
22.86
19.09
15.93
13.80
12.80
12.77
13.39
14.33
15.31
16.09
16.47
16.14
14.76
11.91
7.30
0.85
-7.11
-15.86
-24.34
-31.37
-35.95
-37.39
-35.51
-30.54
-23.04
-13.79
-3.66
6.51
15.96
24.08
30.43
34.81
37.16
37.61
36.48
34.18
31.25
28.22
25.55
23.55
22.38
22.08
22.63
24.04
26.25
29.00
31.84
34.02
34.76
33.48
30.01
24.65
18.07
11.05
4.24
-1.97
-7.54
-12.64
-17.53
-22.38
-27.08
-31.23
-34.07
-34.76
-32.56
-27.26
-19.37
-10.06
-0.89
6.71
11.93
14.71
15.66
15.65
15.37
15.20
15.11
14.95
14.75
14.73
15.29
16.72
19.02
21.90
24.81
27.20
28.62
28.88
27.99
26.11
23.47
20.27
16.68
12.78
8.70
4.64
0.91
-2.03
-3.81
-4.24
-3.56
-2.46
-1.93
-2.98
-6.21
-11.65
-18.61
-25.85
-31.96
-35.76
-36.61
-34.45
-29.74
-23.22
-15.64
-7.62
0.37
7.97
14.87
20.76
25.32
28.30
29.58
29.21
27.47
24.84
21.88
19.11
16.88
15.29
14.33
13.94
14.14
15.03
16.63
18.72
20.79
22.13
22.02
20.02
16.16
10.90
4.96
-0.93
-6.26
-10.90
-15.05
-19.08
-23.34
-27.89
-32.34
-35.88
-37.41
-35.99
-31.16
-23.19
-13.07
-2.23
7.85
16.03
21.67
24.64
25.20
23.77
20.87
17.02
12.84
8.97
6.00
4.41
4.40
5.88
8.46
11.64
14.87
17.72
19.86
21.03
20.99
19.58
16.73
12.57
7.47
1.93
-3.53
-8.46
-12.62
-15.95
-18.54
-20.57
-22.26
-23.71
-24.88
-25.52
-25.26
-23.73
-20.75
-16.43
-11.24
-5.81
-0.80
3.27
6.18
7.96
8.85
9.23
9.50
10.02
11.05
12.68
14.86
17.39
19.98
22.29
24.00
24.93
24.99
24.27
22.93
21.11
18.88
16.26
13.21
9.78
6.13
2.49
-0.81
-3.56
-5.71
-7.36
-8.79
-10.41
-12.60
-15.66
-19.76
-24.80
-30.43
-36.04
-40.79
-43.83
-44.40
-42.08
-36.92
-29.41
-20.41
-10.96
-2.06
5.52
11.30
15.15
17.17
17.64
16.93
15.40
13.40
11.18
8.99
7.05
5.57
4.73
4.64
5.31
6.67
8.57
10.84
13.28
15.60
17.43
18.29
17.74
15.50
11.57
6.34
0.42
-5.51
-10.91
-15.48
-19.13
-21.91
-23.94
-25.40
-26.49
-27.39
-28.20
-28.86
-29.06
-28.40
-26.52
-23.33
-19.03
-14.14
-9.28
-4.93
-1.40
1.37
3.58
5.56
7.59
9.82
12.23
14.62
16.71
18.23
19.01
18.97
18.16
16.70
14.72
12.42
9.95
7.56
5.48
3.94
3.13
3.13
3.89
5.21
6.77
8.16
8.94
8.74
7.36
4.81
1.29
-2.88
-7.39
-12.02
-16.68
-21.37
-26.10
-30.78
-35.12
-38.68
-40.83
-41.00
-38.83
-34.35
-28.04
-20.74
-13.44
-7.00
-1.97
1.47
3.44
4.26
4.28
3.85
3.29
2.95
3.11
3.96
5.51
7.63
10.07
12.54
14.79
16.57
17.67
17.91
17.17
15.46
12.94
9.93
6.82
3.99
1.68
-0.03
-1.14
-1.77
-2.00
-1.94
-1.66
-1.30
-1.10
-1.38
-2.48
-4.63
-7.84
-11.94
-16.65
-21.64
-26.62
-31.22
-34.88
-36.87
-36.47
-33.25
-27.32
-19.49
-11.01
-3.20
2.98
7.21
9.68
10.83
11.09
10.74
9.85
8.52
7.01
5.77
5.27
5.86
7.58
10.13
12.99
15.64
17.68
18.95
19.40
19.03
17.85
15.86
13.15
9.92
6.49
3.16
0.18
-2.28
-4.14
-5.33
-5.81
-5.66
-5.13
-4.69
-4.95
-6.42
-9.42
-13.88
-19.43
-25.45
-31.22
-35.97
-39.02
-39.80
-37.96
-33.54
-26.92
-18.83
-10.17
-1.86
5.36
10.98
14.76
16.73
17.12
16.25
14.50
12.24
9.77
7.37
5.34
4.00
3.59
4.20
5.73
7.87
10.25
12.55
14.60
16.28
17.43
17.85
17.21
15.34
12.31
8.45
4.30
0.36
-3.08
-5.96
-8.37
-10.35
-11.83
-12.67
-12.81
-12.43
-12.01
-12.24
-13.78
-16.96
-21.62
-27.04
-32.17
-35.94
-37.59
-36.87
-34.02
-29.54
-24.06
-18.14
-12.19
-6.54
-1.51
2.68
5.85
7.99
9.27
9.88
10.02
9.82
9.32
8.55
7.63
6.79
6.35
6.60
7.71
9.67
12.21
14.88
17.14
18.54
18.78
17.75
15.59
12.60
9.21
5.83
2.82
0.37
-1.48
-2.77
-3.64
-4.21
-4.65
-5.10
-5.79
-6.99
-9.04
-12.25
-16.77
-22.43
-28.64
-34.48
-38.84
-40.80
-39.86
-36.12
-30.24
-23.15
-15.72
-8.58
-2.01
3.92
9.17
13.68
17.25
19.64
20.68
20.33
18.77
16.40
13.75
11.33
9.58
8.69
8.62
9.19
10.16
11.30
12.51
13.76
15.00
16.11
16.92
17.16
16.60
15.09
12.60
9.29
5.40
1.24
-2.86
-6.67
-10.02
-12.85
-15.25
-17.44
-19.66
-22.07
-24.71
-27.33
-29.50
-30.66
-30.37
-28.45
-24.98
-20.38
-15.23
-10.10
-5.47
-1.60
1.44
3.75
5.52
6.90
7.99
8.81
9.32
9.58
9.69
9.82
10.16
10.82
11.75
12.76
13.61
14.06
14.02
13.56
12.86
12.16
11.61
11.23
10.81
10.14
8.98
7.22
4.91
2.26
-0.54
-3.29
-5.90
-8.33
-10.58
-12.66
-14.63
-16.62
-18.78
-21.31
-24.23
-27.26
-29.83
-31.14
-30.50
-27.57
-22.56
-16.24
-9.58
-3.52
1.36
4.89
7.22
8.61
9.26
9.29
8.80
7.94
6.97
6.24
6.05
6.63
7.95
9.81
11.84
13.68
15.10
16.02
16.55
16.77
16.77
16.53
15.94
14.88
13.32
11.31
8.97
6.48
4.01
1.72
-0.29
-2.03
-3.61
-5.24
-7.18
-9.65
-12.71
-16.24
-19.85
-22.93
-24.79
-24.80
-22.66
-18.49
-12.86
-6.63
-0.64
4.46
8.38
11.17
13.07
14.31
14.98
15.08
14.62
13.73
12.70
11.90
11.69
12.22
13.41
15.01
16.68
18.08
19.00
19.37
19.19
18.53
17.48
16.09
14.34
12.14
9.43
6.29
2.94
-0.22
-2.81
-4.64
-5.84
-6.80
-8.05
-9.97
-12.75
-16.27
-20.23
-24.18
-27.64
-30.08
-31.01
-30.06
-27.09
-22.36
-16.47
-10.24
-4.50
0.21
3.69
6.09
7.73
8.95
9.88
10.56
10.98
11.17
11.29
11.52
12.02
12.83
13.85
14.95
15.97
16.81
17.40
17.69
17.60
17.10
16.21
14.97
13.47
11.72
9.72
7.42
4.83
2.05
-0.79
-3.53
-6.06
-8.35
-10.48
-12.58
-14.78
-17.22
-20.01
-23.19
-26.65
-30.05
-32.83
-34.25
-33.66
-30.78
-25.85
-19.57
-12.93
-6.83
-1.82
2.02
4.93
7.29
9.36
11.17
12.51
13.15
12.96
12.06
10.82
9.71
9.10
9.14
9.64
10.23
10.58
10.56
10.32
10.16
10.38
11.08
12.06
12.93
13.23
12.64
11.09
8.86
6.53
4.81
4.35
5.46
7.96
11.11
13.71
14.44
12.21
6.66
-1.59
-10.87
-18.78
-22.89
-21.52
-14.45
-3.14
9.74
21.27
29.22
32.72
32.39
29.74
26.41
23.57
21.61
20.39
19.54
18.78
17.99
17.08
15.72
13.38
9.37
3.18
-5.24
-15.38
-26.34
-37.15
-47.21
-56.33
-64.67
-72.37
-79.25
-84.71
-87.84
-87.83
-84.27
-77.45
-68.30
-58.18
-48.53
-40.52
-34.79
-31.31
-29.45
-28.18
-26.38
-23.10
-17.72
-10.09
-0.49
10.44
21.79
32.63
42.15
49.91
55.90
60.48
64.12
67.26
70.17
72.88
75.36
77.57
79.62
81.65
83.82
86.18
88.61
90.86
92.66
93.80
94.26
94.20
93.85
93.35
92.63
91.32
88.85
84.53
77.76
68.09
55.43
40.10
22.83
4.66
-13.44
-30.91
-47.78
-64.56
-81.68
-99.07
-115.86
-130.56
-141.56
-147.72
-148.56
-144.21
-135.19
-122.08
-105.63
-86.71
-66.53
-46.36
-27.37
-10.29
4.64
17.64
29.08
39.24
48.13
55.56
61.21
64.74
65.99
64.88
61.50
55.90
48.10
38.03
25.65
11.18
-4.82
-21.36
-37.20
-51.11
-62.07
-69.57
-73.56
-74.43
-72.84
-69.53
-65.06
-59.71
-53.37
-45.70
-36.38
-25.33
-12.98
-0.22
11.85
22.13
29.77
34.30
35.54
33.57
28.62
21.11
11.72
1.50
-8.29
-16.32
-21.58
-23.60
-22.57
-19.13
-14.15
-8.32
-1.96
4.91
12.36
20.29
28.30
35.73
41.83
46.00
47.82
47.13
43.86
38.05
29.82
19.44
7.49
-5.06
-17.04
-27.17
-34.46
-38.46
-39.42
-38.15
-35.76
-33.21
-30.90
-28.63
-25.63
-21.02
-14.25
-5.34
5.04
15.75
25.56
33.37
38.42
40.27
38.81
34.16
26.72
17.25
6.79
-3.32
-11.75
-17.40
-19.70
-18.74
-15.18
-9.99
-4.08
1.99
8.13
14.57
21.54
28.98
36.41
43.00
47.85
50.28
49.98
47.03
41.74
34.51
25.70
15.71
5.05
-5.54
-15.22
-23.19
-28.90
-32.24
-33.51
-33.24
-32.02
-30.25
-28.10
-25.62
-22.84
-19.89
-16.94
-14.14
-11.50
-8.90
-6.26
-3.67
-1.48
-0.26
-0.53
-2.53
-6.04
-10.31
-14.35
-17.16
-18.02
-16.67
-13.26
-8.25
-2.08
4.87
12.42
20.46
28.84
37.19
44.87
51.17
55.47
57.52
57.42
55.56
52.28
47.71
41.75
34.17
24.98
14.59
3.93
-5.87
-13.74
-19.11
-21.90
-22.55
-21.69
-19.89
-17.49
-14.63
-11.40
-7.92
-4.47
-1.42
0.87
2.11
2.07
0.61
-2.43
-7.05
-13.09
-20.02
-27.02
-33.09
-37.32
-39.19
-38.56
-35.75
-31.29
-25.73
-19.54
-13.08
-6.57
-0.19
5.94
11.76
17.23
22.37
27.09
31.19
34.32
36.02
35.79
33.30
28.46
21.54
13.13
4.05
-4.80
-12.65
-18.88
-23.15
-25.40
-25.81
-24.70
-22.48
-19.52
-16.10
-12.36
-8.44
-4.50
-0.87
2.05
3.83
4.21
3.21
1.13
-1.52
-4.26
-6.74
-8.87
-10.77
-12.60
-14.44
-16.14
-17.31
-17.44
-16.12
-13.27
-9.18
-4.38
0.60
5.45
10.19
15.08
20.35
25.93
31.44
36.22
39.53
40.74
39.53
35.88
30.05
22.54
14.06
5.35
-2.86
-9.95
-15.48
-19.31
-21.50
-22.37
-22.31
-21.71
-20.81
-19.63
-18.03
-15.85
-13.04
-9.77
-6.37
-3.23
-0.69
1.09
2.04
2.16
1.47
-0.02
-2.30
-5.28
-8.70
-12.09
-14.88
-16.47
-16.41
-14.55
-11.14
-6.73
-1.96
2.65
6.82
10.62
14.27
18.00
21.92
25.94
29.76
32.94
34.96
35.29
33.44
29.09
22.03
12.41
0.66
-12.41
-25.67
-37.87
-47.76
-54.38
-57.30
-56.69
-53.26
-48.05
-42.07
-36.04
-30.32
-24.93
-19.84
-15.04
-10.61
-6.60
-2.98
0.40
3.63
6.58
8.78
9.51
8.05
4.04
-2.24
-9.92
-17.72
-24.25
-28.40
-29.57
-27.70
-23.22
-16.80
-9.21
-1.15
6.79
14.16
20.62
26.02
30.33
33.66
36.09
37.56
37.77
36.25
32.43
26.00
17.04
6.21
-5.38
-16.32
-25.30
-31.40
-34.25
-34.14
-31.85
-28.39
-24.81
-21.97
-20.41
-20.24
-21.12
-22.21
-22.41
-20.63
-16.28
-9.60
-1.72
5.65
10.80
12.63
10.98
6.63
0.91
-4.76
-9.24
-11.83
-12.31
-10.76
-7.47
-2.92
2.34
7.74
12.88
17.50
21.57
25.18
28.40
31.12
33.03
33.71
32.76
30.01
25.56
19.79
13.24
6.50
0.10
-5.50
-10.02
-13.30
-15.32
-16.26
-16.40
-16.12
-15.83
-15.84
-16.30
-17.10
-17.83
-17.93
-16.86
-14.29
-10.29
-5.38
-0.32
4.05
7.08
8.45
8.24
6.82
4.70
2.42
0.37
-1.14
-1.89
-1.76
-0.70
1.14
3.47
5.96
8.36
10.65
13.02
15.72
18.85
22.20
25.28
27.57
28.63
28.38
26.94
24.59
21.54
17.95
13.95
9.74
5.70
2.26
-0.21
-1.57
-1.98
-1.89
-1.88
-2.47
-4.01
-6.65
-10.20
-14.20
-17.95
-20.61
-21.47
-20.17
-16.91
-12.39
-7.62
-3.59
-0.96
0.09
-0.20
-1.31
-2.68
-3.79
-4.28
-3.96
-2.84
-1.04
1.25
3.94
7.04
10.65
14.78
19.31
23.83
27.77
30.60
31.93
31.71
30.05
27.23
23.49
19.03
13.96
8.41
2.57
-3.25
-8.58
-12.93
-15.86
-17.19
-17.05
-15.82
-14.07
-12.32
-10.93
-10.02
-9.56
-9.29
-8.94
-8.15
-6.62
-4.22
-1.11
2.29
5.23
6.93
6.74
4.42
0.23
-5.10
-10.52
-15.03
-17.89
-18.81
-17.90
-15.59
-12.43
-8.82
-5.01
-1.10
2.92
6.98
10.91
14.48
17.40
19.43
20.36
20.01
18.18
14.68
9.45
2.63
-5.25
-13.35
-20.66
-26.29
-29.80
-31.27
-31.25
-30.50
-29.61
-28.86
-28.09
-26.84
-24.57
-20.90
-15.72
-9.23
-1.98
5.26
11.71
16.63
19.52
20.16
18.64
15.37
11.02
6.41
2.42
-0.20
-0.98
0.14
2.86
6.62
10.83
14.95
18.61
21.58
23.71
24.92
25.18
24.49
22.89
20.43
17.17
13.11
8.30
2.81
-3.09
-9.02
-14.45
-18.91
-22.13
-24.13
-25.09
-25.31
-24.95
-23.93
-22.03
-19.04
-14.94
-9.93
-4.36
1.38
6.95
12.07
16.41
19.60
21.31
21.40
20.01
17.59
14.78
12.19
10.24
9.10
8.73
8.90
9.34
9.75
9.88
9.58
8.85
7.84
6.78
5.85
5.07
4.32
3.35
1.96
0.13
-1.99
-4.08
-5.84
-7.20
-8.32
-9.59
-11.43
-13.98
-17.03
-19.94
-21.93
-22.30
-20.71
-17.30
-12.55
-7.16
-1.79
3.05
7.10
10.32
12.77
14.58
15.81
16.45
16.53
16.15
15.63
15.39
15.89
17.35
19.63
22.28
24.66
26.21
26.74
26.52
26.22
26.59
28.15
30.93
34.42
37.70
39.69
39.57
36.91
31.77
24.69
16.63
8.90
3.00
0.23
1.12
5.05
10.22
14.35
15.57
13.20
8.04
1.83
-3.66
-7.39
-9.46
-10.76
-12.21
-14.12
-15.98
-16.63
-15.07
-10.92
-4.82
1.62
6.12
6.36
0.58
-11.63
-28.85
-47.82
-64.10
-73.21
-71.95
-59.25
-36.12
-4.99
31.29
69.91
108.15
143.00
171.33
190.42
198.94
197.31
187.38
171.56
151.97
130.25
107.97
86.97
69.09
55.21
44.32
33.38
18.66
-2.19
-28.53
-56.31
-79.30
-91.26
-88.11
-69.42
-39.03
-4.41
25.25
41.72
40.50
22.50
-6.33
-37.27
-62.15
-76.21
-79.15
-74.26
-66.27
-59.43
-56.59
-59.31
-68.38
-83.86
-104.72
-128.37
-150.97
-168.48
-178.05
-179.22
-173.95
-165.86
-158.68
-155.14
-156.06
-160.65
-166.92
-172.17
-173.53
-168.47
-155.78
-136.33
-113.38
-91.50
-74.46
-62.96
-53.71
-40.76
-18.50
15.24
57.73
102.61
142.80
173.59
194.11
206.65
214.75
221.30
227.78
234.49
241.12
246.95
250.66
249.92
241.83
223.78
195.13
158.57
120.67
90.65
77.60
86.75
116.23
156.06
190.65
204.11
186.49
137.96
68.90
-4.55
-67.25
-110.87
-136.05
-150.03
-161.54
-175.73
-192.04
-205.60
-210.64
-203.53
-183.84
-153.47
-115.45
-73.47
-32.24
2.24
23.71
27.94
15.01
-10.35
-40.63
-68.82
-91.26
-107.98
-121.07
-132.12
-140.50
-143.27
-136.47
-117.14
-84.99
-43.74
-0.99
33.25
49.61
43.14
15.57
-24.98
-67.11
-100.69
-120.41
-126.51
-122.77
-113.33
-100.51
-84.90
-66.98
-48.86
-34.63
-29.02
-35.15
-52.66
-77.37
-102.37
-120.67
-127.79
-123.26
-110.63
-95.73
-84.44
-80.74
-85.72
-97.42
-111.47
-122.03
-123.15
-110.43
-82.63
-42.58
3.27
46.95
81.90
105.21
118.20
124.87
129.38
133.94
138.44
141.48
141.93
139.88
136.27
132.05
127.31
121.29
113.14
102.90
91.98
82.95
78.69
81.35
91.60
108.43
129.15
149.74
165.33
171.15
163.75
142.36
109.50
70.43
31.42
-2.50
-29.09
-49.06
-64.91
-79.16
-93.18
-107.04
-120.21
-132.24
-142.93
-151.69
-157.09
-157.11
-150.25
-136.86
-119.75
-103.60
-93.27
-91.91
-99.89
-114.80
-132.58
-148.93
-160.47
-165.25
-162.77
-153.70
-139.62
-122.69
-105.29
-89.48
-76.39
-65.88
-56.56
-46.35
-33.18
-15.87
5.56
29.91
55.29
79.77
101.81
120.50
135.51
146.90
154.84
159.56
161.25
160.18
156.71
151.30
144.50
136.90
128.97
121.11
113.60
106.64
100.41
95.04
90.56
86.85
83.67
80.81
78.19
76.06
74.87
75.10
76.97
80.20
83.97
87.11
88.47
87.35
83.80
78.63
73.25
69.21
67.75
69.46
74.02
80.30
86.58
91.05
92.26
89.64
83.67
75.86
68.21
62.55
59.95
60.34
62.59
64.79
64.84
61.00
52.62
40.54
27.04
15.29
8.00
6.20
8.61
12.06
12.89
8.46
-1.88
-16.93
-34.56
-52.74
-70.22
-86.24
-100.07
-110.73
-117.21
-118.98
-116.53
-111.30
-105.19
-99.83
-96.03
-93.68
-92.02
-90.19
-87.67
-84.50
-81.26
-78.79
-77.82
-78.61
-80.87
-83.91
-86.84
-89.04
-90.21
-90.37
-89.65
-88.09
-85.58
-82.03
-77.52
-72.44
-67.33
-62.64
-58.41
-54.22
-49.29
-42.93
-34.82
-25.18
-14.62
-3.87
6.50
16.22
25.27
33.66
41.32
48.09
53.82
58.58
62.75
66.86
71.38
76.31
81.13
85.00
87.08
87.04
85.19
82.26
79.12
76.35
74.10
72.14
70.09
67.62
64.55
60.77
56.15
50.51
43.73
35.85
27.15
18.14
9.41
1.51
-5.20
-10.48
-14.22
-16.44
-17.13
-16.42
-14.47
-11.63
-8.26
-4.76
-1.40
1.66
4.30
6.53
8.27
9.41
9.75
9.12
7.50
5.09
2.40
0.12
-1.04
-0.57
1.62
5.21
9.51
13.74
17.18
19.40
20.27
19.94
18.66
16.70
14.29
11.61
8.85
6.14
3.62
1.22
-1.23
-4.12
-7.84
-12.69
-18.69
-25.44
-32.14
-37.71
-41.10
-41.60
-39.08
-34.11
-27.76
-21.31
-15.74
-11.51
-8.47
-6.11
-3.82
-1.27
1.58
4.47
7.05
9.03
10.23
10.61
10.19
9.07
7.43
5.63
4.16
3.53
4.11
5.97
8.78
11.83
14.24
15.20
14.20
11.23
6.71
1.44
-3.69
-7.97
-10.97
-12.67
-13.42
-13.82
-14.48
-15.91
-18.34
-21.71
-25.65
-29.64
-33.07
-35.35
-36.04
-34.91
-32.05
-27.77
-22.65
-17.32
-12.28
-7.85
-4.03
-0.63
2.70
6.32
10.41
14.95
19.59
23.74
26.79
28.26
28.05
26.47
24.03
21.37
18.93
16.91
15.34
14.07
12.90
11.64
10.14
8.38
6.47
4.63
3.07
1.99
1.45
1.40
1.71
2.20
2.65
2.79
2.34
1.05
-1.25
-4.59
-8.84
-13.71
-18.78
-23.51
-27.23
-29.29
-29.10
-26.39
-21.23
-13.99
-5.15
4.75
15.30
26.11
36.71
46.46
54.59
60.43
63.60
64.20
62.69
59.61
55.40
50.30
44.57
38.75
33.87
31.24
31.88
35.99
42.62
50.01
56.29
60.31
62.10
62.63
63.11
64.18
65.42
65.57
63.24
57.69
49.29
39.33
29.43
20.82
14.10
9.28
6.29
5.30
6.66
10.54
16.35
22.70
27.72
29.80
28.31
23.77
17.39
10.39
3.48
-3.09
-8.87
-12.67
-12.52
-6.44
6.25
23.98
42.91
58.04
64.97
61.39
47.76
26.71
1.84
-23.59
-47.38
-68.36
-85.95
-99.66
-108.99
-113.57
-113.58
-109.91
-104.16
-98.08
-93.08
-89.72
-87.69
-86.11
-84.20
-81.69
-79.07
-77.41
-77.77
-80.81
-86.42
-93.70
-101.28
-107.78
-112.24
-114.33
-114.43
-113.31
-111.84
-110.64
-109.87
-109.30
-108.50
-107.00
-104.56
-101.07
-96.54
-90.99
-84.35
-76.52
-67.40
-57.02
-45.57
-33.44
-21.19
-9.33
1.73
11.78
20.92
29.47
37.85
46.47
55.53
64.91
74.20
82.69
89.64
94.38
96.47
95.77
92.38
86.59
78.79
69.48
59.22
48.63
38.34
28.85
20.53
13.48
7.67
2.89
-1.01
-4.20
-6.77
-8.77
-10.30
-11.53
-12.70
-14.00
-15.55
-17.27
-18.94
-20.28
-21.14
-21.57
-21.79
-22.07
-22.46
-22.73
-22.43
-21.14
-18.63
-15.07
-10.92
-6.70
-2.79
0.71
3.98
7.26
10.74
14.37
17.95
21.13
23.58
24.99
25.12
23.86
21.23
17.39
12.61
7.24
1.70
-3.58
-8.19
-11.76
-14.04
-14.98
-14.80
-13.96
-13.03
-12.48
-12.60
-13.42
-14.86
-16.75
-18.96
-21.28
-23.46
-25.11
-25.88
-25.57
-24.23
-22.19
-19.85
-17.53
-15.35
-13.16
-10.76
-7.99
-4.82
-1.38
2.06
5.21
7.79
9.62
10.74
11.43
12.10
13.15
14.67
16.38
17.69
17.95
16.73
14.05
10.29
6.04
1.80
-2.09
-5.43
-8.07
-9.77
-10.32
-9.61
-7.79
-5.25
-2.50
0.01
2.05
3.58
4.68
5.34
5.44
4.78
3.17
0.68
-2.40
-5.48
-7.98
-9.43
-9.75
-9.27
-8.59
-8.30
-8.67
-9.56
-10.47
-10.76
-10.01
-8.11
-5.28
-1.88
1.77
5.49
9.25
13.04
16.81
20.34
23.33
25.43
26.37
26.00
24.33
21.50
17.71
13.21
8.25
3.11
-1.93
-6.55
-10.44
-13.42
-15.38
-16.36
-16.48
-15.96
-15.09
-14.24
-13.91
-14.56
-16.52
-19.78
-23.89
-28.04
-31.30
-32.89
-32.42
-30.02
-26.20
-21.65
-17.05
-12.83
-9.16
-6.00
-3.24
-0.80
1.26
2.87
3.93
4.53
4.88
5.32
6.18
7.63
9.68
12.12
14.68
17.07
19.03
20.34
20.77
20.16
18.48
15.88
12.72
9.51
6.72
4.71
3.60
3.34
3.78
4.74
5.98
7.25
8.21
8.40
7.45
5.11
1.40
-3.37
-8.62
-13.67
-17.82
-20.49
-21.38
-20.47
-18.05
-14.62
-10.78
-7.03
-3.65
-0.67
2.02
4.52
6.83
8.75
10.10
10.77
10.85
10.58
10.32
10.35
10.87
11.90
13.31
14.90
16.44
17.70
18.57
19.00
19.05
18.85
18.50
18.05
17.53
16.94
16.40
16.06
16.11
16.66
17.67
18.89
19.93
20.38
19.84
18.07
15.00
10.75
5.64
0.18
-4.94
-9.03
-11.41
-11.66
-9.74
-6.11
-1.63
2.63
5.77
7.36
7.65
7.38
7.45
8.52
10.72
13.69
16.82
19.57
21.69
23.20
24.23
24.81
24.89
24.37
23.22
21.60
19.69
17.65
15.48
13.05
10.22
6.96
3.42
-0.04
-2.94
-4.75
-5.03
-3.55
-0.42
3.84
8.46
12.50
15.19
16.08
15.19
12.83
9.53
5.87
2.39
-0.42
-2.11
-2.41
-1.29
1.00
4.05
7.51
11.28
15.55
20.60
26.51
32.91
39.02
43.89
46.84
47.80
47.35
46.46
46.05
46.55
47.78
49.03
49.44
48.30
45.32
40.58
34.44
27.44
20.16
13.21
7.14
2.41
-0.82
-2.71
-3.66
-4.25
-5.00
-6.30
-8.35
-11.18
-14.76
-18.94
-23.46
-27.89
-31.65
-34.12
-34.74
-33.20
-29.40
-23.54
-16.04
-7.53
1.19
9.32
16.21
21.53
25.43
28.49
31.47
35.05
39.54
44.78
50.21
55.15
59.07
61.67
62.96
63.17
62.61
61.64
60.59
59.66
58.78
57.51
55.11
50.77
43.96
34.71
23.67
11.83
0.13
-10.96
-21.54
-32.04
-42.87
-54.17
-65.68
-76.89
-87.31
-96.58
-104.56
-111.17
-116.33
-119.89
-121.78
-122.03
-120.85
-118.57
-115.58
-112.16
-108.55
-104.83
-101.02
-97.06
-92.80
-88.07
-82.74
-76.73
-70.10
-63.06
-55.82
-48.62
-41.66
-35.07
-28.93
-23.35
-18.41
-14.16
-10.68
-8.02
-6.21
-5.26
-5.17
-5.83
-7.09
-8.69
-10.33
-11.65
-12.30
-11.91
-10.20
-6.98
-2.24
3.75
10.55
17.61
24.39
30.54
35.87
40.34
43.96
46.71
48.58
49.62
50.01
50.03
50.04
50.42
51.51
53.64
57.06
61.81
67.60
73.69
78.95
82.24
82.78
80.50
76.09
70.67
65.24
60.36
55.87
51.21
45.75
39.17
31.54
23.24
14.70
6.18
-2.17
-10.25
-17.83
-24.51
-29.83
-33.53
-35.65
-36.64
-37.09
-37.50
-37.99
-38.22
-37.56
-35.44
-31.65
-26.51
-20.78
-15.41
-11.20
-8.63
-7.78
-8.43
-10.23
-12.79
-15.67
-18.48
-20.71
-21.91
-21.75
-20.11
-17.23
-13.63
-10.03
-7.09
-5.23
-4.54
-4.81
-5.66
-6.70
-7.69
-8.46
-8.82
-8.61
-7.66
-5.92
-3.65
-1.33
0.36
0.89
0.08
-1.84
-4.27
-6.55
-8.12
-8.76
-8.56
-7.81
-6.82
-5.77
-4.66
-3.37
-1.76
0.26
2.49
4.55
5.85
5.78
3.86
-0.06
-5.73
-12.45
-19.23
-24.93
-28.61
-29.80
-28.69
-26.14
-23.47
-21.95
-22.42
-24.74
-27.75
-29.50
-27.93
-21.57
-10.14
5.23
22.40
38.98
53.03
63.55
70.58
74.78
76.99
77.81
77.50
75.99
73.19
69.25
64.64
60.17
56.76
55.18
55.77
58.34
62.25
66.61
70.35
72.44
71.87
67.84
59.97
48.44
33.92
17.32
-0.53
-19.09
-38.04
-57.00
-75.29
-91.90
-105.69
-115.73
-121.48
-122.72
-119.39
-111.52
-99.32
-83.49
-65.38
-46.83
-29.79
-15.76
-5.35
1.77
6.60
10.37
13.95
17.56
20.83
23.00
23.43
21.90
18.67
14.39
9.79
5.40
1.52
-1.77
-4.48
-6.58
-8.07
-8.90
-9.14
-8.95
-8.55
-8.13
-7.81
-7.61
-7.43
-7.17
-6.77
-6.29
-5.95
-6.11
-7.17
-9.38
-12.84
-17.36
-22.42
-27.28
-31.06
-32.99
-32.64
-29.99
-25.46
-19.70
-13.37
-6.99
-0.88
4.75
9.70
13.69
16.43
17.76
17.71
16.56
14.71
12.61
10.69
9.32
8.80
9.40
11.22
14.21
18.11
22.38
26.33
29.32
30.80
30.51
28.52
25.12
20.77
16.00
11.26
6.94
3.33
0.59
-1.24
-2.25
-2.67
-2.77
-2.86
-3.29
-4.45
-6.71
-10.36
-15.40
-21.38
-27.44
-32.40
-35.14
-34.94
-31.68
-25.87
-18.38
-10.16
-1.97
5.71
12.56
18.38
22.87
25.72
26.65
25.58
22.78
18.88
14.75
11.31
9.22
8.78
9.85
11.99
14.65
17.29
19.55
21.24
22.20
22.30
21.36
19.24
15.91
11.56
6.60
1.59
-2.87
-6.33
-8.59
-9.73
-10.00
-9.76
-9.28
-8.81
-8.54
-8.74
-9.75
-11.84
-15.08
-19.14
-23.23
-26.32
-27.40
-25.87
-21.74
-15.61
-8.45
-1.16
5.74
12.11
18.16
24.06
29.69
34.57
37.95
39.16
37.92
34.48
29.57
24.20
19.30
15.59
13.40
12.74
13.35
14.86
16.89
19.06
21.07
22.60
23.38
23.04
21.28
17.93
13.02
6.89
0.13
-6.55
-12.51
-17.28
-20.68
-22.81
-23.89
-24.22
-24.08
-23.71
-23.27
-22.91
-22.75
-22.84
-23.17
-23.64
-24.04
-24.07
-23.37
-21.61
-18.65
-14.65
-10.02
-5.30
-0.97
2.80
6.14
9.35
12.68
16.07
19.17
21.50
22.69
22.63
21.47
19.53
17.12
14.55
12.08
10.00
8.63
8.21
8.81
10.31
12.41
14.72
16.91
18.61
19.45
19.02
16.90
12.82
6.86
-0.47
-8.28
-15.45
-21.09
-24.65
-26.21
-26.27
-25.57
-24.79
-24.29
-24.11
-23.96
-23.52
-22.54
-21.06
-19.28
-17.53
-16.00
-14.68
-13.32
-11.56
-9.15
-6.07
-2.53
1.16
4.78
8.26
11.68
15.09
18.39
21.25
23.16
23.66
22.49
19.77
15.98
11.87
8.25
5.73
4.61
4.78
5.89
7.46
9.15
10.76
12.19
13.27
13.68
12.91
10.51
6.28
0.47
-6.16
-12.58
-17.77
-21.15
-22.73
-23.09
-23.09
-23.48
-24.65
-26.45
-28.38
-29.84
-30.39
-29.90
-28.46
-26.31
-23.62
-20.49
-16.99
-13.19
-9.25
-5.39
-1.85
1.23
3.82
6.06
8.13
10.11
11.97
13.49
14.44
14.71
14.42
13.92
13.57
13.58
13.91
14.24
14.14
13.29
11.62
9.31
6.75
4.42
2.67
1.67
1.36
1.48
1.67
1.59
1.03
-0.11
-1.83
-4.09
-6.85
-10.05
-13.64
-17.51
-21.57
-25.69
-29.69
-33.29
-36.05
-37.38
-36.70
-33.64
-28.20
-20.90
-12.64
-4.42
2.85
8.60
12.71
15.38
16.97
17.87
18.34
18.54
18.54
18.43
18.29
18.24
18.37
18.72
19.22
19.73
20.03
19.96
19.44
18.55
17.41
16.19
14.98
13.73
12.36
10.72
8.72
6.34
3.65
0.78
-2.15
-5.01
-7.72
-10.27
-12.74
-15.24
-17.94
-20.90
-24.07
-27.21
-29.89
-31.59
-31.75
-30.02
-26.33
-20.98
-14.59
-7.96
-1.84
3.26
7.15
9.90
11.78
13.10
14.14
15.07
16.02
17.01
18.07
19.13
20.14
21.07
21.93
22.78
23.65
24.49
25.13
25.38
25.06
24.08
22.55
20.57
18.31
15.82
13.09
10.06
6.73
3.25
-0.22
-3.43
-6.20
-8.45
-10.25
-11.78
-13.37
-15.35
-17.99
-21.31
-25.02
-28.48
-30.88
-31.46
-29.74
-25.71
-19.80
-12.82
-5.62
1.06
6.80
11.47
15.15
17.96
20.00
21.27
21.88
22.03
22.06
22.37
23.23
24.74
26.69
28.77
30.61
31.96
32.73
32.91
32.52
31.56
30.03
27.90
25.24
22.19
18.92
15.59
12.27
8.95
5.60
2.19
-1.15
-4.27
-6.98
-9.21
-11.10
-12.94
-15.11
-17.91
-21.38
-25.26
-28.93
