1681828331.00
64.000000
-0.00
-0.00
-0.00
-0.00
-0.00
-0.00
-0.00
-0.00
-0.00
-0.00
0.00
0.01
0.01
-0.00
-0.03
-0.05
-0.05
0.00
0.13
0.36
0.66
1.01
1.37
1.72
2.06
2.40
2.79
3.24
3.80
4.42
5.06
5.66
6.20
6.68
7.15
7.69
8.33
9.19
10.16
11.16
12.06
12.82
13.50
14.26
15.30
16.79
18.93
21.54
24.34
27.03
29.46
31.68
34.03
36.92
40.67
45.67
51.55
57.81
63.87
69.37
74.39
79.41
85.13
92.07
100.77
110.71
121.11
131.07
140.07
148.15
155.93
164.73
173.25
183.74
196.80
212.52
229.71
245.52
255.64
255.44
241.53
212.99
172.21
122.99
69.69
15.52
-37.87
-90.18
-141.51
-191.61
-239.68
-284.30
-324.58
-359.83
-389.53
-412.78
-428.26
-434.49
-430.09
-414.55
-388.22
-352.87
-311.03
-266.36
-221.87
-179.64
-140.75
-105.52
-73.85
-45.44
-20.12
2.21
21.68
38.66
53.64
67.18
79.72
91.50
102.45
112.27
120.48
126.63
130.43
131.76
130.67
127.69
123.31
117.97
112.08
105.96
99.88
94.13
88.90
84.30
80.35
76.96
73.96
71.19
68.46
65.62
62.51
58.93
54.78
49.91
44.17
37.50
29.83
21.19
11.64
1.23
-9.85
-21.33
-32.84
-44.00
-54.26
-63.26
-70.74
-76.65
-81.15
-84.49
-86.76
-87.97
-88.07
-86.68
-83.76
-79.49
-74.44
-69.55
-65.83
-63.99
-64.33
-66.82
-70.54
-74.73
-78.83
-82.37
-85.26
-87.35
-88.06
-86.53
-81.89
-72.83
-58.94
-40.66
-16.24
15.24
54.30
101.15
155.31
210.69
262.90
307.95
342.13
362.00
366.31
354.71
328.54
290.49
243.95
192.94
140.31
87.68
35.13
-18.53
-75.20
-136.57
-202.95
-271.90
-337.10
-390.02
-422.37
-429.68
-412.92
-378.50
-335.78
-293.82
-258.75
-232.68
-215.26
-201.75
-189.61
-177.88
-166.44
-154.97
-142.49
-127.81
-110.22
-90.20
-69.37
-50.63
-36.48
-28.40
-26.53
-29.73
-36.46
-45.34
-55.74
-67.94
-83.38
-103.54
-129.42
-161.06
-197.25
-235.97
-274.84
-311.61
-344.63
-373.31
-397.57
-417.55
-433.80
-445.42
-450.33
-445.83
-429.30
-399.09
-355.22
-299.12
-232.98
-159.02
-78.57
7.99
100.90
200.55
307.11
420.29
538.44
658.08
773.04
874.21
950.76
992.87
995.36
959.88
894.71
811.86
722.99
636.06
554.50
478.36
406.90
340.16
279.23
225.09
177.64
135.36
96.21
58.85
23.28
-9.30
-37.03
-58.63
-74.05
-84.55
-92.17
-98.91
-105.92
-113.26
-120.04
-124.98
-127.15
-126.41
-123.44
-119.44
-115.55
-112.46
-110.17
-108.19
-105.77
-102.34
-97.78
-92.37
-86.68
-81.24
-76.40
-71.99
-67.87
-63.78
-59.50
-54.99
-50.35
-45.78
-41.47
-37.56
-34.07
-30.98
-28.23
-25.73
-23.46
-21.38
-19.50
-17.80
-16.28
-14.90
-13.70
-12.62
-11.66
-10.80
-10.03
-9.33
-8.70
-8.12
-7.60
-7.13
-6.71
-6.33
-5.98
-5.67
-5.37
-5.09
-4.84
-4.60
-4.38
-4.19
-4.00
-3.83
-3.67
-3.53
-3.40
-3.26
-3.12
-2.97
-2.82
-2.71
-2.65
-2.67
-2.76
-2.89
-3.00
-3.05
-3.01
-2.90
-2.79
-2.73
-2.75
-2.87
-3.03
-3.16
-3.23
-3.19
-3.08
-2.97
-2.94
-3.04
-3.28
-3.58
-3.83
-3.90
-3.77
-3.52
-3.35
-3.48
-4.07
-5.11
-6.35
-7.42
-8.02
-8.00
-7.56
-7.18
-7.38
-8.50
-10.51
-12.95
-15.12
-16.42
-16.59
-15.97
-15.30
-15.41
-16.86
-19.58
-22.96
-26.02
-28.09
-28.83
-28.48
-27.65
-26.91
-26.77
-27.86
-30.99
-36.67
-44.19
-50.82
-52.13
-43.59
-22.94
7.99
43.40
75.62
98.32
109.11
109.82
104.91
98.85
94.08
90.96
89.01
88.39
90.00
94.24
99.30
100.76
93.29
73.54
42.30
5.14
-29.77
-55.15
-67.46
-67.96
-61.30
-52.98
-46.93
-44.56
-45.17
-47.12
-48.86
-49.50
-48.59
-46.18
-42.64
-38.80
-35.69
-34.80
-37.54
-44.47
-54.22
-63.21
-66.57
-60.03
-42.42
-16.75
10.52
32.40
44.09
45.59
40.94
35.84
35.03
40.27
50.28
61.75
71.14
75.85
75.25
70.70
64.89
61.32
62.73
70.07
82.02
94.90
103.73
104.03
93.34
72.11
44.04
14.63
-10.36
-26.55
-32.37
-29.50
-21.25
-11.06
-1.80
5.82
10.84
12.32
9.34
1.50
-10.45
-24.39
-36.88
-46.34
-51.85
-54.08
-54.48
-54.59
-55.35
-56.82
-58.21
-58.49
-57.14
-54.07
-50.02
-45.91
-42.54
-40.25
-38.93
-38.10
-37.27
-36.36
-35.42
-34.74
-34.47
-34.49
-34.48
-34.17
-33.51
-32.77
-32.75
-33.75
-35.85
-38.48
-40.88
-42.48
-43.46
-44.87
-46.90
-49.23
-50.87
-51.02
-49.84
-48.26
-47.03
-45.37
-40.79
-30.37
-12.89
9.73
32.70
50.52
59.69
60.29
55.51
49.45
44.85
42.02
39.60
36.14
31.41
26.47
22.42
20.14
19.32
18.97
17.80
15.08
10.86
5.89
1.17
-2.47
-4.74
-6.03
-7.13
-8.87
-11.69
-15.52
-19.87
-24.05
-27.54
-30.14
-32.02
-33.51
-34.96
-36.42
-37.62
-38.09
-37.28
-34.82
-30.67
-24.92
-17.98
-10.32
-2.42
5.36
12.74
19.51
25.46
30.42
34.23
36.78
38.04
38.10
37.12
35.37
33.14
30.72
28.34
26.14
24.19
22.45
20.87
19.42
18.12
17.11
16.48
16.26
16.35
16.63
16.86
16.82
16.46
15.95
15.60
15.74
16.59
18.17
20.43
23.03
25.53
27.71
29.71
31.95
34.96
39.10
44.33
50.54
57.17
63.60
69.51
75.12
80.84
87.29
95.18
105.18
118.33
134.77
153.58
172.61
189.09
199.97
203.71
201.05
191.49
178.28
165.20
155.21
148.85
144.62
138.51
126.54
106.12
76.79
40.85
1.45
-37.56
-73.41
-104.23
-131.11
-155.73
-179.77
-204.51
-230.55
-259.65
-293.00
-331.11
-370.55
-405.95
-429.26
-433.42
-416.41
-382.77
-343.81
-311.11
-292.77
-273.80
-239.93
-182.99
-106.70
-24.45
49.21
97.60
121.31
124.76
113.39
88.96
51.22
2.73
-52.52
-100.43
-126.48
-120.53
-83.90
-26.53
37.00
94.68
140.16
171.34
192.21
204.54
209.01
204.63
191.83
172.98
153.08
138.24
134.38
144.36
164.85
188.88
208.60
219.79
223.27
223.94
227.53
236.86
250.46
262.65
267.49
261.39
244.35
218.74
187.49
152.23
112.63
66.59
11.04
-55.68
-131.40
-208.81
-276.01
-320.60
-334.81
-319.84
-286.90
-253.79
-238.66
-253.05
-297.93
-364.08
-436.35
-499.50
-543.07
-563.41
-562.78
-546.67
-520.92
-490.20
-457.58
-425.23
-395.08
-369.23
-349.40
-335.96
-327.19
-319.43
-308.47
-291.39
-267.83
-240.09
-211.88
-186.64
-165.85
-148.71
-132.70
-115.03
-93.98
-69.70
-44.03
-19.56
1.51
18.36
31.60
42.91
54.05
66.07
78.97
91.85
103.60
113.57
121.97
129.77
138.28
148.45
160.60
174.37
188.99
203.81
218.64
233.88
250.38
269.47
292.50
320.40
353.00
388.45
423.01
451.64
469.48
473.51
463.83
443.50
417.27
389.78
364.08
341.29
321.14
303.11
287.14
273.97
264.18
257.57
252.96
248.61
243.04
235.56
226.54
217.10
209.31
204.60
203.26
204.42
206.47
207.77
207.05
204.16
199.82
196.88
197.65
202.90
211.57
221.46
230.30
236.07
238.21
236.82
234.85
234.52
236.73
241.20
247.02
252.92
256.18
253.88
242.50
222.64
196.03
165.27
133.15
102.08
73.40
46.33
20.48
-25.17
-98.36
-192.75
-290.31
-372.05
-427.82
-453.20
-460.42
-460.94
-463.10
-468.68
-478.28
-493.37
-514.53
-538.67
-557.63
-562.22
-546.38
-512.44
-467.17
-419.88
-377.85
-345.01
-318.50
-294.77
-272.24
-250.33
-229.44
-207.75
-182.16
-149.90
-109.56
-61.33
-7.24
49.47
106.09
160.32
210.98
256.57
294.73
322.73
338.68
342.09
334.32
318.52
298.34
277.40
258.41
243.16
232.67
227.34
226.53
228.66
231.65
233.46
232.92
230.11
226.12
222.56
220.77
221.12
222.70
223.40
220.27
210.26
191.18
162.61
126.47
86.63
47.93
14.74
-10.19
-26.13
-34.02
-35.63
-32.67
-26.29
-17.21
-6.02
6.55
19.63
32.51
44.81
56.45
67.56
78.15
87.82
95.71
100.64
101.22
96.30
85.13
67.60
44.20
15.95
-15.73
-49.25
-83.07
-115.98
-147.26
-176.61
-204.12
-229.96
-254.15
-276.45
-296.43
-313.76
-328.53
-341.37
-353.28
-365.31
-377.98
-391.06
-403.49
-413.95
-421.38
-425.48
-426.91
-427.10
-427.97
-431.81
-441.38
-459.51
-487.97
-525.79
-568.02
-606.12
-630.18
-632.53
-610.73
-568.58
-514.36
-457.13
-403.20
-354.21
-307.95
-260.68
-209.57
-154.02
-95.10
-34.11
28.94
95.07
164.52
234.62
299.19
350.24
381.70
392.62
387.58
373.70
356.15
335.14
306.83
267.44
217.79
164.97
119.66
90.74
80.98
86.38
99.53
114.50
129.65
146.83
167.97
192.00
214.16
228.25
230.16
220.17
202.86
184.24
168.87
158.10
150.56
144.06
137.60
131.80
127.90
126.26
125.51
123.37
118.27
110.51
102.13
95.37
90.94
87.39
82.07
72.78
59.22
42.88
25.97
10.02
-4.82
-19.37
-34.72
-51.55
-70.19
-90.88
-114.07
-140.32
-170.09
-203.64
-240.76
-280.25
-319.30
-353.11
-375.31
-379.73
-362.83
-325.70
-274.42
-218.26
-166.70
-126.59
-100.63
-87.71
-84.23
-85.48
-86.54
-82.83
-70.94
-50.30
-24.62
-1.63
9.28
1.52
-24.73
-61.20
-94.32
-110.97
-104.24
-76.07
-35.38
6.96
43.28
71.65
94.61
115.83
137.06
157.33
174.14
185.52
191.20
192.67
192.17
191.67
192.49
195.21
200.10
207.28
216.78
228.38
241.57
255.41
268.47
278.90
284.67
284.11
276.53
262.74
245.08
226.86
211.26
200.30
194.04
190.52
186.29
177.60
161.68
137.90
108.27
76.75
47.93
25.25
9.75
0.15
-6.35
-12.49
-19.94
-28.92
-38.65
-47.75
-54.65
-57.60
-54.98
-45.96
-31.44
-14.57
-0.12
7.04
4.01
-8.94
-28.53
-49.82
-68.23
-80.83
-86.84
-87.20
-83.71
-78.29
-72.43
-66.99
-62.21
-57.93
-53.89
-50.02
-46.52
-43.74
-41.95
-41.21
-41.47
-42.67
-44.62
-46.84
-48.33
-47.82
-44.33
-37.78
-29.16
-20.11
-12.07
-5.59
-0.33
4.56
9.56
14.46
18.47
20.70
20.61
18.07
13.16
6.00
-3.12
-13.73
-24.97
-35.81
-45.27
-52.50
-56.69
-57.00
-52.75
-43.79
-31.01
-16.33
-2.11
9.83
18.90
25.88
32.22
39.08
46.75
54.72
62.38
69.67
77.05
85.13
93.97
102.76
110.10
114.64
115.65
113.26
108.09
100.88
92.15
82.27
71.71
61.30
52.22
45.60
42.03
41.21
41.90
42.31
40.71
36.05
28.39
18.74
8.74
0.02
-6.36
-10.00
-10.97
-9.52
-5.79
0.07
7.56
15.56
22.39
26.31
26.28
22.53
16.66
11.09
8.12
8.90
12.90
18.13
21.99
22.41
18.66
11.64
3.28
-4.51
-10.66
-15.29
-19.33
-23.86
-29.53
-36.45
-44.42
-53.28
-63.06
-73.82
-85.22
-96.29
-105.54
-111.36
-112.52
-108.59
-99.88
-87.41
-72.56
-56.92
-42.04
-29.26
-19.35
-12.23
-6.98
-2.05
4.18
12.80
23.97
36.99
50.66
63.80
75.49
85.00
91.64
94.65
93.32
87.36
77.24
64.39
50.99
39.52
31.97
29.17
30.26
32.80
33.60
29.97
21.04
8.27
-4.94
-14.65
-17.90
-13.91
-4.09
8.58
20.73
29.50
33.04
30.74
23.14
11.86
-0.67
-11.78
-19.29
-22.16
-20.80
-16.77
-12.01
-8.08
-5.71
-4.94
-5.51
-7.28
-10.42
-15.20
-21.63
-29.33
-37.55
-45.46
-52.46
-58.28
-62.80
-65.90
-67.43
-67.26
-65.43
-62.14
-57.47
-51.27
-43.08
-32.49
-19.65
-5.51
8.26
19.85
28.05
32.84
35.29
37.02
39.30
42.55
46.23
49.21
50.48
49.67
47.14
43.72
40.16
36.73
33.21
29.21
24.63
20.01
16.41
14.94
16.09
19.41
23.52
26.62
27.17
24.41
18.63
10.93
2.82
-4.27
-9.27
-11.63
-11.38
-8.99
-5.42
-1.90
0.37
0.46
-1.96
-6.42
-11.72
-16.29
-18.52
-17.34
-12.63
-5.43
2.12
7.41
8.29
3.95
-4.46
-14.14
-21.67
-24.35
-21.44
-14.40
-6.30
-0.44
0.91
-2.66
-9.83
-18.31
-25.71
-30.19
-30.73
-27.04
-19.43
-8.79
3.40
15.05
23.71
27.20
24.40
15.78
3.36
-9.90
-21.13
-28.43
-31.37
-30.87
-28.82
-27.40
-28.46
-32.98
-40.78
-50.66
-60.76
-69.14
-74.34
-75.57
-72.69
-65.96
-55.89
-43.24
-29.18
-15.23
-2.91
6.75
13.63
18.39
21.96
24.95
27.41
29.05
29.77
30.10
31.19
34.33
40.42
49.48
60.61
72.33
83.13
91.88
98.03
101.53
102.59
101.46
98.30
93.05
85.62
75.90
64.07
50.67
36.53
22.71
10.14
-0.55
-9.15
-15.75
-20.48
-23.40
-24.46
-23.70
-21.41
-18.20
-14.79
-11.76
-9.38
-7.61
-6.41
-5.86
-6.14
-7.23
-8.50
-8.66
-6.12
0.20
10.10
21.77
32.32
38.90
39.91
35.59
27.67
18.27
8.73
-0.97
-11.87
-25.02
-40.68
-58.22
-76.92
-96.72
-118.53
-143.39
-171.41
-201.16
-230.27
-256.88
-280.73
-302.85
-323.94
-342.48
-354.19
-353.35
-335.71
-300.84
-252.67
-197.61
-141.61
-88.10
-37.87
9.51
54.02
94.59
129.81
159.21
183.96
206.33
228.47
251.16
273.51
293.59
309.50
320.19
325.62
326.33
322.94
315.84
305.49
292.75
278.97
265.39
252.23
237.91
219.00
191.27
151.73
100.60
42.29
-15.36
-63.53
-95.47
-108.80
-106.24
-94.55
-82.27
-77.05
-83.66
-102.87
-131.73
-164.76
-195.99
-220.67
-236.28
-242.27
-239.26
-228.19
-210.11
-186.72
-160.89
-136.45
-116.86
-103.60
-95.24
-87.97
-77.69
-62.01
-41.43
-18.76
2.57
20.32
34.45
46.86
60.36
77.45
99.50
126.32
156.15
186.12
212.95
233.90
247.68
255.03
258.58
261.99
268.65
280.30
295.97
311.92
322.79
323.74
312.60
291.07
263.99
237.12
214.38
196.21
179.69
160.62
136.12
106.21
73.57
41.80
13.41
-11.52
-35.17
-60.74
-91.35
-129.17
-175.33
-229.66
-290.23
-352.49
-409.34
-452.23
-473.69
-470.26
-444.17
-403.19
-358.18
-319.67
-294.49
-283.97
-284.11
-287.76
-287.67
-278.94
-260.13
-232.56
-198.68
-160.70
-120.19
-78.99
-40.55
-10.23
6.37
6.02
-9.61
-33.67
-56.69
-70.38
-70.77
-59.08
-40.07
-19.30
-1.01
12.74
21.69
26.20
26.84
24.09
18.48
10.71
1.38
-9.20
-20.96
-33.83
-47.55
-61.54
-74.87
-86.39
-94.54
-97.41
-93.23
-81.04
-61.78
-38.69
-16.70
-1.06
4.62
-0.31
-13.21
-29.15
-42.62
-49.37
-47.54
-37.84
-22.93
-6.30
8.93
20.73
28.40
32.46
34.18
35.13
36.73
40.09
45.79
53.92
64.15
75.73
87.69
98.84
107.96
114.03
116.55
115.94
113.45
110.94
110.10
111.85
115.94
121.17
125.92
128.89
129.69
128.81
127.30
126.36
126.78
128.86
132.32
136.36
139.75
140.90
138.12
129.81
114.85
92.72
63.57
28.07
-12.88
-58.52
-108.26
-161.26
-215.52
-267.19
-310.48
-338.89
-347.03
-332.65
-297.23
-245.30
-182.75
-115.22
-47.53
15.95
70.76
112.64
138.84
149.78
149.78
146.00
145.91
154.46
172.41
196.67
222.13
243.97
259.46
268.24
271.54
270.99
267.60
261.51
252.35
239.81
224.24
206.83
189.50
174.59
164.41
160.53
163.23
170.88
180.02
186.02
184.53
172.84
150.75
120.47
85.41
48.81
12.64
-22.85
-58.83
-97.02
-138.46
-182.29
-225.20
-262.17
-288.19
-300.33
-298.87
-287.31
-270.87
-254.40
-240.79
-230.81
-223.95
-219.18
-214.99
-208.93
-197.82
-178.82
-151.11
-116.79
-80.86
-49.90
-29.66
-22.75
-27.09
-36.50
-42.84
-38.61
-19.34
14.58
56.99
97.48
124.96
132.10
117.65
86.08
44.88
1.48
-35.95
-59.69
-65.90
-56.75
-37.40
-12.28
16.00
45.12
72.31
94.64
109.75
116.75
116.45
111.71
105.37
98.79
91.04
79.45
60.92
33.11
-1.93
-40.11
-76.04
-105.06
-124.54
-134.83
-138.48
-138.85
-138.97
-140.77
-145.19
-151.63
-157.95
-160.64
-155.56
-139.24
-110.48
-71.78
-28.84
11.14
42.58
63.47
75.23
80.85
82.58
81.07
75.72
66.55
55.28
45.49
40.84
42.93
50.30
59.18
65.22
64.97
57.09
41.87
20.96
-2.92
-25.96
-43.59
-52.65
-52.10
-44.87
-37.32
-35.72
-42.01
-51.47
-54.59
-42.39
-12.27
29.53
70.22
96.77
102.15
88.07
62.87
36.58
15.84
1.97
-7.73
-16.92
-28.24
-42.32
-57.60
-70.83
-77.50
-73.05
-54.80
-23.88
14.29
51.12
77.70
87.91
79.85
56.14
22.37
-14.31
-45.99
-64.57
-63.26
-38.66
7.27
66.70
127.75
178.21
209.80
218.66
208.06
186.71
165.28
152.91
154.76
171.19
198.22
228.98
255.82
272.66
276.12
265.60
242.86
210.83
172.58
130.77
87.63
45.41
6.64
-26.42
-52.49
-72.06
-87.37
-101.91
-119.33
-142.42
-172.02
-206.44
-242.19
-275.20
-301.90
-319.86
-327.43
-323.64
-308.80
-285.66
-259.97
-239.39
-230.44
-234.96
-248.58
-262.95
-270.66
-269.84
-265.23
-264.72
-273.39
-289.26
-303.52
-305.39
-288.49
-254.16
-210.17
-165.76
-126.48
-91.99
-57.84
-20.02
21.25
60.88
91.43
107.50
109.34
103.20
98.74
104.82
125.66
159.52
200.50
242.02
280.09
314.48
347.48
381.20
415.06
445.23
465.92
471.83
460.22
431.67
389.28
336.96
278.26
216.50
155.65
101.08
58.75
33.33
25.71
31.76
43.22
50.47
45.97
26.79
-4.40
-40.79
-73.97
-96.83
-105.82
-101.93
-89.78
-75.55
-64.39
-58.64
-58.04
-61.33
-68.77
-82.98
-107.71
-144.57
-189.90
-234.04
-263.85
-268.00
-241.98
-190.58
-126.52
-65.90
-23.01
-6.32
-17.13
-50.56
-97.78
-148.20
-191.29
-218.23
-223.37
-205.86
-170.35
-125.94
-83.56
-52.16
-35.67
-32.09
-35.06
-36.92
-31.90
-17.96
2.78
25.35
43.52
51.78
46.91
29.07
2.17
-27.17
-51.91
-67.31
-72.66
-71.12
-67.55
-65.76
-66.65
-68.23
-67.28
-61.36
-49.84
-33.78
-15.10
4.22
22.20
36.99
46.95
51.17
50.05
45.28
39.04
32.82
26.72
19.49
9.57
-3.69
-19.15
-34.02
-44.55
-47.04
-38.87
-19.18
10.47
45.89
80.70
107.93
122.25
122.29
111.63
97.75
89.24
92.42
109.15
136.43
168.42
199.22
225.13
245.55
262.18
277.64
294.04
312.27
331.59
349.89
364.26
371.94
371.18
361.97
346.18
326.91
307.46
290.41
277.20
268.31
263.59
262.55
264.25
267.01
268.54
266.35
258.59
244.76
225.84
203.79
180.92
158.98
138.76
120.15
102.49
85.18
68.11
51.73
36.82
24.17
14.12
6.48
0.53
-4.58
-9.63
-14.95
-20.44
-25.63
-29.90
-32.78
-34.00
-33.73
-32.23
-29.98
-27.34
-24.57
-21.79
-19.03
-16.31
-13.72
-11.39
-9.53
-8.33
-7.89
-8.20
-9.17
-10.63
-12.38
-14.34
-16.49
-18.97
-22.03
-25.91
-30.75
-36.57
-43.22
-50.44
-58.06
-65.97
-74.28
-83.18
-92.81
-103.04
-113.44
-123.24
-131.66
-138.21
-142.90
-146.43
-149.85
-154.30
-160.46
-168.39
-177.46
-186.81
-195.89
-204.83
-214.62
-226.78
-242.69
-263.02
-287.31
-314.21
-342.06
-369.54
-396.20
-422.54
-449.80
-479.64
-514.01
-554.71
-602.39
-655.46
-709.06
-755.41
-785.67
-792.97
-774.98
-734.94
-680.24
-619.51
-559.61
-504.08
-453.46
-406.96
-363.98
-324.73
-289.74
-258.93
-231.18
-204.65
-177.78
-149.97
-121.86
-95.00
-70.98
-50.64
-33.78
-19.33
-5.88
7.58
21.23
34.37
45.75
54.15
58.95
60.27
58.89
55.92
52.36
48.85
45.61
42.67
40.12
38.32
37.89
39.52
43.72
50.64
60.02
71.30
83.69
96.50
109.23
121.58
133.35
144.36
154.41
163.47
171.64
179.30
187.05
195.64
205.74
217.65
231.10
245.44
259.80
273.34
285.65
296.64
306.65
316.04
324.73
331.84
336.04
335.87
329.91
317.01
296.03
266.78
230.68
190.38
147.94
104.92
62.08
19.78
-20.89
-57.74
-88.21
-110.10
-123.57
-130.24
-131.99
-131.06
-129.45
-127.58
-123.92
-116.08
-101.75
-79.28
-49.34
-11.89
33.89
81.81
124.23
153.32
161.77
146.56
122.00
97.96
82.72
81.69
96.82
120.87
148.48
174.64
196.50
213.84
226.54
235.94
242.54
246.44
247.61
249.27
254.16
264.34
280.63
301.28
324.60
348.84
374.53
403.55
440.97
488.57
543.12
596.52
637.59
657.76
653.14
627.98
573.74
492.71
393.75
289.90
193.69
112.81
57.34
22.53
2.49
-8.34
-12.20
-11.85
-11.05
-12.38
-17.57
-26.81
-40.53
-57.29
-75.92
-93.70
-109.06
-121.48
-131.04
-138.10
-142.78
-145.90
-147.24
-146.95
-144.40
-139.66
-133.45
-126.67
-120.29
-114.91
-111.33
-109.35
-108.64
-108.29
-107.65
-106.41
-104.57
-102.43
-100.43
-99.18
-98.73
-98.86
-98.90
-98.14
-96.09
-92.66
-88.31
-83.85
-80.18
-77.76
-76.46
-75.74
-74.83
-73.22
-71.01
-68.93
-68.12
-69.52
-73.48
-79.51
-86.44
-92.99
-98.13
-101.45
-103.24
-104.27
-105.71
-109.13
-116.28
-128.40
-144.89
-162.15
-173.79
-172.40
-152.73
-114.27
-62.07
-4.98
47.61
88.97
116.59
131.36
135.83
132.42
122.89
108.92
92.77
77.30
65.11
57.56
54.14
52.89
51.35
47.44
40.12
29.62
17.32
5.15
-4.86
-11.44
-14.48
-15.33
-16.40
-20.39
-29.19
-43.08
-60.59
-79.07
-96.10
-110.50
-123.15
-136.48
-153.17
-174.93
-201.68
-232.02
-264.25
-297.22
-330.28
-362.04
-389.74
-409.46
-418.37
-417.20
-410.83
-406.23
-408.30
-416.40
-424.12
-423.04
-407.94
-380.22
-347.14
-317.24
-295.15
-279.04
-262.42
-238.49
-204.30
-161.93
-116.69
-73.33
-33.61
4.13
43.00
84.45
126.26
162.24
184.42
186.81
168.70
136.34
100.86
74.09
63.43
69.08
84.58
100.40
108.47
105.01
90.75
68.74
41.84
11.51
-21.68
-56.59
-90.24
-117.89
-134.59
-136.84
-124.17
-99.14
-66.31
-30.44
5.00
38.66
71.10
103.63
137.27
171.60
204.53
232.61
252.07
260.45
257.93
247.78
235.40
226.18
223.14
225.83
231.11
235.30
236.36
234.72
232.10
229.67
226.68
220.67
209.17
191.46
169.05
144.97
122.13
102.10
85.09
70.73
58.83
49.60
42.96
37.80
32.02
23.55
11.72
-1.91
-14.19
-22.32
-25.66
-26.58
-29.22
-37.02
-50.62
-67.45
-83.21
-94.48
-100.32
-102.11
-101.97
-101.06
-99.15
-95.81
-91.60
-88.16
-86.71
-86.12
-82.12
-68.97
-42.72
-4.23
40.16
80.72
108.69
120.10
117.30
107.51
99.07
97.63
104.07
114.87
124.67
129.36
128.04
122.85
117.36
114.48
115.21
118.98
124.36
129.79
133.45
132.83
125.19
109.08
86.08
61.21
41.15
30.79
30.29
35.22
38.91
36.62
28.42
18.47
11.53
9.24
8.53
3.34
-11.07
-35.23
-64.78
-92.82
-113.64
-125.31
-129.95
-132.15
-136.23
-143.55
-153.13
-162.41
-169.07
-172.27
-173.03
-173.55
-176.51
-184.87
-198.99
-218.22
-239.57
-257.82
-266.42
-259.41
-234.02
-192.79
-144.61
-98.04
-61.66
-39.08
-28.11
-22.43
-15.17
-2.21
15.62
31.63
42.08
41.31
25.78
-5.33
-49.31
-99.77
-147.55
-184.52
-207.68
-211.96
-198.98
-172.06
-134.27
-87.01
-30.57
33.72
116.15
182.58
225.13
236.99
219.45
180.86
133.64
89.41
55.13
28.39
-1.07
-38.12
-87.30
-148.22
-217.64
-291.11
-363.90
-412.56
-418.86
-378.68
-301.07
-209.24
-124.87
-60.38
-17.64
8.27
24.31
32.60
31.12
20.37
-0.06
-24.07
-44.60
-56.60
-58.54
-51.95
-42.56
-37.04
-38.11
-45.03
-53.30
-57.67
-53.83
-41.80
-23.26
-2.70
15.06
26.97
32.12
31.85
27.91
21.60
13.38
3.50
-8.63
-23.26
-39.70
-56.15
-69.97
-78.99
-81.97
-78.77
-69.96
-57.00
-41.55
-25.14
-8.98
6.14
19.41
30.04
37.26
40.69
40.24
36.30
29.59
21.05
11.61
1.95
-7.45
-16.24
-23.94
-29.96
-33.48
-33.70
-30.15
-22.89
-12.72
-0.94
11.09
22.51
33.35
44.60
57.65
73.63
92.78
114.02
135.32
154.46
170.10
182.52
193.63
206.25
222.84
244.34
269.52
295.54
318.96
337.32
350.08
358.84
366.83
377.92
395.71
422.31
456.96
494.74
526.77
542.29
532.57
495.40
437.62
374.07
322.67
297.58
303.38
333.27
372.07
402.22
410.05
389.58
343.14
279.11
208.75
143.31
91.96
60.55
50.72
59.88
81.83
108.36
131.30
144.66
145.51
133.73
111.00
79.41
40.80
-3.23
-50.71
-98.80
-143.75
-181.81
-210.50
-229.87
-242.90
-254.97
-272.41
-300.55
-341.43
-392.18
-445.12
-489.14
-512.47
-506.01
-466.22
-396.93
-309.49
-220.81
-149.24
-109.21
-106.41
-135.39
-181.30
-224.76
-248.56
-242.92
-207.36
-149.24
-80.04
-11.54
46.92
89.60
114.91
125.28
126.46
125.70
129.08
139.34
155.19
172.32
185.80
192.25
190.59
181.96
168.99
155.11
143.90
137.90
137.22
139.10
139.12
133.89
123.30
110.95
101.85
98.80
99.81
98.59
87.62
62.18
22.60
-26.66
-80.25
-135.20
-191.82
-251.70
-314.33
-374.63
-423.68
-451.90
-453.36
-428.35
-383.04
-326.14
-264.75
-202.01
-138.07
-73.65
-13.36
33.94
58.52
55.04
26.22
-17.35
-61.48
-94.17
-109.72
-109.33
-98.76
-84.20
-69.34
-54.52
-37.59
-15.65
13.63
51.09
95.74
144.42
192.12
232.90
260.99
272.31
265.13
240.71
202.94
157.78
111.88
70.81
37.55
12.08
-7.79
-24.50
-39.30
-51.99
-61.89
-68.89
-73.77
-77.22
-78.83
-76.89
-69.82
-57.98
-44.54
-34.32
-31.03
-34.90
-41.96
-45.95
-41.15
-24.77
2.48
37.28
74.91
110.50
139.60
158.90
166.80
163.99
153.10
137.62
120.74
104.66
90.97
81.12
76.61
78.01
83.72
89.21
88.00
74.18
45.39
4.65
-40.33
-79.99
-106.95
-119.03
-119.89
-116.92
-117.64
-126.52
-143.70
-166.02
-189.02
-208.66
-221.83
-225.97
-219.03
-200.14
-171.05
-136.77
-104.60
-81.42
-70.68
-70.82
-76.00
-78.90
-73.90
-58.98
-35.59
-7.40
21.54
47.76
68.81
83.07
89.92
89.87
84.83
78.06
73.51
74.53
82.56
96.13
111.08
121.80
123.27
112.91
91.52
63.05
33.31
8.21
-7.68
-12.30
-6.47
6.55
22.01
35.26
42.97
43.91
38.56
28.26
14.29
-2.30
-20.37
-38.22
-53.60
-64.47
-69.59
-68.56
-61.31
-47.37
-26.26
1.27
31.89
59.78
78.40
83.64
76.03
60.85
45.85
37.84
40.24
52.45
71.11
91.68
109.70
121.22
123.04
113.43
93.00
65.29
35.98
11.02
-5.43
-12.14
-10.49
-3.16
7.31
19.02
30.39
39.61
44.64
44.20
38.96
31.98
27.57
29.17
37.09
48.04
56.39
56.94
47.72
30.98
12.37
-1.74
-6.91
-2.52
8.32
20.26
28.01
28.31
20.92
8.23
-6.05
-18.64
-28.00
-34.44
-39.31
-43.96
-49.00
-54.46
-60.41
-67.17
-74.82
-82.31
-86.95
-85.12
-73.95
-53.09
-25.54
3.19
27.10
41.96
46.71
43.49
36.34
29.47
25.94
27.02
32.46
41.06
51.34
61.83
71.16
78.13
81.97
82.73
81.44
79.95
80.07
82.47
85.94
87.62
84.23
73.66
56.20
34.63
13.21
-4.00
-14.85
-19.93
-22.23
-25.75
-33.67
-46.92
-63.83
-80.86
-94.10
-100.81
-100.25
-93.80
-84.37
-75.71
-71.56
-74.84
-86.84
-106.68
-131.19
-155.62
-174.93
-185.52
-186.45
-179.81
-169.84
-161.18
-156.81
-156.55
-157.21
-154.13
-143.76
-125.69
-103.12
-81.19
-64.34
-54.05
-48.31
-43.06
-34.34
-20.09
-0.45
22.72
46.92
69.60
88.46
101.77
108.58
108.89
103.37
92.93
78.40
60.82
42.04
24.90
12.64
7.47
9.36
15.89
23.56
29.72
33.73
36.74
40.16
44.15
47.19
47.19
43.07
36.06
29.42
26.86
30.58
40.05
52.32
63.50
70.70
72.99
71.27
66.88
60.33
50.79
36.66
17.00
-7.50
-34.16
-59.19
-78.90
-90.78
-93.86
-88.45
-75.93
-58.37
-38.41
-18.89
-2.38
9.43
16.02
18.07
17.20
15.58
15.48
18.70
26.03
36.77
48.79
59.11
65.09
65.60
61.53
55.53
50.66
48.74
49.64
51.54
52.45
51.62
50.04
49.64
51.59
55.01
56.94
53.87
43.71
27.21
7.69
-10.48
-23.71
-30.24
-30.00
-23.82
-12.60
2.70
20.59
38.52
53.09
60.92
60.03
50.83
36.22
20.50
7.62
-0.44
-4.31
-6.68
-10.60
-17.75
-27.59
-37.80
-45.65
-49.42
-48.91
-45.00
-38.82
-31.26
-23.45
-17.10
-14.53
-17.63
-26.39
-38.12
-48.09
-51.50
-45.61
-30.89
-10.44
11.59
31.64
47.43
57.80
62.16
60.38
53.14
42.32
30.72
21.05
14.65
10.98
8.16
4.30
-1.31
-7.79
-13.45
-16.91
-17.98
-17.64
-17.24
-17.63
-18.70
-19.69
-19.88
-19.31
-19.02
-20.59
-25.54
-34.48
-46.81
-60.86
-74.67
-86.89
-97.18
-105.79
-112.61
-116.47
-115.36
-107.66
-93.48
-75.12
-56.20
-39.84
-27.29
-17.95
-10.70
-5.39
-3.19
-5.60
-12.58
-21.64
-28.48
-29.12
-21.85
-8.05
8.77
24.74
36.99
44.18
46.09
43.29
37.08
29.65
23.76
22.02
25.86
34.84
46.85
58.77
67.48
70.60
66.83
56.32
40.53
22.13
4.31
-10.11
-19.49
-23.46
-22.53
-17.35
-8.43
3.41
16.49
28.07
35.07
35.40
29.05
18.10
5.46
-6.62
-17.47
-27.50
-37.00
-45.06
-49.71
-49.20
-43.41
-34.50
-26.21
-22.15
-24.27
-32.20
-43.83
-56.30
-67.09
-74.33
-76.92
-74.41
-67.29
-57.16
-46.65
-38.65
-35.07
-35.75
-38.09
-37.93
-31.20
-15.87
7.02
33.67
58.88
78.08
88.72
90.70
85.64
75.78
63.13
49.29
35.89
24.89
18.50
18.43
25.01
36.63
49.94
60.86
66.03
64.16
56.63
47.17
40.40
39.90
46.68
58.68
71.59
80.70
82.92
77.93
68.11
57.20
48.46
43.20
40.41
37.47
31.85
22.69
11.59
1.98
-2.71
-1.20
4.57
10.17
10.83
3.90
-9.90
-27.01
-42.93
-54.08
-58.67
-56.29
-47.24
-32.33
-13.54
5.37
19.22
23.32
15.94
-0.18
-18.50
-31.43
-33.71
-24.63
-7.89
10.53
25.34
34.04
37.39
38.26
39.71
43.38
48.96
54.71
58.40
58.19
52.92
42.08
25.95
5.82
-15.50
-33.76
-44.24
-43.69
-32.23
-14.18
3.11
11.97
7.53
-10.47
-38.07
-69.12
-98.10
-121.74
-139.24
-151.28
-158.77
-162.37
-162.72
-161.04
-159.04
-158.20
-158.64
-158.79
-156.15
-148.96
-137.58
-124.42
-112.53
-103.58
-96.92
-90.32
-81.88
-71.67
-61.66
-54.09
-49.22
-44.66
-36.47
-21.75
-0.52
24.25
48.37
68.88
85.19
98.59
110.47
120.89
128.28
130.67
127.19
118.79
107.87
96.86
87.09
78.43
69.90
60.61
50.42
39.99
30.12
21.30
13.49
6.57
1.00
-1.75
0.56
9.72
25.57
45.20
63.31
74.20
74.18
63.32
45.14
24.63
5.77
-9.89
-22.84
-33.92
-43.02
-49.08
-51.38
-50.69
-49.14
-48.72
-49.69
-50.31
-48.15
-42.17
-33.73
-25.77
-20.74
-18.93
-18.39
-16.45
-11.57
-4.23
3.75
10.65
15.79
19.69
23.30
27.31
31.94
37.04
42.25
46.95
50.18
51.15
49.86
47.49
45.99
47.07
51.06
56.51
60.98
62.30
59.55
53.30
44.86
35.48
25.96
17.03
9.85
5.96
6.69
11.98
19.80
26.58
28.61
23.50
11.13
-6.62
-26.98
-47.42
-66.13
-81.86
-93.57
-100.39
-102.08
-99.37
-93.67
-86.20
-77.12
-65.59
-50.88
-33.83
-17.22
-4.68
1.56
2.37
1.56
3.62
10.97
22.57
34.78
43.89
48.35
49.23
48.74
48.32
47.76
45.90
42.28
38.08
35.63
36.90
41.97
48.99
55.24
58.68
58.75
56.14
51.84
46.47
40.23
33.50
27.26
23.08
22.49
26.16
33.34
42.00
49.44
53.30
52.37
46.84
38.03
27.66
17.01
6.62
-3.55
-13.44
-22.40
-29.14
-32.40
-31.84
-28.56
-24.73
-22.60
-23.38
-26.73
-31.26
-35.58
-39.31
-43.31
-49.06
-57.61
-68.74
-80.91
-91.94
-100.04
-104.40
-105.07
-102.31
-96.11
-86.23
-72.87
-57.35
-41.97
-29.13
-20.08
-14.26
-9.69
-4.34
2.60
10.31
17.11
21.70
24.08
25.46
27.37
30.66
35.13
39.90
44.17
47.59
50.31
52.47
53.92
54.23
53.03
50.48
47.35
44.76
43.66
44.43
46.70
49.57
52.04
53.31
53.12
51.58
48.91
45.07
39.63
31.93
21.64
9.28
-3.59
-14.93
-23.16
-27.99
-30.64
-33.04
-36.66
-41.66
-46.85
-50.75
-52.71
-53.45
-54.72
-58.12
-64.08
-71.60
-78.84
-83.99
-85.82
-83.77
-77.73
-67.88
-54.95
-40.36
-26.04
-13.97
-5.33
-0.15
2.59
4.38
6.59
10.12
15.44
22.70
31.75
42.02
52.33
60.93
65.94
65.93
60.54
50.71
38.44
26.21
16.23
9.78
6.94
6.78
7.89
9.09
9.76
9.80
9.31
8.36
7.10
5.98
6.04
8.33
13.27
19.84
25.67
27.90
24.63
16.00
4.13
-7.80
-17.13
-22.52
-24.04
-22.46
-18.41
-12.23
-4.22
4.94
14.09
21.83
27.09
29.38
28.60
24.78
17.65
6.90
-7.28
-23.33
-38.03
-46.86
-45.45
-31.44
-5.83
26.71
59.16
84.44
97.76
97.87
87.00
69.69
51.31
36.88
30.21
33.27
45.57
63.80
82.46
95.24
97.16
86.35
64.62
36.79
8.82
-14.16
-29.33
-36.52
-37.52
-34.73
-29.92
-23.70
-15.92
-6.73
2.46
8.93
9.82
3.69
-8.32
-22.93
-36.45
-46.77
-54.15
-60.45
-67.19
-74.15
-79.48
-81.34
-79.61
-76.49
-75.18
-77.83
-84.02
-91.06
-95.64
-95.95
-92.44
-87.13
-81.95
-77.44
-72.73
-66.57
-58.51
-49.51
-41.48
-36.28
-34.68
-36.01
-38.36
-39.29
-36.82
-30.18
-20.33
-9.77
-1.61
1.94
0.82
-2.48
-3.83
0.65
12.74
31.26
52.62
72.42
87.28
95.85
98.74
97.53
93.60
87.48
79.04
68.32
56.27
44.78
35.90
30.71
28.54
27.25
24.49
19.20
12.34
6.38
3.72
5.18
9.48
14.07
16.70
16.53
14.31
11.34
8.32
4.71
-0.83
-9.41
-21.04
-34.33
-47.21
-57.88
-65.56
-70.58
-73.73
-75.44
-75.37
-72.63
-66.59
-57.75
-47.99
-39.95
-35.72
-35.72
-38.22
-40.13
-38.58
-32.09
-21.09
-7.28
7.25
20.79
32.02
39.85
43.33
42.15
37.09
30.14
23.77
20.01
19.90
23.62
30.97
41.59
54.64
68.25
79.44
85.14
83.69
75.91
64.80
53.94
45.64
40.05
35.73
31.07
25.58
20.04
15.80
13.60
13.28
14.00
14.87
15.46
15.77
15.90
15.72
14.76
12.36
7.87
1.00
-8.05
-18.47
-28.78
-37.08
-41.70
-41.86
-38.16
-32.57
-27.71
-25.86
-28.10
-33.90
-41.42
-48.32
-52.52
-52.84
-49.24
-42.63
-34.56
-26.61
-19.96
-14.91
-10.85
-6.55
-0.68
7.63
18.53
31.31
44.51
56.08
63.59
65.01
59.59
48.62
35.36
23.93
17.37
16.27
18.82
22.41
25.64
29.19
34.81
42.99
51.22
54.44
47.67
29.37
2.93
-24.81
-47.14
-60.92
-67.48
-70.60
-73.07
-74.57
-72.18
-63.27
-48.39
-32.01
-20.52
-18.70
-27.19
-42.44
-59.26
-73.93
-85.83
-96.51
-107.17
-116.30
-119.48
-111.65
-90.35
-58.16
-22.44
7.45
24.27
25.99
16.61
4.14
-3.12
0.02
13.86
34.34
55.27
70.98
78.31
77.01
69.18
57.68
45.08
33.09
22.76
15.01
10.86
10.95
14.91
20.87
25.82
26.97
22.98
14.62
4.33
-5.11
-11.79
-15.30
-16.36
-16.02
-15.05
-13.94
-13.29
-14.09
-17.47
-24.04
-33.20
-43.02
-50.84
-54.25
-51.96
-44.18
-32.33
-18.33
-3.86
10.02
22.78
34.11
43.55
50.54
54.86
57.02
58.27
60.12
63.38
67.61
71.18
72.06
69.02
62.28
53.41
44.45
37.07
32.07
29.70
30.01
32.91
37.68
42.43
44.13
39.81
28.16
10.71
-8.37
-24.10
-33.18
-35.58
-34.36
-33.82
-37.16
-45.01
-55.70
-66.50
-74.94
-79.49
-79.46
-74.90
-66.71
-56.74
-47.61
-41.75
-40.14
-41.66
-43.38
-41.82
-34.56
-21.18
-3.32
16.04
33.41
45.79
51.13
48.87
40.10
27.43
14.34
4.14
-0.99
-0.49
4.64
12.26
19.77
24.77
25.72
22.44
16.23
9.27
3.70
0.70
0.17
1.13
2.47
3.39
3.30
1.54
-2.67
-9.75
-18.97
-28.20
-34.60
-36.02
-32.28
-25.41
-18.59
-14.45
-14.03
-16.85
-21.85
-28.29
-35.88
-44.08
-51.40
-55.54
-54.47
-47.71
-36.97
-25.46
-16.30
-10.96
-8.63
-6.78
-2.53
6.10
19.44
36.24
54.23
70.73
83.46
91.01
93.16
90.64
84.67
76.28
65.99
53.96
40.53
26.70
14.15
4.74
-0.32
-0.97
1.78
6.48
12.06
18.29
25.49
33.80
42.55
50.17
54.81
55.26
51.60
45.12
37.62
30.60
24.64
19.51
14.60
9.32
3.35
-3.48
-11.17
-19.44
-27.48
-33.97
-37.46
-37.01
-32.85
-26.46
-20.26
-16.81
-17.99
-24.47
-35.56
-49.33
-63.15
-73.99
-79.26
-77.40
-68.54
-54.69
-39.25
-25.94
-17.48
-14.53
-15.50
-17.30
-16.66
-11.48
-1.62
11.15
24.13
34.75
41.63
44.79
45.40
44.93
44.51
44.55
44.83
45.00
44.87
44.53
44.08
43.21
41.01
36.51
29.25
19.97
10.56
3.19
-0.66
-0.90
1.41
4.90
8.88
13.39
18.60
23.92
27.69
27.91
23.51
15.27
5.60
-2.78
-8.43
-11.78
-14.46
-17.87
-22.01
-25.54
-26.89
-25.68
-23.16
-21.43
-22.03
-24.90
-28.60
-31.46
-32.79
-33.18
-33.64
-34.52
-34.81
-32.66
-26.64
-16.91
-5.44
4.84
11.53
13.96
13.40
12.39
13.34
17.37
23.63
29.69
32.69
30.85
24.49
16.18
9.72
8.34
13.26
23.03
34.23
43.06
47.03
45.78
40.93
34.90
29.72
26.21
24.01
22.15
19.84
16.95
13.96
11.61
10.32
9.97
10.09
10.29
10.56
11.07
11.63
11.32
8.68
2.49
-7.28
-19.15
-30.68
-39.52
-44.45
-45.69
-44.51
-42.52
-41.25
-41.92
-45.47
-52.34
-62.12
-73.51
-84.48
-93.00
-97.77
-98.73
-96.93
-93.93
-91.13
-89.16
-87.63
-85.30
-80.65
-72.67
-61.55
-48.88
-37.01
-27.95
-22.25
-18.80
-15.49
-10.59
-3.63
4.45
12.20
18.68
24.07
29.59
36.63
46.08
57.77
70.51
82.42
91.33
95.26
92.97
84.48
71.23
55.89
41.46
30.28
23.17
19.40
17.49
16.22
15.44
15.94
18.55
23.05
27.78
30.22
28.43
22.25
13.39
4.57
-2.16
-6.49
-9.89
-14.51
-21.76
-31.40
-41.65
-50.05
-54.62
-54.45
-49.91
-42.15
-32.87
-23.96
-17.48
-15.27
-18.40
-26.60
-37.90
-49.07
-56.73
-58.62
-54.47
-45.87
-35.40
-25.45
-17.42
-11.70
-7.87
-5.08
-2.19
2.19
9.41
20.16
33.73
47.93
59.83
67.06
68.98
66.75
62.47
57.72
52.92
47.64
41.64
35.63
31.04
28.97
29.23
30.18
29.65
26.35
20.70
14.59
10.28
9.19
11.26
15.23
19.34
22.16
22.93
21.63
18.73
15.02
11.43
8.84
7.86
8.50
10.09
11.24
10.38
6.30
-1.29
-11.58
-22.95
-33.64
-42.38
-48.72
-52.95
-55.74
-57.76
-59.52
-61.29
-63.07
-64.29
-63.94
-60.85
-54.47
-45.42
-35.35
-26.16
-18.88
-13.14
-7.61
-1.20
6.05
12.96
18.22
21.44
23.46
25.49
27.95
29.87
29.57
26.13
20.51
15.45
14.00
17.74
25.81
35.34
43.11
47.20
47.74
46.37
44.92
44.25
43.98
43.13
41.17
38.61
36.71
36.66
38.49
40.81
41.31
37.90
29.69
17.38
2.76
-12.27
-26.31
-38.59
-48.53
-55.32
-57.89
-55.61
-49.01
-40.20
-32.56
-29.58
-33.46
-44.08
-58.83
-73.53
-83.93
-87.23
-82.86
-72.18
-57.69
-41.77
-25.98
-10.79
4.12
19.16
34.37
49.12
62.07
71.47
75.60
73.43
65.17
52.61
38.87
27.55
21.52
21.79
27.11
34.44
40.14
41.45
37.40
28.94
18.20
7.50
-1.31
-7.08
-9.08
-6.93
-0.87
7.88
16.82
22.83
23.26
17.29
6.38
-6.34
-17.56
-25.17
-28.74
-28.98
-26.95
-23.57
-19.80
-17.12
-17.34
-21.94
-30.86
-42.11
-52.48
-59.16
-61.18
-59.83
-57.64
-56.85
-58.33
-61.61
-65.66
-69.53
-72.48
-73.48
-71.11
-64.09
-52.21
-37.02
-21.39
-8.30
0.70
6.14
10.14
15.09
22.30
31.48
40.86
48.16
51.39
49.72
43.87
36.08
29.39
26.50
28.46
34.20
41.03
46.05
47.57
45.69
41.70
37.09
32.49
27.70
22.25
16.19
10.41
6.32
5.23
7.68
13.17
20.33
27.27
32.19
33.92
32.20
27.59
21.00
13.13
4.13
-6.06
-16.99
-27.16
-34.27
-36.45
-33.55
-27.78
-22.80
-21.88
-26.07
-33.69
-41.42
-46.19
-46.68
-43.51
-38.38
-32.71
-27.07
-21.50
-16.24
-12.14
-10.26
-11.02
-13.42
-15.34
-14.53
-9.86
-1.95
7.10
14.75
19.24
20.15
18.50
16.11
14.87
16.12
20.12
25.98
32.01
36.31
37.55
35.59
31.52
27.08
23.81
22.19
21.58
20.76
18.83
15.89
12.97
11.28
11.32
12.46
13.26
12.41
9.61
5.90
3.08
2.73
5.18
9.11
12.19
12.10
7.74
-0.09
-8.99
-15.97
-18.86
-17.35
-13.12
-8.97
-7.48
-9.77
-15.15
-21.65
-27.11
-30.02
-29.87
-26.87
-21.48
-14.34
-6.52
0.17
3.39
1.26
-6.37
-17.19
-26.85
-30.64
-25.73
-12.50
5.56
23.37
36.47
42.79
42.97
39.62
35.77
33.62
33.91
36.14
39.11
41.60
42.68
41.84
38.91
33.94
27.34
19.92
13.03
8.35
7.41
10.88
17.97
26.47
33.53
36.77
35.31
29.94
22.38
14.23
6.14
-2.08
-10.55
-18.63
-24.73
-27.26
-25.95
-22.55
-20.22
-21.77
-27.98
-37.04
-45.82
-52.01
-55.64
-58.91
-64.25
-72.08
-80.02
-84.34
-82.62
-75.88
-68.23
-64.51
-67.03
-73.99
-80.35
-80.49
-71.18
-52.78
-28.63
-3.20
19.57
37.12
48.37
53.52
53.96
51.99
50.20
50.57
53.53
57.97
61.93
63.82
63.11
60.15
55.46
49.11
40.83
30.68
19.85
10.51
4.97
4.34
7.72
12.56
15.93
15.95
12.47
6.79
0.47
-5.67
-11.76
-18.26
-24.95
-30.51
-33.08
-31.49
-26.32
-20.04
-15.88
-16.24
-21.43
-29.58
-37.82
-43.89
-47.32
-49.44
-52.27
-57.07
-63.35
-68.85
-70.54
-65.91
-54.08
-36.12
-14.73
6.68
25.06
38.50
46.63
50.35
51.15
50.49
49.36
48.22
47.31
46.84
46.99
47.73
48.58
48.81
47.81
45.52
42.41
39.20
36.26
33.40
30.17
26.42
22.79
20.58
20.92
23.88
28.07
31.13
30.86
26.35
18.40
9.06
0.58
-5.51
-8.86
-10.05
-10.15
-10.20
-10.99
-12.94
-15.97
-19.55
-22.85
-25.10
-26.02
-26.03
-26.11
-27.43
-30.78
-36.32
-43.56
-51.61
-59.34
-65.52
-69.02
-69.13
-65.85
-60.05
-53.24
-46.91
-41.75
-37.25
-31.92
-24.09
-12.96
0.86
15.46
28.55
38.36
44.32
47.07
47.86
47.88
47.79
47.77
47.69
47.59
47.65
48.10
48.90
49.59
49.44
47.80
44.44
39.73
34.50
29.78
26.43
24.90
25.07
26.51
28.71
31.28
34.04
36.75
38.95
39.82
38.55
34.73
28.84
22.33
17.09
14.72
15.76
19.40
23.69
26.33
25.46
20.37
11.72
1.17
-9.15
-17.40
-22.55
-24.80
-25.45
-26.45
-29.72
-36.37
-46.18
-57.54
-68.09
-75.44
-78.17
-76.22
-70.73
-63.45
-55.97
-49.13
-42.86
-36.36
-28.52
-18.47
-6.10
7.63
20.64
30.31
34.47
32.56
26.06
17.98
11.56
8.71
9.44
12.22
15.22
17.45
19.00
20.60
22.87
25.88
29.40
33.24
37.42
41.96
46.36
49.53
50.08
46.96
39.96
29.70
17.25
3.55
-10.77
-25.31
-39.57
-52.74
-63.76
-71.79
-76.50
-78.28
-78.03
-76.71
-74.84
-72.26
-68.29
-62.35
-54.56
-46.11
-38.98
-35.16
-35.95
-41.43
-50.60
-61.81
-73.15
-82.84
-89.43
-91.84
-89.47
-82.24
-70.40
-54.38
-34.76
-12.35
11.62
35.33
56.63
73.50
84.61
89.58
89.07
84.50
77.82
71.27
66.80
65.57
67.32
70.32
71.99
70.06
63.72
54.00
43.27
34.12
28.25
25.98
26.55
28.70
31.42
33.97
35.81
36.34
34.87
31.04
25.11
17.99
10.90
4.64
-0.85
-6.34
-12.74
-20.20
-27.87
-34.28
-38.26
-39.83
-40.18
-40.95
-43.15
-46.55
-49.95
-52.05
-52.27
-50.75
-47.90
-43.74
-37.89
-30.11
-20.93
-11.93
-5.02
-1.44
-0.93
-1.77
-1.78
0.62
5.61
12.05
18.29
23.10
26.26
28.48
30.72
33.52
36.62
39.02
39.59
37.77
33.97
29.45
25.65
23.47
22.80
22.69
22.04
20.36
18.00
15.84
14.55
14.05
13.62
12.51
10.70
9.06
8.76
10.34
13.13
15.42
15.40
12.34
6.99
1.20
-3.17
-5.25
-5.45
-5.09
-5.63
-7.94
-11.98
-16.96
-21.60
-24.71
-25.72
-24.86
-23.20
-22.16
-22.89
-25.84
-30.73
-36.78
-43.11
-48.78
-52.61
-53.12
-48.86
-39.21
-24.99
-8.57
7.16
20.03
29.66
37.29
44.69
52.73
60.57
66.18
67.51
63.97
56.81
48.62
42.06
38.62
38.30
39.90
41.93
43.29
43.49
42.45
40.24
36.87
32.50
27.73
23.60
21.25
21.37
23.61
26.66
28.77
28.62
25.95
21.68
17.42
14.55
13.67
14.25
14.97
14.28
11.00
4.75
-3.86
-13.39
-22.03
-28.08
-30.58
-29.73
-26.98
-24.75
-25.73
-31.80
-43.48
-59.54
-77.50
-94.40
-107.79
-116.10
-118.69
-115.63
-107.54
-95.82
-82.90
-71.97
-65.93
-65.97
-70.56
-75.69
-76.46
-69.36
-53.96
-32.96
-10.78
8.44
22.28
30.42
33.87
34.18
32.81
31.13
30.49
32.09
36.46
43.03
50.17
55.67
57.74
55.74
50.40
43.39
36.53
31.14
27.58
25.44
23.87
22.16
20.18
18.34
17.47
18.31
21.05
25.05
28.95
30.96
29.48
23.66
13.68
0.68
-13.55
-27.07
-38.17
-45.60
-48.76
-47.90
-44.21
-39.79
-37.09
-38.02
-43.12
-51.04
-58.98
-63.84
-63.65
-58.56
-50.60
-42.65
-36.96
-34.08
-32.74
-30.66
-25.64
-16.59
-3.90
10.79
25.20
37.19
45.32
49.24
49.57
47.62
44.73
41.86
39.38
37.30
35.73
35.11
35.97
38.45
41.90
45.04
46.57
45.92
43.34
39.66
35.54
31.19
26.53
21.76
17.62
15.05
14.35
14.64
14.16
11.39
6.16
-0.11
-5.33
-8.27
-9.41
-10.56
-13.55
-18.75
-24.80
-29.45
-31.05
-29.54
-26.48
-24.20
-24.70
-28.95
-36.69
-46.72
-57.30
-66.62
-73.28
-76.62
-76.70
-73.94
-68.61
-60.71
-50.26
-37.92
-25.24
-13.99
-5.20
1.61
8.15
15.98
25.09
33.45
38.16
37.52
32.57
26.88
24.63
28.12
36.41
45.96
52.81
54.96
53.16
50.05
48.07
47.88
48.21
47.09
43.57
38.50
34.01
31.99
32.91
35.57
38.09
39.22
38.99
38.29
37.81
37.23
35.25
30.50
22.53
12.36
1.76
-7.88
-16.33
-24.60
-33.99
-44.93
-56.46
-66.46
-72.70
-73.83
-69.91
-62.06
-51.89
-40.99
-30.71
-22.32
-16.84
-14.77
-15.75
-18.43
-20.82
-21.06
-18.01
-11.59
-2.73
7.05
15.98
22.57
26.15
27.00
26.30
25.51
25.64
26.79
28.31
29.47
29.99
30.18
30.42
30.68
30.30
28.43
24.73
19.60
13.95
8.52
3.40
-1.85
-7.68
-13.98
-20.16
-25.55
-29.91
-33.57
-37.13
-40.95
-44.98
-48.76
-51.68
-53.22
-53.03
-51.13
-48.00
-44.60
-41.93
-40.55
-40.10
-39.50
-37.72
-34.53
-30.84
-28.20
-27.61
-28.67
-29.47
-27.50
-21.06
-10.16
3.63
17.89
30.44
39.89
45.71
48.03
47.57
45.57
43.60
43.11
44.68
47.69
50.61
51.75
50.35
46.87
42.72
39.34
37.36
36.27
34.93
32.36
28.44
24.00
20.23
17.92
16.80
15.59
12.68
7.01
-1.20
-10.48
-18.71
-24.12
-26.04
-25.22
-23.31
-22.01
-22.29
-24.10
-26.77
-29.51
-32.02
-34.44
-37.02
-39.82
-42.55
-44.83
-46.54
-47.89
-49.07
-49.87
-49.53
-47.13
-42.31
-35.67
-28.68
-22.99
-19.40
-17.41
-15.45
-11.64
-4.84
4.91
16.53
28.31
38.56
46.00
49.94
50.44
48.20
44.41
40.39
37.27
35.67
35.68
37.00
39.06
41.14
42.42
42.16
39.89
35.74
30.53
25.58
22.11
20.70
21.00
21.96
22.45
21.82
20.25
18.49
17.38
17.32
17.90
18.07
16.56
12.57
6.29
-0.93
-7.12
-10.64
-11.13
-9.82
-8.87
-10.17
-14.00
-18.96
-22.74
-23.68
-21.89
-19.16
-17.90
-19.64
-24.38
-30.77
-37.14
-42.22
-45.33
-46.05
-43.82
-38.11
-28.96
-17.54
-5.94
3.54
9.52
12.26
13.41
15.15
18.97
25.07
32.45
39.59
45.24
48.75
50.25
50.17
49.01
47.15
44.74
41.76
38.20
34.10
29.69
25.50
22.17
20.34
20.22
21.35
22.55
22.41
19.98
15.38
9.89
5.44
3.61
4.73
7.65
10.23
10.41
7.32
1.64
-4.83
-10.21
-13.59
-15.39
-16.96
-19.69
-24.12
-29.68
-35.03
-38.93
-40.97
-41.85
-42.98
-45.65
-50.33
-56.59
-63.54
-70.51
-77.48
-84.70
-91.86
-97.62
-99.81
-96.58
-87.50
-73.99
-58.48
-43.06
-28.31
-13.51
2.19
18.45
33.41
44.60
50.46
51.26
48.82
45.31
42.14
39.68
37.88
37.02
37.77
40.67
45.21
49.66
51.76
49.94
44.26
36.51
29.27
24.57
23.10
24.17
26.42
28.62
30.13
30.75
30.30
28.35
24.20
17.39
8.11
-2.58
-12.89
-20.87
-25.05
-25.00
-21.56
-16.60
-12.39
-10.79
-12.54
-17.12
-23.08
-28.84
-33.40
-36.70
-39.31
-41.99
-45.10
-48.60
-52.04
-54.78
-56.09
-55.18
-51.43
-44.78
-36.01
-26.72
-18.79
-13.44
-10.63
-9.07
-6.94
-2.84
3.55
11.48
19.68
27.00
32.78
36.88
39.48
40.84
41.20
40.80
39.80
38.43
36.88
35.44
34.38
33.83
33.64
33.26
31.95
29.19
25.04
20.12
15.37
11.54
8.90
7.44
7.18
8.40
11.41
16.01
21.08
24.74
25.14
21.51
14.69
6.91
0.67
-2.44
-2.41
-0.62
1.03
1.11
-0.93
-4.77
-9.83
-15.71
-22.30
-29.58
-37.26
-44.69
-51.03
-55.56
-57.84
-57.71
-55.16
-50.28
-43.25
-34.52
-24.83
-15.12
-6.37
0.65
5.56
8.46
9.98
11.18
13.25
16.90
21.89
26.93
30.15
30.09
26.66
21.43
17.05
16.01
19.46
26.68
35.37
42.61
45.99
44.41
38.40
29.71
20.60
12.84
6.98
2.16
-3.29
-10.79
-20.47
-30.97
-40.05
-45.84
-47.54
-45.45
-40.34
-32.74
-22.91
-11.40
0.21
9.25
12.87
9.34
-0.91
-15.44
-30.80
-44.08
-53.73
-59.50
-61.75
-60.77
-56.73
-50.20
-42.54
-35.77
-31.79
-31.30
-33.26
-35.19
-34.11
-27.85
-15.83
0.67
19.00
35.94
48.67
55.52
56.48
53.21
48.32
44.31
42.51
42.54
42.74
41.30
37.53
32.41
28.13
26.89
29.66
35.60
42.57
48.14
50.66
49.76
46.15
41.05
35.70
31.01
27.42
24.88
22.90
20.75
17.89
14.30
10.41
6.76
3.31
-0.76
-6.71
-15.34
-25.99
-36.37
-43.53
-45.31
-41.69
-34.92
-28.34
-24.68
-24.91
-28.33
-33.59
-39.83
-46.92
-54.66
-61.75
-65.64
-63.46
-53.82
-38.05
-19.84
-3.59
7.69
13.61
15.96
17.28
19.36
22.70
26.89
31.46
36.21
41.01
45.14
47.07
45.05
37.99
26.41
12.43
-0.90
-10.87
-15.99
-16.34
-13.15
-7.95
-2.00
3.85
9.00
12.74
14.19
12.75
8.62
3.14
-1.48
-3.05
-0.63
4.96
11.45
16.20
17.54
15.30
10.54
4.73
-1.07
-6.43
-11.29
-15.55
-18.97
-21.28
-22.56
-23.24
-23.88
-24.92
-26.42
-28.17
-30.04
-32.14
-34.86
-38.58
-43.39
-48.79
-53.70
-56.64
-56.15
-51.41
-42.71
-31.49
-19.84
-9.59
-1.35
5.65
12.99
22.04
33.00
44.73
55.33
63.13
67.35
68.17
66.38
62.88
58.40
53.51
48.65
44.09
39.85
35.70
31.39
27.09
23.51
21.64
22.05
24.19
26.32
26.20
22.28
14.81
5.87
-1.47
-4.58
-2.59
3.32
10.62
16.57
19.28
18.20
13.85
7.14
-1.04
-9.96
-18.78
-26.19
-30.53
-30.34
-25.10
-15.98
-5.66
2.37
5.04
0.86
-9.45
-23.29
-37.20
-48.11
-54.58
-57.08
-57.60
-58.46
-61.15
-65.62
-70.50
-74.04
-75.21
-74.26
-72.35
-70.53
-68.78
-65.61
-58.74
-46.42
-28.80
-8.45
10.35
23.30
28.25
26.42
22.11
20.70
25.99
38.19
53.91
68.07
76.53
78.01
73.94
66.88
58.57
49.17
38.08
25.60
13.85
6.18
5.38
11.74
22.70
33.92
41.41
43.28
40.08
34.02
27.45
21.89
17.68
14.28
10.95
7.09
2.49
-2.82
-8.63
-14.70
-20.78
-26.56
-31.61
-35.38
-37.36
-37.40
-35.92
-33.97
-32.88
-33.57
-36.04
-39.28
-41.80
-42.46
-41.13
-38.73
-36.58
-35.54
-35.35
-34.64
-31.68
-25.21
-15.08
-2.40
10.86
22.56
31.01
35.40
36.01
33.96
30.79
27.94
26.34
26.14
26.95
28.08
28.97
29.33
29.09
28.21
26.51
23.68
19.54
14.39
9.09
4.96
3.20
4.43
8.26
13.35
17.85
20.23
19.76
16.75
12.27
7.53
3.29
-0.28
-3.43
-6.51
-9.44
-11.90
-13.43
-13.87
-13.58
-13.52
-14.74
-17.87
-22.67
-28.05
-32.61
-35.56
-37.21
-38.92
-42.17
-47.44
-53.46
-57.66
-57.47
-51.80
-41.86
-30.58
-21.04
-14.83
-11.27
-7.96
-2.32
6.92
19.02
31.57
41.78
47.63
48.75
46.39
42.84
40.47
41.07
45.31
52.77
62.24
71.84
79.37
82.60
79.76
70.17
54.80
36.20
17.94
3.57
-4.52
-5.67
-0.93
7.55
17.35
26.34
32.92
35.93
34.69
29.05
19.75
8.59
-1.89
-9.10
-11.47
-9.29
-4.78
-1.25
-1.64
-7.05
-16.19
-26.13
-33.93
-38.22
-39.87
-41.06
-43.87
-48.88
-55.10
-60.92
-65.39
-68.86
-72.33
-76.23
-79.37
-79.29
-73.74
-62.34
-47.34
-32.72
-22.11
-16.89
-15.67
-15.36
-13.14
-8.12
-1.57
4.08
6.85
6.36
3.86
1.43
0.96
3.43
8.99
17.26
27.70
39.53
51.49
61.66
67.72
67.81
61.45
50.10
36.99
25.99
20.20
20.74
26.32
33.89
39.88
41.72
38.80
32.54
25.48
19.86
16.50
14.40
11.58
6.45
-1.02
-9.10
-15.39
-18.40
-18.59
-18.07
-19.17
-22.84
-28.08
-32.83
-35.74
-37.27
-39.51
-44.56
-52.81
-62.21
-69.27
-71.00
-66.54
-57.48
-46.75
-36.98
-29.32
-23.46
-18.41
-13.45
-8.55
-4.03
0.03
4.13
9.09
15.40
22.65
29.44
33.95
34.85
31.96
26.43
20.28
15.58
13.75
15.11
19.03
24.32
29.64
33.83
36.05
35.76
32.89
27.91
21.85
16.12
12.02
10.23
10.50
11.87
13.19
13.81
13.84
13.78
13.98
14.05
12.95
9.51
3.38
-4.57
-12.48
-18.35
-21.01
-20.56
-18.12
-15.07
-12.39
-10.50
-9.55
-9.75
-11.44
-14.88
-19.83
-25.54
-31.00
-35.48
-38.75
-41.01
-42.44
-42.89
-41.98
-39.38
-35.23
-30.08
-24.57
-18.97
-13.06
-6.38
1.22
9.29
16.90
23.10
27.44
30.10
31.64
32.60
33.28
33.70
33.79
33.61
33.27
32.90
32.56
32.33
32.36
32.83
33.77
34.93
35.81
35.91
35.16
34.03
33.42
34.22
36.72
40.39
44.00
46.12
45.65
42.31
36.61
29.61
22.42
15.73
9.47
3.02
-4.40
-13.12
-22.51
-31.19
-37.57
-40.72
-40.80
-39.02
-37.02
-36.19
-37.29
-40.49
-45.57
-51.91
-58.47
-63.78
-66.15
-64.42
-58.56
-49.78
-40.00
-30.90
-23.09
-16.11
-9.04
-1.31
6.76
14.13
19.56
22.24
21.98
19.26
15.07
10.77
7.85
7.70
10.99
17.30
25.20
32.69
38.12
40.79
40.97
39.37
36.35
31.75
25.26
17.17
8.89
2.43
-0.71
-0.65
0.50
-0.30
-5.30
-14.45
-25.14
-33.47
-36.40
-33.41
-26.78
-20.37
-17.54
-19.62
-25.57
-32.97
-39.51
-43.99
-46.42
-47.36
-47.16
-45.69
-42.69
-38.23
-33.03
-28.19
-24.54
-21.99
-19.48
-15.42
-8.60
1.13
12.59
23.72
32.33
37.10
38.08
36.61
34.64
33.83
34.78
36.79
38.43
38.39
36.30
32.96
29.86
28.20
28.14
28.62
28.04
25.38
21.07
16.81
14.64
15.57
18.87
22.53
24.48
23.89
21.60
19.29
18.12
17.92
17.30
14.78
9.91
3.62
-2.34
-6.57
-8.77
-9.69
-10.42
-11.64
-13.40
-15.35
-17.42
-19.97
-23.65
-28.79
-35.01
-41.26
-46.40
-49.91
-52.14
-54.13
-56.83
-60.38
-63.87
-65.66
-64.18
-58.65
-49.36
-37.51
-24.60
-12.00
-0.67
8.84
16.20
21.12
23.39
23.11
20.99
18.47
17.40
19.34
24.75
32.64
40.89
47.29
50.64
51.28
50.68
50.23
50.26
49.85
47.57
42.73
35.98
29.08
23.94
21.47
21.37
22.47
23.65
24.35
24.74
25.28
26.22
27.34
27.90
27.08
24.35
19.86
14.40
9.09
4.86
2.04
0.23
-1.31
-3.20
-5.54
-8.07
-10.56
-13.21
-16.62
-21.33
-27.25
-33.43
-38.39
-40.89
-40.55
-37.92
-34.19
-30.68
-28.34
-27.56
-28.07
-28.93
-28.73
-26.00
-19.77
-10.13
1.64
13.47
23.10
28.90
30.29
27.78
22.71
16.85
11.93
9.37
9.97
13.66
19.49
25.66
30.03
30.73
26.95
19.40
10.07
1.42
-4.66
-7.57
-7.90
-6.93
-5.76
-5.05
-5.15
-6.47
-9.42
-14.01
-19.41
-24.00
-26.23
-25.64
-23.25
-21.00
-20.47
-21.82
-23.84
-24.93
-24.33
-22.66
-21.38
-21.64
-23.58
-26.42
-29.32
-32.23
-35.81
-40.76
-46.79
-52.23
-54.63
-52.02
-44.03
-32.17
-19.08
-7.28
1.95
8.89
14.84
21.19
28.52
36.29
43.09
47.33
48.08
45.59
41.29
37.24
35.25
36.08
39.02
42.28
43.95
42.87
39.17
34.03
28.91
24.78
21.82
19.65
17.89
16.43
15.45
15.03
14.90
14.43
13.04
10.43
6.85
2.84
-1.12
-4.89
-8.68
-12.65
-16.66
-20.23
-22.88
-24.53
-25.68
-27.22
-29.81
-33.56
-37.87
-41.91
-45.15
-47.63
-49.78
-51.93
-53.78
-54.41
-52.75
-48.30
-41.42
-33.30
-25.27
-18.28
-12.46
-7.23
-1.63
5.02
12.70
20.39
26.48
29.39
28.44
24.43
19.46
16.13
16.27
20.14
26.32
32.55
36.90
38.51
37.74
35.58
32.91
30.11
27.11
23.76
20.17
16.86
14.42
13.36
13.71
14.99
16.24
16.33
14.43
10.48
5.45
0.89
-1.74
-2.07
-1.09
-0.67
-2.45
-6.74
-12.26
-16.94
-19.25
-19.21
-18.48
-19.35
-23.29
-30.10
-38.11
-45.08
-49.33
-50.32
-48.44
-44.42
-38.73
-31.63
-23.47
-15.07
-7.62
-2.04
1.60
4.34
7.79
13.12
20.32
27.87
33.44
34.97
31.76
24.76
16.26
8.97
5.05
5.47
9.82
16.67
24.00
29.89
32.84
32.12
27.78
20.73
12.54
5.33
1.26
1.82
7.15
15.61
24.20
29.64
29.78
24.45
15.39
5.28
-3.68
-10.57
-15.68
-19.77
-23.19
-25.65
-26.57
-25.80
-23.97
-22.33
-22.07
-23.71
-26.85
-30.53
-33.77
-36.15
-37.93
-39.78
-42.28
-45.42
-48.41
-49.81
-48.05
-42.18
-32.26
-19.55
-6.09
5.96
15.10
20.81
23.52
24.22
23.90
23.41
23.33
24.02
25.60
27.88
30.52
33.12
35.51
37.81
40.21
42.66
44.56
45.06
43.48
39.87
35.17
30.71
27.57
25.90
24.89
23.36
20.50
16.35
11.75
7.76
5.04
3.47
2.16
-0.09
-4.21
-10.37
-17.80
-25.07
-30.74
-34.05
-35.24
-35.35
-35.38
-35.53
-35.01
-32.63
-27.79
-21.24
-14.85
-10.49
-8.74
-8.32
-6.72
-1.81
6.75
17.05
25.93
30.64
30.31
26.25
21.07
17.25
15.95
16.80
18.42
19.38
18.89
16.90
13.89
10.40
6.86
3.66
1.26
0.18
0.71
2.70
5.43
7.90
9.29
9.34
8.42
7.20
6.09
4.87
2.72
-1.21
-7.27
-14.90
-22.85
-29.66
-34.29
-36.33
-35.94
-33.37
-28.71
-21.82
-12.59
-1.41
10.55
21.43
29.15
32.07
29.59
22.35
12.08
1.07
-8.41
-14.53
-16.22
-13.44
-7.15
0.72
7.82
12.16
12.88
10.64
7.19
4.54
3.90
5.31
7.94
10.92
13.93
17.17
20.72
24.03
25.87
25.06
21.27
15.37
8.95
3.44
-0.64
-3.73
-6.76
-10.55
-15.35
-20.85
-26.25
-30.65
-33.14
-33.30
-31.45
-28.73
-26.77
-26.95
-29.65
-34.13
-39.05
-43.23
-46.23
-48.22
-49.42
-49.61
-48.06
-44.11
-37.67
-29.49
-20.71
-12.27
-4.53
2.72
9.77
16.61
22.81
27.70
30.70
31.59
30.63
28.53
26.29
24.90
25.03
26.67
29.19
31.53
32.80
32.66
31.49
30.11
29.25
29.15
29.56
29.94
29.98
29.73
29.55
29.75
30.32
30.96
31.21
30.84
29.82
28.20
25.79
22.21
17.22
11.21
5.42
1.23
-0.64
-0.95
-1.72
-5.06
-11.77
-20.71
-29.46
-35.90
-39.70
-42.39
-46.10
-51.86
-58.54
-63.53
-64.32
-60.16
-52.43
-43.58
-35.66
-29.25
-23.74
-18.32
-12.91
-8.13
-4.57
-1.78
1.86
8.38
18.84
32.33
45.98
56.00
59.39
55.27
45.32
32.95
21.95
14.99
12.82
14.46
17.94
21.36
23.44
23.62
21.61
17.19
10.19
0.98
-9.17
-18.23
-24.13
-25.73
-23.49
-19.41
-16.08
-15.52
-18.29
-23.39
-28.82
-32.51
-33.09
-30.07
-23.85
-15.46
-6.61
0.45
3.41
0.66
-7.73
-19.64
-31.50
-39.72
-42.13
-38.78
-31.48
-22.67
-14.14
-6.48
0.64
7.79
15.20
22.52
29.09
34.13
37.03
37.47
35.63
32.27
28.60
25.89
24.97
25.91
28.15
30.89
33.43
35.26
35.86
34.66
31.19
25.51
18.54
11.85
7.09
5.17
5.77
7.57
8.80
8.01
4.59
-1.25
-8.73
-16.84
-24.72
-31.65
-37.03
-40.38
-41.40
-40.36
-38.38
-37.24
-38.66
-43.31
-50.05
-56.23
-58.87
-56.28
-48.94
-39.19
-29.80
-22.43
-16.88
-11.60
-5.00
3.34
12.45
20.58
26.31
29.17
29.69
28.86
27.66
26.72
26.35
26.57
27.19
27.77
27.79
26.86
24.94
22.46
20.05
18.25
17.23
16.79
16.59
16.46
16.46
16.77
17.41
18.02
17.98
16.68
13.94
10.11
5.97
2.32
-0.47
-2.55
-4.44
-6.69
-9.40
-12.29
-14.84
-16.71
-18.07
-19.46
-21.56
-24.73
-28.83
-33.30
-37.39
-40.41
-41.86
-41.42
-38.96
-34.57
-28.69
-22.03
-15.39
-9.32
-3.80
1.65
7.65
14.49
21.82
28.84
34.68
38.91
41.62
43.35
44.68
45.94
47.15
48.15
48.62
48.30
46.86
43.96
39.30
32.86
25.06
16.79
9.27
3.65
0.70
0.45
2.22
4.88
7.26
8.65
9.04
8.95
9.03
9.56
10.33
10.75
10.24
8.53
5.78
2.39
-1.19
-4.48
-6.88
-7.75
-6.64
-3.74
-0.18
2.20
1.58
-2.94
-10.85
-20.34
-29.22
-35.95
-40.20
-42.78
-44.91
-47.46
-50.59
-53.78
-56.34
-57.81
-58.07
-57.13
-54.87
-51.06
-45.59
-38.89
-31.88
-25.65
-20.79
-16.95
-13.07
-8.13
-1.90
4.81
10.75
15.29
19.04
23.53
30.16
39.03
48.53
56.11
59.79
59.21
55.87
52.03
49.32
47.86
46.39
43.36
38.15
31.56
25.31
20.93
18.77
17.87
16.66
14.00
9.96
5.65
2.31
0.36
-0.97
-3.23
-7.66
-14.30
-21.85
-28.46
-32.78
-34.71
-35.29
-35.98
-37.76
-40.79
-44.61
-48.63
-52.45
-55.68
-57.64
-57.25
-53.48
-46.08
-36.14
-25.95
-17.97
-13.68
-12.85
-13.68
-13.79
-11.38
-6.00
1.58
9.89
17.51
23.58
27.84
30.38
31.44
31.34
30.43
29.10
27.80
26.88
26.66
27.27
28.56
29.99
30.66
29.59
26.24
20.91
14.87
9.95
7.67
8.48
11.47
14.76
16.48
15.66
12.66
8.63
4.66
1.09
-2.55
-6.88
-11.96
-16.95
-20.58
-22.07
-21.79
-21.08
-21.50
-23.85
-27.67
-31.75
-35.03
-37.37
-39.52
-42.29
-45.63
-48.32
-48.53
-44.97
-37.79
-28.67
-19.95
-13.42
-9.51
-7.31
-5.36
-2.66
0.90
4.66
7.86
10.24
12.18
14.56
18.20
23.43
30.00
37.10
43.59
48.36
50.65
50.21
47.49
43.40
39.01
35.12
32.09
29.88
28.37
27.48
27.06
26.60
25.29
22.33
17.66
12.25
7.77
5.72
6.41
8.59
10.08
8.96
4.78
-1.25
-6.98
-10.67
-11.95
-11.84
-11.93
-13.39
-16.38
-20.31
-24.58
-29.08
-34.19
-40.17
-46.50
-51.76
-54.09
-52.14
-45.83
-36.44
-26.04
-16.53
-8.94
-3.18
1.53
5.98
10.40
14.32
16.80
16.93
14.32
9.28
2.89
-3.35
-7.90
-9.56
-7.77
-2.71
4.75
13.22
21.16
27.37
31.26
32.99
33.22
32.64
31.64
30.21
28.24
25.80
23.25
20.99
18.99
16.63
12.93
7.33
0.16
-7.33
-13.61
-17.71
-19.73
-20.70
-21.95
-24.45
-28.50
-33.79
-39.59
-44.82
-48.18
-48.44
-44.95
-38.23
-30.05
-22.71
-17.97
-16.01
-15.29
-13.43
-8.53
-0.32
9.78
19.28
25.87
28.29
26.73
22.54
17.68
13.98
12.68
14.04
17.40
21.40
24.52
25.60
24.20
20.70
16.13
11.81
8.97
8.50
10.65
15.02
20.48
25.62
29.05
29.96
28.35
24.99
21.02
17.48
15.02
13.79
13.63
14.28
15.52
17.15
18.86
20.20
20.66
19.87
17.75
14.55
10.69
6.60
2.58
-1.15
-4.38
-6.89
-8.48
-9.14
-9.16
-9.12
-9.70
-11.46
-14.56
-18.75
-23.39
-27.74
-31.20
-33.45
-34.64
-35.24
-35.85
-36.97
-38.86
-41.47
-44.50
-47.56
-50.10
-51.51
-51.12
-48.33
-42.91
-35.23
-26.35
-17.74
-10.70
-5.75
-2.32
0.91
5.24
11.11
17.87
24.00
28.11
29.68
29.35
28.48
28.34
29.43
31.32
33.15
34.17
34.18
33.34
31.89
29.80
26.95
23.47
19.96
17.44
16.84
18.42
21.56
25.04
27.64
28.74
28.45
27.31
25.68
23.42
19.95
14.73
7.82
0.23
-6.47
-10.76
-12.03
-10.90
-9.02
-8.29
-9.82
-13.44
-17.81
-21.29
-22.94
-23.08
-23.06
-24.35
-27.59
-32.26
-37.20
-41.44
-44.76
-47.50
-49.70
-50.51
-48.31
-41.79
-31.24
-18.96
-8.46
-2.58
-1.87
-4.14
-5.57
-2.81
5.18
16.68
28.13
35.99
38.37
35.57
29.67
23.25
18.29
15.57
14.83
15.36
16.58
18.15
19.83
21.18
21.38
19.56
15.44
9.74
4.30
1.40
2.73
8.47
17.12
25.96
32.24
34.19
31.62
25.80
18.82
12.79
9.08
7.91
8.38
8.85
7.58
3.44
-3.67
-12.76
-22.20
-30.40
-36.29
-39.49
-40.12
-38.59
-35.58
-32.22
-30.08
-30.71
-34.86
-41.73
-49.00
-53.65
-53.44
-47.91
-38.67
-28.34
-19.24
-12.26
-6.81
-1.61
4.27
10.78
17.09
22.10
25.10
26.00
25.15
23.19
20.82
18.81
17.88
18.49
20.57
23.35
25.65
26.39
25.18
22.47
19.38
16.96
15.68
15.17
14.62
13.35
11.29
9.10
7.70
7.63
8.55
9.36
8.69
5.69
0.52
-5.72
-11.64
-16.30
-19.60
-22.20
-24.95
-28.38
-32.36
-36.42
-40.07
-43.06
-45.31
-46.62
-46.54
-44.48
-40.14
-33.94
-26.98
-20.61
-15.80
-12.59
-10.09
-6.99
-2.32
4.04
11.20
17.69
22.14
23.88
23.25
21.46
20.07
20.29
22.47
25.86
29.07
30.75
30.33
28.33
26.00
24.55
24.49
25.37
26.24
26.37
25.69
24.75
24.08
23.65
22.70
20.30
16.08
10.69
5.53
1.98
0.51
0.54
0.83
0.34
-1.13
-2.99
-4.31
-4.53
-3.62
-2.09
-0.56
0.46
0.62
-0.42
-2.95
-7.01
-12.18
-17.55
-22.04
-24.98
-26.54
-27.70
-29.75
-33.54
-38.97
-44.79
-49.11
-50.20
-47.20
-40.57
-31.88
-23.19
-16.21
-11.68
-9.17
-7.35
-4.65
0.10
7.14
15.66
24.09
30.66
34.10
34.24
32.07
29.31
27.68
28.12
30.47
33.64
36.35
37.67
37.42
36.04
34.13
32.17
30.38
28.82
27.59
26.77
26.32
25.97
25.23
23.56
20.54
15.91
9.72
2.36
-5.34
-12.16
-16.80
-18.38
-16.96
-13.73
-10.74
-10.11
-13.17
-19.92
-29.05
-38.56
-46.54
-51.82
-54.19
-54.22
-52.83
-50.95
-49.31
-48.30
-47.93
-47.87
-47.52
-46.11
-43.03
-38.10
-31.71
-24.70
-18.00
-12.13
-6.87
-1.40
5.22
13.32
22.24
30.44
36.17
38.33
37.15
34.15
31.41
30.62
32.23
35.42
38.67
40.67
40.98
40.00
38.38
36.41
33.76
29.94
24.92
19.57
15.39
13.77
15.11
18.58
22.43
24.93
25.06
22.79
18.73
13.59
7.88
1.87
-4.20
-9.90
-14.77
-18.57
-21.42
-23.68
-25.72
-27.72
-29.61
-31.35
-33.09
-35.22
-38.17
-42.11
-46.78
-51.45
-55.24
-57.19
-56.54
-52.91
-46.37
-37.65
-27.99
-18.80
-11.17
-5.47
-1.21
2.55
6.64
11.31
16.05
19.96
22.27
22.94
22.66
22.63
23.82
26.43
29.63
32.08
32.52
30.60
27.02
23.09
20.05
18.24
17.13
15.78
13.60
10.76
8.15
6.67
6.58
7.35
7.87
7.24
5.11
1.81
-2.15
-6.38
-10.86
-15.76
-21.06
-26.34
-30.82
-33.85
-35.23
-35.48
-35.53
-36.26
-38.02
-40.32
-42.09
-42.19
-39.89
-35.19
-28.69
-21.35
-14.04
-7.32
-1.39
3.87
8.68
13.31
17.92
22.46
26.67
30.24
32.91
34.77
36.20
37.60
39.14
40.57
41.36
40.98
39.39
36.91
34.14
31.58
29.49
27.99
27.16
27.14
27.89
28.97
29.50
28.50
25.46
20.76
15.65
11.61
9.60
9.59
10.64
11.49
11.20
9.47
6.59
3.13
-0.43
-3.63
-5.99
-7.04
-6.51
-4.71
-2.64
-1.78
-3.30
-7.52
-13.65
-20.30
-26.16
-30.65
-33.98
-36.81
-39.71
-42.88
-46.16
-49.25
-51.83
-53.62
-54.24
-53.27
-50.50
-46.06
-40.50
-34.49
-28.49
-22.55
-16.36
-9.64
-2.46
4.61
10.60
14.53
15.75
14.28
11.04
7.70
6.28
8.50
14.98
24.97
36.53
47.24
55.10
59.10
59.22
56.15
50.77
43.93
36.46
29.33
23.69
20.53
20.25
22.33
25.42
27.93
28.65
27.19
23.95
19.80
15.51
11.45
7.51
3.35
-1.26
-6.25
-11.23
-15.68
-19.17
-21.58
-22.97
-23.61
-23.83
-24.07
-24.93
-27.16
-31.50
-38.19
-46.61
-55.07
-61.29
-63.30
-60.35
-53.35
-44.44
-35.92
-29.25
-24.49
-20.62
-16.43
-11.28
-5.40
0.42
5.51
9.70
13.38
17.11
21.16
25.28
28.75
30.81
31.08
29.91
28.26
27.22
27.42
28.71
30.22
30.88
30.08
27.93
25.21
22.81
21.20
20.26
19.41
18.12
16.18
13.70
10.96
8.11
5.10
1.82
-1.73
-5.44
-8.96
-11.99
-14.25
-15.57
-15.98
-15.71
-15.18
-14.92
-15.53
-17.46
-20.99
-26.19
-32.83
-40.45
-48.18
-54.79
-58.87
-59.32
-55.77
-48.95
-40.43
-32.04
-25.20
-20.28
-16.59
-12.90
-8.11
-1.89
5.20
12.09
17.74
21.62
23.85
24.95
25.45
25.64
25.60
25.39
25.31
25.78
27.16
29.38
31.84
33.55
33.68
31.98
28.93
25.55
22.84
21.35
21.07
21.58
22.38
23.08
23.36
22.75
20.62
16.34
9.62
1.02
-8.13
-16.11
-21.55
-24.11
-24.62
-24.64
-25.64
-28.32
-32.32
-36.59
-40.00
-41.78
-41.78
-40.17
-37.23
-33.26
-28.69
-24.13
-20.25
-17.45
-15.37
-12.95
-8.79
-1.87
7.73
18.67
28.77
35.90
38.89
37.92
34.28
29.79
26.09
24.19
24.41
26.57
30.16
34.38
38.21
40.51
40.30
37.15
31.42
24.09
16.34
9.05
2.56
-3.14
-8.15
-12.34
-15.41
-17.19
-17.80
-17.77
-17.65
-17.73
-17.79
-17.37
-16.21
-14.63
-13.44
-13.58
-15.53
-19.01
-23.18
-27.14
-30.35
-32.72
-34.29
-34.96
-34.42
-32.42
-29.18
-25.38
-21.74
-18.40
-14.67
-9.38
-1.64
8.45
19.67
30.20
38.44
43.64
45.99
46.27
45.37
43.91
42.25
40.59
39.06
37.67
36.31
34.79
33.04
31.19
29.50
28.12
26.91
25.42
23.17
19.96
16.13
12.44
9.71
8.41
8.45
9.40
10.76
12.33
14.00
15.54
16.31
15.52
12.56
7.63
1.68
-4.00
-8.48
-11.71
-14.41
-17.59
-21.84
-27.03
-32.39
-37.01
-40.31
-42.15
-42.79
-42.56
-41.85
-41.09
-40.89
-41.91
-44.61
-48.82
-53.52
-57.16
-58.12
-55.50
-49.57
-41.61
-33.36
-26.22
-20.67
-16.22
-11.93
-7.01
-1.23
5.04
11.18
16.62
21.04
24.40
26.88
28.81
30.56
32.42
34.52
36.74
38.71
39.94
39.97
38.54
35.72
31.90
27.72
23.86
20.96
19.44
19.49
20.99
23.57
26.57
29.13
30.39
29.67
26.82
22.36
17.32
12.91
9.96
8.67
8.62
9.08
9.38
9.10
8.01
6.02
3.13
-0.50
-4.47
-8.33
-11.78
-14.93
-18.24
-22.29
-27.42
-33.47
-39.87
-45.89
-50.92
-54.49
-56.26
-55.97
-53.52
-49.16
-43.55
-37.55
-31.79
-26.37
-20.81
-14.48
-7.04
1.23
9.42
16.45
21.37
23.79
23.84
22.23
20.03
18.50
18.76
21.43
26.33
32.47
38.36
42.60
44.41
43.94
42.02
39.67
37.52
35.48
33.00
29.57
25.31
21.11
18.16
17.17
17.70
18.26
17.12
13.31
7.33
0.75
-4.83
-8.86
-12.14
-16.15
-21.87
-28.93
-35.74
-40.54
-42.57
-42.46
-41.76
-41.78
-42.72
-43.64
-43.34
-41.41
-38.81
-37.27
-38.14
-41.31
-44.98
-46.57
-44.26
-38.08
-29.88
-22.21
-16.76
-13.46
-10.63
-6.22
0.98
10.63
21.08
30.35
37.04
40.79
42.08
41.82
40.83
39.73
38.90
38.56
38.72
39.16
39.44
39.02
37.51
34.81
31.25
27.42
23.97
21.34
19.60
18.42
17.33
16.04
14.55
13.06
11.68
10.15
7.84
4.06
-1.56
-8.74
-16.62
-24.05
-30.10
-34.25
-36.54
-37.43
-37.64
-37.91
-38.83
-40.57
-42.77
-44.46
-44.45
-41.86
-36.69
-29.96
-23.28
-18.04
-14.68
-12.45
-9.81
-5.41
1.14
9.00
16.48
22.00
24.84
25.33
24.59
23.78
23.60
24.12
25.05
26.06
27.11
28.28
29.63
30.95
31.82
31.91
31.22
30.22
29.54
29.59
30.26
30.93
30.84
29.53
27.16
24.38
21.91
20.14
18.90
17.66
15.96
13.71
11.18
8.69
6.12
2.81
-2.14
-9.31
-18.44
-28.35
-37.35
-44.01
-47.70
-48.69
-47.88
-46.35
-44.89
-44.01
-44.03
-45.19
-47.60
-51.09
-55.03
-58.32
-59.73
-58.20
-53.23
-45.06
-34.60
-23.16
-12.08
-2.40
5.43
11.59
16.69
21.44
26.18
30.72
34.39
36.31
35.83
32.98
28.51
23.71
20.01
18.39
19.11
21.65
25.00
27.99
29.69
29.62
27.82
24.79
21.39
18.59
17.16
17.42
19.09
21.43
23.54
24.75
24.78
23.64
21.39
18.01
13.46
8.01
2.36
-2.40
-5.26
-5.86
-4.82
-3.60
-3.82
-6.54
-11.67
-18.11
-24.22
-28.69
-30.96
-31.37
-30.80
-30.20
-30.33
-31.72
-34.72
-39.46
-45.62
-52.13
-57.36
-59.50
-57.32
-50.82
-41.23
-30.49
-20.43
-12.05
-5.37
0.16
5.14
9.72
13.59
16.22
17.35
17.25
16.67
16.67
18.13
21.48
26.52
32.44
38.07
42.25
44.12
43.43
40.58
36.51
32.27
28.69
26.00
23.92
21.90
19.45
16.50
13.34
10.52
8.50
7.47
7.21
7.18
6.63
4.85
1.40
-3.77
-10.19
-17.08
-23.45
-28.50
-31.74
-33.13
-33.17
-32.64
-32.50
-33.60
-36.34
-40.44
-44.86
-48.10
-48.72
-46.04
-40.43
-33.21
-26.07
-20.30
-16.23
-13.13
-9.56
-4.12
3.88
14.03
24.90
34.49
40.97
43.33
41.71
37.38
32.14
27.70
25.02
24.19
24.60
25.52
26.36
26.81
26.64
25.51
23.04
19.01
13.81
8.42
4.10
1.90
2.08
4.10
6.79
8.80
9.01
6.82
2.20
-4.19
-11.23
-17.64
-22.47
-25.44
-27.01
-28.16
-29.78
-32.35
-35.68
-39.09
-41.73
-42.87
-42.13
-39.53
-35.51
-30.78
-26.13
-22.12
-18.82
-15.79
-12.29
-7.66
-1.64
5.44
12.88
19.78
25.32
28.98
30.66
30.76
30.10
29.58
29.67
30.18
30.28
29.10
26.39
22.86
19.87
18.61
19.29
20.94
22.04
21.45
19.14
16.20
14.13
13.87
15.35
17.62
19.54
20.39
20.11
19.02
17.45
15.39
12.65
9.18
5.34
1.85
-0.49
-1.24
-0.61
0.61
1.34
0.65
-1.86
-5.98
-11.02
-16.23
-21.07
-25.42
-29.36
-33.09
-36.63
-39.89
-42.85
-45.70
-48.80
-52.33
-55.89
-58.34
-58.13
-54.01
-45.76
-34.46
-22.15
-10.94
-2.10
4.29
9.16
13.68
18.54
23.70
28.50
32.19
34.40
35.25
35.17
34.66
34.06
33.58
33.23
32.90
32.30
31.07
28.92
25.95
22.70
20.02
18.59
18.39
18.67
18.32
16.53
13.45
10.19
8.27
8.68
11.16
14.17
15.61
13.85
8.61
0.98
-7.18
-14.34
-20.00
-24.65
-29.14
-33.74
-37.79
-40.03
-39.51
-36.39
-32.14
-28.81
-28.05
-30.27
-34.64
-39.69
-44.15
-47.35
-49.10
-49.20
-47.20
-42.56
-35.20
-25.85
-15.86
-6.53
1.66
9.16
16.92
25.45
34.21
41.72
46.38
47.52
45.85
43.07
40.93
40.23
40.55
40.73
39.74
37.34
34.14
31.22
29.44
29.01
29.51
30.21
30.41
29.72
28.01
25.46
22.38
19.10
15.86
12.67
9.36
5.73
1.81
-2.04
-5.27
-7.53
-8.94
-10.19
-12.13
-15.34
-19.69
-24.49
-28.83
-32.10
-34.21
-35.43
-36.10
-36.44
-36.64
-37.08
-38.40
-41.14
-45.33
-50.03
-53.47
-53.74
-49.78
-41.99
-32.17
-22.74
-15.55
-11.12
-8.60
-6.33
-2.91
2.09
8.09
13.91
18.55
21.60
23.30
24.17
24.62
24.79
24.68
24.36
24.06
24.12
24.66
25.42
25.89
25.52
24.10
21.81
19.10
16.34
13.81
11.58
9.72
8.39
7.81
8.01
8.81
9.82
10.59
10.80
10.17
8.46
5.36
0.71
-5.20
-11.42
-16.51
-19.20
-19.09
-17.12
-15.21
-15.41
-18.93
-25.49
-33.56
-41.09
-46.42
-48.73
-48.02
-44.70
-39.26
-32.19
-24.10
-15.94
-8.79
-3.36
0.45
3.69
7.74
13.49
20.54
27.26
31.58
32.18
29.33
24.84
21.12
19.89
21.34
24.26
26.97
28.32
28.32
27.74
27.40
27.45
27.26
26.03
23.43
19.98
16.73
14.56
13.54
12.79
11.03
7.27
1.50
-5.39
-12.09
-17.54
-21.44
-24.17
-26.54
-29.13
-32.12
-35.18
-37.93
-40.18
-42.02
-43.55
-44.50
-44.14
-41.50
-36.04
-28.14
-19.15
-10.88
-4.76
-1.15
0.77
2.44
5.18
9.44
14.70
19.80
23.51
25.19
24.94
23.66
22.61
22.96
25.24
29.18
33.73
37.46
39.18
38.34
35.23
30.81
26.26
22.61
20.41
19.75
20.35
21.75
23.42
24.88
25.67
25.39
23.78
20.80
16.65
11.76
6.58
1.50
-3.24
-7.66
-11.86
-15.97
-20.03
-23.98
-27.73
-31.16
-34.15
-36.50
-38.02
-38.63
-38.59
-38.54
-39.36
-41.67
-45.36
-49.44
-52.27
-52.35
-48.98
-42.74
-35.07
-27.62
-21.41
-16.45
-12.00
-7.16
-1.47
4.85
11.06
16.30
20.01
22.09
22.90
23.07
23.28
23.98
25.29
26.93
28.40
29.21
29.14
28.30
27.04
25.70
24.40
23.01
21.32
19.30
17.26
15.78
15.34
16.03
17.38
18.59
18.92
18.12
16.49
14.72
13.33
12.42
11.60
10.33
8.41
6.17
4.35
3.60
3.95
4.65
4.50
2.51
-1.58
-7.07
-12.64
-16.92
-19.16
-19.44
-18.57
-17.60
-17.35
-18.23
-20.25
-23.25
-27.04
-31.38
-35.77
-39.42
-41.39
-40.89
-37.73
-32.40
-25.97
-19.58
-13.91
-8.93
-4.05
1.48
7.96
14.93
21.29
25.78
27.66
27.10
25.07
22.87
21.39
20.77
20.58
20.21
19.44
18.59
18.35
19.31
21.56
24.47
26.99
28.01
26.93
23.95
20.05
16.58
14.58
14.30
14.93
15.07
13.42
9.50
3.96
-1.87
-6.63
-9.71
-11.39
-12.59
-14.24
-16.84
-20.29
-24.12
-27.91
-31.37
-34.50
-37.30
-39.62
-41.12
-41.55
-41.08
-40.40
-40.58
-42.43
-45.95
-50.03
-52.82
-52.60
-48.67
-41.71
-33.30
-25.00
-17.46
-10.20
-2.12
7.49
18.17
28.25
35.64
38.89
38.11
34.89
31.56
30.14
31.54
35.31
40.04
44.06
46.04
45.35
42.15
37.23
31.65
26.42
22.15
19.00
16.77
15.11
13.82
12.88
12.32
12.05
11.71
10.84
9.09
6.45
3.20
-0.29
-3.79
-7.30
-10.88
-14.50
-17.94
-20.93
-23.31
-25.21
-26.93
-28.77
-30.86
-33.19
-35.71
-38.37
-41.08
-43.49
-44.94
-44.51
-41.57
-36.09
-28.83
-21.07
-13.93
-7.92
-2.74
2.27
7.58
12.99
17.76
21.05
22.50
22.38
21.42
20.41
19.77
19.65
19.99
20.78
22.11
23.83
25.45
26.15
25.26
22.67
19.08
15.58
13.06
11.69
10.94
10.09
8.84
7.52
6.82
7.25
8.67
10.43
11.70
11.98
11.19
9.33
6.24
1.60
-4.69
-12.08
-19.37
-25.23
-28.90
-30.65
-31.60
-33.02
-35.64
-39.26
-43.07
-46.12
-47.80
-47.88
-46.39
-43.42
-38.94
-32.95
-25.67
-17.61
-9.56
-2.36
3.38
7.62
10.87
14.05
18.02
23.01
28.50
33.40
36.70
37.97
37.64
36.63
35.78
35.42
35.32
35.07
34.50
33.81
33.28
32.92
32.25
30.46
27.00
22.02
16.49
11.82
9.23
9.18
11.22
14.21
16.91
18.37
18.20
16.44
13.38
9.35
4.74
0.05
-4.11
-7.24
-9.11
-10.01
-10.59
-11.43
-12.64
-13.68
-13.64
-11.85
-8.49
-4.73
-2.33
-2.89
-7.13
-14.67
-24.23
-34.26
-43.41
-50.79
-55.84
-58.27
-57.91
-54.74
-48.94
-40.87
-31.08
-20.19
-8.92
1.93
11.50
18.99
23.74
25.33
23.76
19.43
13.28
6.77
1.54
-0.97
-0.15
3.65
9.20
15.03
20.00
23.54
25.65
26.53
26.28
24.93
22.63
19.90
17.56
16.36
16.49
17.45
18.16
17.47
14.75
10.22
4.81
-0.14
-3.46
-4.57
-3.50
-0.92
2.26
5.12
6.96
7.47
6.67
4.78
1.84
-2.38
-8.44
-16.78
-27.03
-37.68
-46.23
-50.12
-47.92
-40.19
-29.36
-18.69
-10.73
-6.30
-4.49
-3.51
-1.96
0.48
3.18
5.28
6.41
6.95
7.65
9.06
11.17
13.45
15.28
16.44
17.14
17.80
18.74
19.90
20.96
21.58
21.62
21.15
20.39
19.53
18.63
17.59
16.15
13.99
10.87
6.91
2.75
-0.59
-2.04
-1.17
1.41
4.12
5.07
2.94
-2.34
-9.72
-17.73
-25.28
-32.01
-38.00
-43.19
-46.96
-48.55
-47.57
-44.66
-41.36
-39.29
-39.21
-40.47
-41.41
-40.26
-36.28
-29.98
-22.71
-15.80
-9.67
-3.80
2.75
10.50
18.93
26.55
31.68
33.31
31.72
28.36
25.12
23.44
23.74
25.48
27.61
29.27
30.05
29.90
28.83
26.82
23.91
20.50
17.43
15.61
15.59
17.14
19.28
20.79
20.74
18.84
15.42
11.04
6.27
1.53
-2.81
-6.38
-8.93
-10.57
-11.82
-13.31
-15.46
-18.11
-20.55
-22.09
-22.63
-22.83
-23.92
-26.74
-31.01
-35.19
-37.20
-35.53
-30.17
-22.63
-15.04
-9.03
-4.94
-1.91
1.27
5.32
10.15
15.05
19.43
23.08
26.13
28.55
29.93
29.66
27.56
24.36
21.59
20.88
22.92
26.94
30.95
32.83
31.44
27.21
21.83
17.19
14.50
13.83
14.49
15.65
16.88
18.09
19.16
19.65
18.94
16.63
12.89
8.47
4.18
0.49
-2.66
-5.58
-8.24
-10.25
-11.01
-10.45
-9.29
-8.89
-10.49
-14.47
-20.00
-25.47
-29.44
-31.40
-31.99
-32.58
-34.38
-37.83
-42.47
-47.35
-51.59
-54.76
-56.70
-57.12
-55.36
-50.61
-42.55
-31.95
-20.70
-11.05
-4.48
-0.82
1.69
5.33
11.52
19.84
28.16
33.87
35.41
33.04
28.70
24.84
23.12
23.80
25.97
28.47
30.71
32.88
35.51
38.65
41.52
42.79
41.37
37.29
31.85
26.95
24.18
23.92
25.31
26.91
27.48
26.58
24.43
21.48
17.94
13.75
8.84
3.51
-1.63
-5.96
-9.27
-11.85
-14.21
-16.70
-19.28
-21.67
-23.68
-25.43
-27.23
-29.35
-31.88
-34.81
-38.27
-42.48
-47.42
-52.39
-55.89
-56.17
-52.22
-44.51
-34.99
-26.15
-19.62
-15.36
-11.86
-7.25
-0.64
7.24
14.47
19.21
20.78
20.07
18.96
19.18
21.38
24.90
28.33
30.31
30.26
28.49
25.88
23.16
20.62
18.00
14.92
11.35
7.87
5.46
4.92
6.34
8.92
11.31
12.37
11.71
9.87
7.88
6.57
6.17
6.28
6.30
5.88
5.12
4.28
3.37
1.96
-0.69
-5.01
-10.73
-16.80
-21.82
-24.78
-25.62
-25.20
-24.95
-26.07
-29.08
-33.57
-38.52
-42.61
-44.65
-43.86
-39.96
-33.29
-24.78
-15.80
-7.77
-1.63
2.47
5.22
7.72
10.84
14.73
18.78
21.98
23.62
23.68
22.88
22.25
22.52
23.82
25.61
27.15
27.89
27.72
26.96
26.07
25.37
24.97
24.75
24.45
23.78
22.44
20.23
17.19
13.68
10.45
8.29
7.65
8.24
9.08
8.93
6.97
3.30
-1.05
-4.71
-6.72
-7.12
-6.94
-7.67
-10.44
-15.55
-22.33
-29.57
-36.03
-40.80
-43.46
-44.02
-42.80
-40.32
-37.23
-34.20
-31.62
-29.49
-27.30
-24.15
-19.23
-12.18
-3.49
5.51
13.01
17.37
17.77
14.56
9.26
4.05
1.04
1.55
5.77
12.79
21.00
28.58
34.07
36.64
36.24
33.62
29.99
26.74
24.94
24.98
26.45
28.27
29.20
28.24
25.10
20.10
13.96
7.42
0.96
-5.15
-10.65
-15.07
-17.80
-18.39
-17.02
-14.68
-12.97
-13.50
-17.08
-23.35
-30.89
-37.94
-43.17
-46.17
-47.41
-47.64
-47.31
-46.22
-43.75
-39.28
-32.70
-24.55
-15.73
-7.15
0.75
8.05
15.11
22.09
28.72
34.26
37.81
38.83
37.43
34.45
31.11
28.52
27.24
27.14
27.59
27.84
27.38
26.04
24.08
22.04
20.49
19.85
20.23
21.37
22.75
23.83
24.24
23.86
22.82
21.21
19.03
16.13
12.40
7.96
3.26
-1.10
-4.59
-7.02
-8.60
-9.81
-11.09
-12.66
-14.40
-15.97
-17.13
-17.99
-19.14
-21.33
-25.04
-30.00
-35.14
-38.99
-40.59
-40.08
-38.81
-38.59
-40.52
-44.24
-48.01
-49.69
-47.94
-42.93
-36.14
-29.30
-23.42
-18.35
-13.20
-7.12
0.02
7.55
14.34
19.50
22.65
24.00
24.09
23.51
22.78
22.28
22.20
22.58
23.36
24.41
25.67
27.04
28.37
29.31
29.55
28.95
27.81
26.76
26.38
26.85
27.67
28.01
27.22
25.37
23.17
21.43
20.29
18.89
15.77
9.87
1.44
-7.64
-14.61
-17.19
-14.81
-9.02
-2.77
1.01
0.79
-3.02
-8.58
-13.83
-17.66
-20.41
-23.36
-27.76
-33.80
-40.41
-45.79
-48.35
-47.55
-44.11
-39.50
-35.11
-31.61
-28.68
-25.50
-21.25
-15.67
-9.10
-2.29
4.15
10.04
15.55
20.86
25.76
29.51
31.14
30.04
26.50
21.77
17.59
15.42
15.73
17.81
20.16
21.25
20.16
16.96
12.69
8.83
6.74
7.19
10.12
14.65
19.56
23.65
26.15
26.85
25.87
23.37
19.46
14.17
7.71
0.67
-6.00
-11.29
-14.53
-15.79
-15.88
-16.03
-17.33
-20.22
-24.37
-28.92
-32.96
-36.07
-38.36
-40.27
-42.09
-43.68
-44.48
-43.80
-41.29
-37.10
-31.84
-26.26
-20.92
-16.10
-11.71
-7.54
-3.23
1.46
6.62
12.01
17.04
20.85
22.77
22.65
21.02
18.95
17.59
17.58
18.87
20.80
22.59
23.70
24.10
24.06
23.83
23.53
22.98
21.91
20.24
18.03
15.53
12.99
10.60
8.47
6.70
5.29
4.17
3.16
1.95
0.12
-2.74
-6.83
-12.05
-17.72
-22.97
-26.82
-28.80
-29.24
-29.15
-29.66
-31.27
-33.46
-34.99
-34.80
-32.74
-29.72
-27.17
-26.00
-26.03
-26.12
-24.85
-21.41
-15.97
-9.48
-3.12
2.32
6.60
10.03
13.16
16.44
20.09
23.87
27.12
29.03
29.07
27.62
25.81
25.20
26.79
30.37
34.44
37.03
36.80
33.87
29.81
26.70
25.92
27.36
29.54
30.57
29.21
25.60
21.01
16.95
14.24
12.52
10.69
7.77
3.59
-1.09
-5.05
-7.38
-8.01
-7.70
-7.54
-8.47
-10.74
-13.99
-17.55
-20.86
-23.83
-26.82
-30.39
-34.85
-39.94
-44.80
-48.42
-50.11
-49.87
-48.28
-46.01
-43.18
-39.27
-33.53
-25.71
-16.60
-7.87
-1.18
2.87
5.10
7.31
11.09
16.66
22.63
26.76
27.39
24.51
19.92
16.26
15.50
17.94
22.18
26.06
27.89
27.32
25.15
22.61
20.44
18.49
16.10
12.90
9.40
6.85
6.60
9.02
13.09
16.76
17.99
15.80
10.91
5.14
0.42
-2.45
-4.12
-6.07
-9.48
-14.32
-19.30
-22.72
-23.62
-22.28
-19.93
-17.90
-16.91
-17.07
-18.49
-21.66
-27.38
-35.83
-45.65
-53.92
-57.35
-53.96
-44.24
-30.98
-17.76
-7.15
0.30
5.66
10.46
15.59
20.86
25.58
29.17
31.56
32.95
33.45
32.95
31.30
28.79
26.13
24.26
23.73
24.44
25.67
26.64
26.85
26.28
25.17
23.72
21.93
19.78
17.45
15.49
14.67
15.44
17.49
19.73
20.55
18.67
13.78
6.77
-0.63
-6.70
-10.53
-12.35
-13.13
-13.96
-15.33
-16.96
-18.26
-18.94
-19.47
-20.91
-24.22
-29.57
-36.07
-42.17
-46.46
-48.52
-49.05
-49.23
-49.86
-50.63
-50.21
-47.04
-40.30
-30.50
-19.33
-8.75
-0.16
6.24
11.25
16.06
21.48
27.40
32.78
36.12
36.29
33.28
28.36
23.56
20.66
20.23
21.27
21.93
20.70
17.40
13.34
10.44
9.91
11.49
13.68
14.76
14.02
12.08
10.36
9.96
10.94
12.39
13.19
12.85
11.69
10.51
9.78
9.38
8.64
7.00
4.35
1.08
-2.29
-5.43
-8.17
-10.36
-11.66
-11.68
-10.49
-9.00
-8.75
-11.26
-17.14
-25.67
-35.11
-43.46
-49.29
-52.11
-52.08
-49.62
-45.09
-38.80
-31.24
-23.14
-15.21
-7.85
-1.03
5.62
12.40
19.26
25.69
30.99
34.65
36.59
37.28
37.47
37.81
38.56
39.41
39.62
38.44
35.53
31.18
26.20
21.51
17.72
14.92
12.88
11.36
10.41
10.18
10.63
11.21
11.02
9.25
5.83
1.64
-1.83
-3.21
-2.05
0.92
4.08
5.69
4.63
0.77
-5.21
-12.27
-19.53
-26.56
-33.20
-39.34
-44.70
-48.95
-51.73
-52.99
-52.84
-51.45
-48.86
-44.97
-39.71
-33.24
-26.06
-18.91
-12.53
-7.35
-3.24
0.38
4.32
9.13
14.73
20.27
24.51
26.41
25.75
23.35
20.69
19.25
19.76
22.07
25.44
29.07
32.50
35.56
38.07
39.63
39.72
38.02
34.75
30.67
26.68
23.49
21.41
20.43
20.34
20.81
21.35
21.22
19.71
16.46
11.79
6.63
2.05
-1.30
-3.60
-5.66
-8.40
-12.18
-16.59
-20.71
-23.72
-25.34
-25.99
-26.49
-27.62
-29.82
-33.21
-37.73
-43.30
-49.71
-56.30
-61.75
-64.29
-62.34
-55.42
-44.58
-32.15
-20.84
-12.58
-7.76
-5.35
-3.65
-1.26
2.37
6.94
11.76
16.23
20.03
22.96
24.86
25.57
25.13
23.92
22.61
21.82
21.84
22.42
22.93
22.78
21.82
20.39
19.11
18.52
18.68
19.24
19.59
19.32
18.44
17.31
16.31
15.64
15.11
14.39
13.24
11.63
9.63
7.20
4.15
0.20
-4.65
-9.99
-14.94
-18.68
-20.78
-21.46
-21.47
-21.62
-22.52
-24.30
-26.83
-29.78
-32.83
-35.60
-37.58
-38.22
-37.05
-33.91
-29.05
-23.05
-16.57
-10.21
-4.33
0.87
5.40
9.40
13.04
16.48
19.56
21.87
22.85
22.21
20.35
18.40
17.84
19.71
24.02
29.51
34.22
36.48
35.72
32.63
28.75
25.49
23.45
22.30
21.20
19.57
17.48
15.54
14.26
13.61
12.84
10.95
7.32
2.22
-3.22
-7.58
-9.87
-10.04
-8.90
-7.54
-6.80
-6.90
-7.60
-8.75
-10.60
-13.81
-19.00
-26.13
-34.22
-41.54
-46.31
-47.58
-45.64
-41.79
-37.61
-34.15
-31.45
-28.76
-25.12
-19.91
-13.13
-5.23
3.23
11.70
19.58
26.01
30.08
31.12
29.21
25.36
21.14
18.02
16.74
17.27
19.09
21.63
24.51
27.31
29.42
30.04
28.67
25.63
22.19
19.97
20.06
22.24
25.06
26.63
25.65
22.00
16.55
10.45
4.33
-1.97
-8.95
-16.73
-24.61
-31.20
-35.21
-36.27
-35.33
-34.30
-35.08
-38.69
-44.73
-51.65
-57.49
-60.75
-60.80
-57.89
-52.75
-46.11
-38.49
-30.10
-21.04
-11.40
-1.47
8.09
16.34
22.25
25.17
25.17
23.15
20.57
18.80
18.57
19.77
21.68
23.50
24.78
25.47
25.60
25.01
23.34
20.42
16.71
13.36
11.74
12.63
15.66
19.27
21.53
20.99
17.52
12.23
6.78
2.51
-0.24
-1.92
-3.37
-5.06
-6.98
-8.84
-10.49
-12.16
-14.30
-17.18
-20.58
-23.85
-26.30
-27.78
-28.90
-30.67
-33.77
-37.90
-41.73
-43.48
-41.89
-36.96
-29.96
-22.88
-17.30
-13.69
-11.31
-8.77
-4.92
0.59
7.19
13.78
19.28
23.07
25.19
26.30
27.43
29.50
32.95
37.46
42.07
45.56
47.07
46.35
43.68
39.64
34.74
29.41
24.27
20.31
18.77
20.56
25.56
32.39
38.77
42.44
42.04
37.49
29.82
20.59
11.23
2.78
-4.15
-9.24
-12.37
-13.61
-13.29
-11.98
-10.40
-9.26
-9.12
-10.31
-12.86
-16.64
-21.38
-26.76
-32.48
-38.05
-42.82
-45.92
-46.53
-44.26
-39.40
-32.88
-25.91
-19.52
-14.23
-9.92
-6.17
-2.50
1.32
5.25
9.07
12.51
15.35
17.46
18.87
19.87
20.91
22.57
25.13
28.30
31.12
32.24
30.57
25.92
19.29
12.59
7.83
6.20
7.47
10.01
11.63
10.65
6.77
1.05
-4.70
-8.96
-11.20
-11.93
-12.10
-12.42
-12.86
-12.91
-12.08
-10.53
-9.13
-9.11
-11.30
-15.65
-21.19
-26.55
-30.71
-33.50
-35.57
-37.83
-40.69
-43.48
-44.59
-42.30
-35.77
-25.81
-14.58
-4.57
2.70
7.41
11.22
15.97
22.39
29.47
34.99
36.86
34.48
29.13
23.35
19.51
18.63
20.16
22.64
24.80
26.34
27.81
29.91
32.57
34.65
34.41
30.56
23.26
14.23
6.20
1.59
1.39
4.86
10.01
14.60
17.05
16.73
13.66
8.20
0.81
-7.74
-16.30
-23.42
-27.91
-29.45
-28.82
-27.50
-26.91
-27.67
-29.45
-31.47
-33.25
-34.93
-37.09
-40.05
-43.36
-45.84
-46.12
-43.33
-37.43
-29.17
-19.46
-9.12
1.29
11.13
19.48
25.20
27.37
25.78
21.15
15.00
9.08
4.94
3.52
5.11
9.35
15.31
21.64
26.94
30.16
31.00
29.96
28.05
26.16
24.66
23.25
21.37
18.72
15.53
12.48
10.23
9.02
8.49
7.99
6.98
5.46
3.89
2.85
2.53
2.43
1.55
-1.03
-5.46
-10.87
-15.68
-18.45
-18.74
-17.41
-16.13
-16.43
-18.79
-22.51
-26.32
-29.36
-31.72
-34.19
-37.47
-41.28
-44.21
-44.43
-40.86
-33.83
-25.04
-16.60
-9.80
-4.54
0.37
6.23
13.46
21.13
27.54
31.08
31.20
28.69
25.32
23.03
22.99
25.16
28.43
31.17
32.08
30.64
27.31
23.10
19.12
16.08
14.26
13.57
13.85
15.03
16.96
19.26
21.20
21.91
20.77
17.70
13.23
8.26
3.65
-0.15
-3.09
-5.46
-7.67
-10.19
-13.49
-17.99
-23.76
-30.25
-36.30
-40.43
-41.66
-40.22
-37.76
-36.69
-38.93
-44.77
-52.47
-58.88
-60.83
-56.55
-46.38
-32.44
-17.62
-4.35
6.12
13.82
19.52
24.11
27.98
30.95
32.46
32.11
29.94
26.72
23.67
22.04
22.56
25.14
28.90
32.62
35.24
36.31
36.03
34.96
33.56
31.91
29.65
26.31
21.75
16.40
11.11
6.84
4.11
2.76
2.11
1.27
-0.41
-3.15
-6.87
-11.33
-16.43
-22.14
-28.34
-34.70
-40.68
-45.62
-48.91
-50.04
-48.71
-44.85
-38.82
-31.43
-23.90
-17.56
-13.34
-11.28
-10.56
-9.79
-7.82
-4.29
0.13
4.19
6.80
7.71
7.60
7.61
8.60
10.57
12.66
13.78
13.30
11.59
9.85
9.39
10.86
13.90
17.25
19.47
19.64
17.73
14.52
11.18
8.70
7.58
7.75
8.69
9.69
10.07
9.34
7.18
3.32
-2.40
-9.91
-18.68
-27.53
-34.77
-38.95
-39.61
-37.82
-35.88
-36.15
-39.64
-45.37
-50.73
-52.92
-50.44
-43.76
-34.74
-25.39
-16.84
-9.06
-1.46
6.24
13.61
19.67
23.62
25.37
25.68
25.77
26.75
29.18
32.93
37.31
41.31
44.02
44.97
44.20
42.13
39.22
35.58
31.04
25.45
19.16
13.19
8.92
7.42
8.82
12.13
15.63
17.68
17.34
14.71
10.58
5.99
1.66
-2.15
-5.57
-8.87
-12.25
-15.72
-19.15
-22.47
-25.68
-28.88
-32.18
-35.62
-39.09
-42.27
-44.63
-45.49
-44.21
-40.48
-34.51
-27.19
-19.71
-13.16
-7.94
-3.70
0.45
5.25
10.65
15.70
19.01
19.53
17.30
13.48
9.86
7.95
8.25
10.26
12.98
15.73
18.49
21.68
25.34
28.51
29.41
26.32
18.87
8.58
-1.58
-8.61
-11.00
-9.44
-6.21
-3.88
-3.81
-5.56
-7.57
-8.26
-7.08
-4.69
-2.40
-1.44
-2.33
-5.03
-9.24
-14.73
-21.25
-28.24
-34.65
-39.10
-40.40
-38.16
-33.10
-26.64
-20.32
-15.07
-10.86
-6.91
-2.15
4.21
12.33
21.56
30.75
38.53
43.69
45.58
44.22
40.33
35.04
29.57
24.85
21.46
19.55
18.96
19.41
20.44
21.50
21.98
21.34
19.29
15.95
11.88
7.96
5.04
3.67
3.82
4.84
5.73
5.54
3.73
0.32
-4.28
-9.60
-15.34
-21.35
-27.57
-33.71
-39.40
-44.27
-48.17
-51.04
-52.71
-52.71
-50.33
-45.13
-37.45
-28.57
-20.22
-13.76
-9.43
-6.27
-2.71
2.50
9.55
17.59
25.21
31.12
34.65
35.74
34.79
32.35
29.03
25.46
22.28
20.02
18.97
19.05
19.82
20.68
21.14
20.93
19.99
18.38
16.21
13.66
11.09
9.12
8.32
8.89
10.34
11.55
11.28
8.87
4.63
-0.30
-4.67
-7.85
-10.21
-12.66
-15.96
-20.11
-24.42
-28.03
-30.68
-32.86
-35.53
-39.33
-44.08
-48.79
-52.08
-52.86
-50.81
-46.34
-40.41
-34.03
-27.95
-22.46
-17.43
-12.30
-6.37
0.88
9.48
18.86
27.94
35.60
41.02
44.01
45.00
44.73
43.97
43.24
42.86
42.92
43.33
43.77
43.63
42.27
39.27
34.80
29.61
24.79
21.17
19.04
18.02
17.51
17.08
16.63
16.29
15.98
15.21
13.26
9.69
4.77
-0.48
-4.77
-7.24
-7.83
-7.36
-6.92
-7.35
-8.93
-11.48
-14.69
-18.31
-22.17
-26.02
-29.49
-32.21
-34.17
-35.83
-37.89
-40.78
-44.14
-46.83
-47.45
-45.19
-40.34
-34.22
-28.38
-23.65
-19.61
-14.87
-8.05
1.15
11.54
20.78
26.52
27.54
24.42
19.21
14.36
11.63
11.44
13.04
15.27
17.33
19.21
21.32
24.04
27.17
29.92
31.44
31.34
29.95
28.15
26.86
26.54
26.98
27.51
27.27
25.64
22.37
17.48
11.26
4.15
-3.30
-10.48
-16.82
-21.92
-25.55
-27.71
-28.54
-28.36
-27.70
-27.23
-27.60
-29.17
-31.81
-34.84
-37.38
-38.67
-38.35
-36.54
-33.51
-29.41
-24.07
-17.22
-8.77
0.78
10.32
18.38
23.60
25.32
23.86
20.55
17.25
15.66
16.62
19.82
23.97
27.48
29.24
29.01
27.45
25.49
23.80
22.43
21.07
19.39
17.44
15.65
14.48
14.13
14.29
14.29
13.47
11.51
8.58
5.24
2.03
-0.78
-3.33
-6.02
-9.21
-12.88
-16.66
-20.00
-22.59
-24.51
-26.31
-28.64
-31.90
-36.05
-40.72
-45.40
-49.68
-53.13
-55.23
-55.32
-52.89
-47.86
-40.77
-32.66
-24.46
-16.58
-8.72
-0.32
8.80
17.94
25.74
30.79
32.50
31.49
29.32
27.73
27.69
29.13
31.13
32.63
33.05
32.48
31.41
30.25
29.07
27.68
25.96
24.10
22.59
21.91
22.24
23.33
24.68
25.87
26.73
27.31
27.57
27.18
25.67
22.56
17.79
11.88
5.85
0.86
-2.18
-2.96
-1.97
-0.30
0.64
-0.35
-3.84
-9.58
-16.66
-23.90
-30.30
-35.44
-39.44
-42.81
-46.00
-49.07
-51.70
-53.20
-52.96
-50.74
-46.88
-42.07
-37.03
-31.94
-26.40
-19.66
-11.22
-1.30
9.01
18.19
25.04
29.09
30.74
30.80
30.06
29.08
28.23
27.93
28.71
30.99
34.79
39.46
43.89
46.77
47.19
44.90
40.39
34.68
28.91
24.09
20.76
19.00
18.45
18.44
18.20
17.01
14.43
10.36
5.01
-1.13
-7.46
-13.36
-18.41
-22.41
-25.51
-28.03
-30.36
-32.74
-35.11
-37.09
-38.28
-38.51
-38.07
-37.67
-37.96
-39.16
-40.80
-41.89
-41.41
-38.86
-34.45
-29.01
-23.49
-18.52
-14.02
-9.30
-3.32
4.62
14.37
24.71
33.68
39.40
40.97
39.04
35.49
32.44
31.19
31.64
32.67
33.07
32.30
30.77
29.23
28.10
27.17
25.88
23.98
21.93
20.53
20.34
21.07
21.62
20.75
17.93
13.62
9.06
5.39
3.03
1.41
-0.52
-3.69
-8.34
-13.88
-19.32
-23.68
-26.53
-27.98
-28.55
-28.79
-29.08
-29.60
-30.40
-31.57
-33.26
-35.55
-38.31
-41.13
-43.36
-44.44
-43.99
-41.89
-38.22
-33.12
-26.79
-19.48
-11.56
-3.52
4.19
11.22
17.37
22.41
25.95
27.55
26.92
24.33
20.69
17.27
15.18
14.90
16.08
17.84
19.35
20.24
20.70
21.13
21.76
22.31
22.26
21.21
19.28
17.16
15.66
15.21
15.54
15.78
14.97
12.68
9.25
5.61
2.67
0.82
-0.22
-1.16
-2.64
-4.92
-7.80
-10.92
-14.00
-16.95
-19.76
-22.37
-24.61
-26.36
-27.78
-29.30
-31.50
-34.70
-38.64
-42.46
-45.03
-45.38
-43.07
-38.25
-31.46
-23.37
-14.66
-5.93
2.21
9.27
15.01
19.52
23.19
26.42
29.32
31.50
32.35
31.55
29.51
27.42
26.73
28.30
31.84
35.88
38.47
38.17
34.71
29.04
22.78
17.50
14.05
12.53
12.52
13.44
14.83
16.40
17.89
19.00
19.31
18.41
16.05
12.26
7.50
2.53
-1.77
-4.82
-6.61
-7.75
-9.18
-11.69
-15.52
-20.20
-24.89
-28.78
-31.57
-33.47
-35.05
-36.83
-39.04
-41.59
-44.20
-46.57
-48.40
-49.36
-49.03
-47.01
-43.16
-37.71
-31.20
-24.07
-16.34
-7.58
2.59
13.90
24.92
33.41
37.39
36.28
31.52
25.97
22.50
22.46
25.23
28.72
30.89
30.87
29.17
27.02
25.29
24.01
22.61
20.61
18.18
16.09
15.12
15.40
16.33
17.00
16.83
15.78
14.18
12.08
8.98
4.09
-3.06
-11.89
-20.82
-27.91
-31.93
-32.93
-32.31
-31.95
-33.20
-36.29
-40.40
-44.30
-47.05
-48.21
-47.81
-45.91
-42.46
-37.31
-30.60
-22.83
-14.83
-7.39
-0.86
4.91
10.35
15.76
21.02
25.45
28.16
28.49
26.46
22.90
19.19
16.78
16.53
18.37
21.29
23.84
24.83
23.84
21.43
18.73
16.78
16.09
16.52
17.60
18.98
20.60
22.43
24.25
25.35
24.84
22.15
17.47
11.77
6.39
2.41
0.22
-0.53
-0.54
-0.58
-1.18
-2.69
-5.30
-9.02
-13.55
-18.29
-22.49
-25.58
-27.52
-28.76
-29.99
-31.70
-33.91
-36.23
-38.24
-39.88
-41.46
-43.44
-45.95
-48.47
-49.96
-49.35
-46.03
-40.24
-32.83
-24.86
-17.05
-9.61
-2.36
4.81
11.80
18.20
23.61
27.82
30.90
33.09
34.48
35.03
34.69
33.75
32.89
33.00
34.71
37.97
42.00
45.58
47.58
47.39
45.02
41.04
36.29
31.78
28.39
26.69
26.62
27.35
27.46
25.54
20.93
14.19
6.93
1.02
-2.36
-3.27
-2.81
-2.35
-2.72
-3.76
-4.66
-4.65
-3.70
-2.57
-2.40
-3.96
-7.17
-11.18
-14.94
-17.79
-19.78
-21.48
-23.49
-26.02
-28.81
-31.41
-33.60
-35.60
-37.90
-40.84
-44.22
-47.25
-48.81
-48.04
-44.77
-39.62
-33.70
-27.93
-22.63
-17.34
-11.21
-3.81
4.30
11.58
16.15
16.78
13.78
8.92
4.74
3.29
5.21
9.64
15.02
20.02
24.29
28.33
32.70
37.27
40.93
42.17
40.04
34.95
28.66
23.45
20.99
21.42
23.48
25.19
25.01
22.51
18.38
13.78
9.57
5.98
2.64
-0.84
-4.48
-7.87
-10.47
-12.12
-13.18
-14.44
-16.60
-19.82
-23.62
-27.09
-29.49
-30.69
-31.30
-32.32
-34.64
-38.33
-42.59
-45.96
-47.02
-44.96
-39.96
-33.03
-25.47
-18.38
-12.26
-7.05
-2.40
2.04
6.38
10.39
13.67
15.88
16.87
16.86
16.41
16.20
16.70
17.88
19.19
19.87
19.37
17.83
16.10
15.26
16.01
18.10
20.41
21.50
20.52
17.68
14.19
11.44
10.22
10.22
10.44
9.90
8.36
6.39
4.80
3.95
3.40
2.18
-0.47
-4.47
-8.91
-12.62
-14.82
-15.56
-15.43
-15.06
-14.62
-13.97
-13.07
-12.26
-12.37
-14.14
-17.78
-22.82
-28.42
-33.94
-39.21
-44.36
-49.22
-52.98
-54.25
-51.85
-45.55
-36.33
-25.92
-15.85
-6.84
1.24
8.76
15.60
20.94
23.76
23.62
21.24
18.35
16.92
18.22
22.34
28.27
34.49
39.51
42.29
42.35
39.80
35.27
29.75
24.40
20.14
17.36
15.88
15.20
14.92
14.94
15.39
16.25
17.12
17.27
16.08
13.50
10.23
7.37
5.86
5.83
6.58
6.91
5.85
3.12
-0.68
-4.53
-7.54
-9.47
-10.81
-12.48
-15.24
-19.36
-24.40
-29.50
-33.70
-36.25
-36.93
-36.04
-34.37
-32.92
-32.55
-33.62
-35.71
-37.78
-38.60
-37.24
-33.52
-27.95
-21.30
-14.15
-6.58
1.61
10.33
18.75
25.36
28.55
27.48
22.69
15.96
9.72
5.90
5.31
7.46
11.03
14.64
17.41
19.10
19.91
20.15
20.02
19.67
19.27
19.10
19.45
20.41
21.84
23.39
24.68
25.38
25.21
23.89
21.04
16.38
9.97
2.39
-5.34
-12.04
-16.91
-19.75
-21.00
-21.44
-21.85
-22.79
-24.55
-27.22
-30.65
-34.38
-37.61
-39.46
-39.34
-37.37
-34.36
-31.39
-29.20
-27.66
-25.83
-22.57
-17.15
-9.82
-1.67
5.93
11.94
15.97
18.28
19.42
19.90
20.15
20.46
21.22
22.73
25.10
28.05
30.90
32.80
33.12
31.69
28.84
25.24
21.61
18.51
16.20
14.71
13.81
13.05
11.90
9.84
6.69
2.71
-1.44
-5.07
-7.83
-10.05
-12.41
-15.53
-19.41
-23.34
-26.32
-27.66
-27.51
-26.78
-26.71
-28.18
-31.38
-35.77
-40.53
-44.82
-47.98
-49.50
-49.00
-46.36
-41.88
-36.28
-30.43
-24.87
-19.54
-13.78
-6.93
1.17
9.84
17.91
24.19
28.11
29.81
29.97
29.34
28.46
27.68
27.27
27.48
28.45
30.02
31.58
32.35
31.76
29.88
27.47
25.58
25.04
25.96
27.71
29.29
29.96
29.57
28.53
27.39
26.41
25.28
23.28
19.76
14.55
8.16
1.60
-4.07
-8.12
-10.39
-11.17
-11.05
-10.55
-10.08
-9.88
-10.17
-11.24
-13.48
-17.34
-23.10
-30.68
-39.37
-47.89
-54.66
-58.33
-58.42
-55.54
-51.07
-46.41
-42.17
-37.88
-32.43
-24.94
-15.40
-4.83
5.38
14.14
21.11
26.42
30.27
32.61
33.31
32.68
31.57
31.07
31.93
33.98
36.26
37.70
37.76
36.60
34.82
32.89
30.88
28.67
26.39
24.46
23.30
22.79
22.12
20.19
16.37
11.09
5.68
1.49
-1.00
-2.55
-4.60
-8.20
-13.19
-18.29
-22.02
-23.72
-24.13
-24.78
-27.01
-30.98
-35.60
-39.24
-40.76
-40.09
-38.04
-35.68
-33.54
-31.45
-28.79
-25.11
-20.41
-15.15
-9.83
-4.72
0.28
5.42
10.81
16.24
21.33
25.65
29.04
31.58
33.61
35.32
36.67
37.30
36.81
34.96
31.96
28.46
25.26
23.04
22.02
22.04
22.55
23.04
23.16
22.81
22.02
20.86
19.28
17.18
14.43
10.91
6.54
1.22
-5.07
-12.14
-19.40
-25.79
-30.15
-31.70
-30.69
-28.41
-26.81
-27.70
-31.83
-38.63
-46.46
-53.31
-57.51
-58.22
-55.27
-49.06
-40.34
-30.10
-19.54
-9.89
-2.13
3.39
6.96
9.40
11.60
14.15
17.20
20.48
23.54
26.04
27.84
29.03
29.82
30.35
30.65
30.61
30.10
29.06
27.53
25.68
23.74
22.00
20.68
20.00
20.11
21.01
22.40
23.69
24.05
22.71
19.32
14.17
8.17
2.60
-1.39
-3.24
-3.14
-1.87
-0.47
0.19
-0.36
-2.13
-4.88
-8.27
-12.04
-15.96
-19.82
-23.40
-26.48
-29.07
-31.35
-33.79
-36.78
-40.48
-44.55
-48.20
-50.47
-50.56
-48.18
-43.55
-37.28
-30.04
-22.31
-14.35
-6.25
1.94
10.06
17.85
25.02
31.26
36.27
39.83
41.82
42.37
41.87
40.92
40.14
39.92
40.33
41.03
41.50
41.16
39.56
36.56
32.29
27.26
22.23
18.03
15.35
14.59
15.65
17.93
20.47
22.18
22.26
20.44
17.19
13.51
10.55
9.08
9.16
10.07
10.67
9.98
7.60
3.87
-0.30
-3.94
-6.46
-7.87
-8.75
-9.95
-12.21
-15.78
-20.41
-25.45
-30.28
-34.69
-38.91
-43.43
-48.48
-53.56
-57.43
-58.61
-56.18
-50.44
-42.89
-35.60
-30.07
-26.50
-23.71
-20.01
-14.25
-6.60
1.48
8.01
11.57
11.99
10.35
8.34
7.53
8.73
11.99
16.84
22.59
28.55
33.93
37.88
39.62
38.71
35.42
30.76
26.16
22.91
21.70
22.39
24.18
26.01
27.02
26.76
25.26
22.81
19.83
16.68
13.59
10.59
7.58
4.32
0.57
-3.81
-8.84
-14.38
-20.14
-25.74
-30.77
-34.95
-38.22
-40.78
-42.91
-44.72
-46.01
-46.18
-44.55
-40.72
-34.97
-28.20
-21.53
-15.71
-10.74
-5.93
-0.48
5.83
12.40
17.97
21.44
22.48
21.76
20.55
20.01
20.62
22.04
23.57
24.63
25.07
25.10
24.88
24.35
23.25
21.42
19.03
16.59
14.67
13.57
13.16
13.06
12.88
12.55
12.29
12.29
12.48
12.34
11.21
8.64
4.78
0.36
-3.66
-6.72
-8.94
-11.08
-13.98
-18.12
-23.21
-28.48
-33.14
-36.80
-39.59
-41.91
-44.09
-46.23
-48.18
-49.82
-51.04
-51.65
-51.31
-49.45
-45.47
-39.19
-31.00
-21.83
-12.79
-4.69
2.28
8.43
14.17
19.65
24.46
27.89
29.32
28.76
26.91
24.96
24.01
24.55
26.34
28.69
30.96
32.89
34.54
35.96
36.93
36.91
35.43
32.50
28.82
25.51
23.67
23.85
25.83
28.70
31.25
32.41
31.60
28.80
24.46
19.35
14.23
9.69
5.96
2.95
0.36
-2.18
-4.92
-8.04
-11.59
-15.59
-20.10
-25.10
-30.47
-35.79
-40.37
-43.49
-44.69
-44.25
-43.14
-42.75
-44.08
-47.11
-50.62
-52.62
-51.37
-46.12
-37.52
-27.25
-17.19
-8.65
-2.05
2.88
6.70
9.80
12.30
14.17
15.38
16.04
16.33
16.38
16.30
16.21
16.34
17.06
18.71
21.29
24.39
27.16
28.60
27.94
24.94
19.91
13.64
7.10
1.20
-3.33
-6.15
-7.22
-6.79
-5.23
-2.87
0.03
3.17
5.97
7.53
6.88
3.52
-2.09
-8.46
-13.63
-16.22
-16.10
-14.57
-13.57
-14.68
-18.37
-23.89
-30.04
-35.73
-40.48
-44.06
-46.16
-46.13
-43.18
-37.00
-28.11
-17.90
-8.01
0.22
6.34
10.62
13.69
16.13
18.10
19.60
20.58
21.29
22.23
23.87
26.38
29.44
32.30
34.14
34.40
33.01
30.43
27.40
24.58
22.30
20.50
18.85
16.97
14.70
12.24
9.99
8.40
7.61
7.45
7.40
6.96
5.78
3.78
0.99
-2.63
-7.21
-12.74
-18.77
-24.44
-28.73
-31.09
-31.79
-31.85
-32.45
-34.22
-36.97
-39.95
-42.54
-44.64
-46.64
-48.82
-50.67
-50.98
-48.43
-42.56
-34.27
-25.42
-17.87
-12.37
-8.38
-4.52
0.32
6.31
12.49
17.54
20.56
21.71
21.94
22.48
24.08
26.75
29.85
32.54
34.20
34.63
33.93
32.35
30.18
27.70
25.24
23.15
21.62
20.54
19.53
18.23
16.59
15.01
14.11
14.18
14.85
15.20
14.29
11.81
8.41
5.26
3.28
2.51
2.13
1.07
-1.13
-3.99
-6.47
-7.84
-8.29
-8.93
-10.90
-14.61
-19.25
-23.39
-25.90
-26.86
-27.49
-29.34
-33.15
-38.07
-41.93
-42.42
-38.38
-30.57
-21.39
-13.60
-8.97
-7.46
-7.38
-6.47
-3.13
2.84
10.30
17.48
22.93
26.05
27.12
26.79
25.59
23.80
21.56
19.22
17.47
17.10
18.51
21.41
24.74
27.23
28.04
27.27
25.78
24.61
24.23
24.24
23.63
21.59
18.11
14.04
10.49
8.01
6.18
3.84
-0.06
-5.71
-12.11
-17.72
-21.35
-22.93
-23.59
-24.88
-27.97
-32.86
-38.50
-43.37
-46.35
-47.12
-46.15
-44.32
-42.34
-40.60
-39.07
-37.43
-35.15
-31.55
-25.89
-17.69
-7.08
4.95
16.65
26.09
31.92
33.91
32.99
30.81
28.95
28.31
28.90
30.08
30.99
31.07
30.28
29.08
28.04
27.47
27.15
26.43
24.58
21.36
17.28
13.42
10.84
9.96
10.17
10.23
9.01
6.20
2.49
-0.98
-3.51
-5.43
-7.98
-12.52
-19.48
-27.95
-36.09
-42.14
-45.48
-46.90
-47.98
-50.02
-53.07
-55.80
-56.20
-52.70
-45.05
-34.48
-23.17
-13.24
-5.96
-1.34
1.59
4.12
7.22
11.05
15.05
18.28
20.08
20.44
20.02
19.84
20.72
22.90
26.01
29.26
31.88
33.35
33.43
32.04
29.22
25.11
20.24
15.50
11.96
10.41
11.02
13.09
15.44
16.94
17.03
15.87
14.12
12.36
10.77
9.04
6.64
3.19
-1.21
-6.12
-10.97
-15.35
-19.24
-22.79
-26.23
-29.61
-32.86
-35.78
-38.30
-40.47
-42.42
-44.26
-45.88
-46.99
-47.16
-45.96
-43.12
-38.62
-32.63
-25.47
-17.56
-9.34
-1.23
6.38
13.28
19.37
24.73
29.45
33.58
37.03
39.64
41.27
41.99
42.08
42.00
42.12
42.58
43.08
43.11
42.12
39.82
36.30
31.99
27.50
23.40
20.10
17.70
16.05
14.70
13.04
10.50
6.82
2.38
-1.89
-4.73
-5.25
-3.36
0.04
3.42
5.27
4.70
1.75
-2.82
-7.91
-12.53
-15.96
-17.87
-18.26
-17.56
-16.65
-16.76
-19.04
-23.97
-30.86
-37.91
-42.84
-43.94
-40.74
-34.27
-26.38
-18.79
-12.36
-6.86
-1.50
4.23
10.07
14.93
17.48
16.90
13.43
8.44
3.78
1.14
1.30
3.96
7.97
11.87
14.46
15.13
13.89
11.12
7.46
3.65
0.38
-1.73
-2.27
-1.21
1.07
4.06
7.32
10.70
14.21
17.64
20.36
21.42
20.08
16.38
11.30
6.39
2.98
1.50
1.32
1.21
0.04
-2.62
-6.38
-10.41
-14.04
-17.02
-19.57
-22.07
-24.59
-26.75
-27.84
-27.19
-24.60
-20.55
-15.84
-11.20
-6.74
-1.96
3.72
10.21
16.44
20.77
21.91
19.91
16.33
13.46
13.00
15.09
18.29
20.54
20.48
18.17
14.98
12.55
11.86
12.75
14.20
15.15
15.13
14.43
13.74
13.59
14.00
14.58
14.78
14.34
13.38
12.19
10.91
9.33
6.88
3.04
-2.37
-8.90
-15.65
-21.57
-25.85
-28.22
-29.00
-28.84
-28.54
-28.80
-30.10
-32.63
-36.22
-40.37
-44.34
-47.26
-48.47
-47.57
-44.53
-39.57
-33.01
-25.20
-16.54
-7.55
1.24
9.25
16.11
21.58
25.55
27.92
28.60
27.70
25.64
23.25
21.55
21.26
22.50
24.65
26.70
27.82
27.75
26.90
26.03
25.74
26.16
26.96
27.61
27.74
27.38
26.77
26.26
26.06
26.28
27.07
28.51
30.39
31.94
31.96
29.25
23.39
15.18
6.40
-1.07
-6.16
-9.24
-11.65
-14.89
-19.62
-25.31
-30.68
-34.59
-36.75
-37.98
-39.64
-42.88
-47.86
-53.68
-58.61
-60.85
-59.20
-53.60
-45.02
-35.11
-25.48
-17.07
-9.89
-3.23
3.63
10.91
18.01
23.83
27.47
28.78
28.57
28.20
28.81
30.66
33.15
35.24
36.25
36.21
35.60
34.73
33.33
30.65
26.17
20.24
14.25
9.92
8.33
9.24
11.32
12.95
13.11
11.80
9.53
6.73
3.26
-1.31
-7.09
-13.40
-18.95
-22.50
-23.67
-23.26
-22.83
-23.85
-27.07
-32.28
-38.45
-44.29
-48.57
-50.30
-49.04
-45.00
-39.16
-33.07
-28.25
-25.39
-23.84
-21.83
-17.34
-9.31
1.62
13.23
22.80
28.44
29.95
28.70
26.80
25.98
26.97
29.60
33.31
37.60
42.05
46.07
48.67
48.71
45.48
39.18
31.13
23.13
16.75
12.69
10.73
10.18
10.32
10.70
10.97
10.66
9.04
5.42
-0.45
-8.01
-15.99
-22.82
-27.34
-29.15
-28.65
-26.65
-23.76
-20.12
-15.55
-9.96
-3.82
1.83
5.72
7.01
5.75
2.87
-0.20
-2.30
-2.88
-2.20
-0.96
0.04
0.27
-0.44
-1.91
-3.70
-5.26
-6.00
-5.44
-3.38
-0.08
3.77
7.21
9.49
10.23
9.61
8.11
6.24
4.28
2.30
0.33
-1.45
-2.67
-3.03
-2.53
-1.55
-0.68
-0.43
-0.94
-1.97
-3.21
-4.56
-6.20
-8.40
-11.18
-14.19
-16.86
-18.71
-19.71
-20.30
-21.13
-22.74
-25.28
-28.52
-32.00
-35.17
-37.45
-38.32
-37.38
-34.62
-30.51
-25.78
-21.08
-16.49
-11.48
-5.35
2.05
9.89
16.61
20.69
21.67
20.47
19.03
19.22
21.84
26.33
31.33
35.64
38.80
41.02
42.53
42.92
41.16
36.24
28.15
18.30
9.21
3.33
1.89
4.26
8.36
11.71
12.59
10.64
6.67
2.04
-2.05
-4.77
-5.72
-4.69
-1.70
2.82
7.90
12.06
13.81
12.13
6.93
-0.88
-9.67
-17.60
-23.19
-25.72
-25.51
-23.74
-22.02
-21.76
-23.57
-27.02
-30.95
-34.00
-35.17
-34.13
-30.95
-25.87
-19.04
-10.76
-1.69
6.96
13.74
17.58
18.27
16.60
13.93
11.51
9.83
8.60
7.15
5.07
2.57
0.29
-1.10
-1.43
-1.05
-0.54
-0.25
-0.02
0.69
2.53
5.88
10.66
16.28
21.77
25.92
27.58
26.07
21.50
14.90
7.89
1.90
-2.47
-5.73
-8.95
-12.93
-17.58
-22.00
-25.18
-26.73
-27.26
-27.69
-28.58
-29.50
-29.37
-27.24
-23.16
-18.28
-14.10
-11.55
-10.21
-8.53
-4.75
1.98
11.01
20.37
27.64
31.06
30.15
25.83
19.95
14.59
11.29
10.74
12.58
15.66
18.58
20.19
20.05
18.48
16.32
14.46
13.38
13.02
12.91
12.57
11.76
10.61
9.54
8.87
8.68
8.75
8.64
7.89
6.12
3.09
-1.34
-7.12
-13.91
-21.06
-27.62
-32.63
-35.42
-35.87
-34.55
-32.58
-31.26
-31.60
-33.90
-37.49
-40.92
-42.51
-41.01
-36.20
-29.01
-21.20
-14.56
-10.15
-7.83
-6.40
-4.18
0.12
6.74
14.64
22.03
27.12
28.98
27.99
25.47
22.93
21.25
20.40
19.76
18.84
17.83
17.44
18.31
20.36
22.57
23.59
22.58
19.80
16.49
14.08
13.35
13.98
14.87
14.81
13.17
10.08
6.05
1.62
-2.87
-7.18
-10.94
-13.61
-14.65
-13.91
-11.70
-8.80
-6.20
-4.77
-5.14
-7.56
-11.88
-17.43
-23.02
-27.24
-29.00
-28.12
-25.56
-23.18
-22.90
-25.83
-31.58
-38.43
-43.88
-45.75
-42.99
-36.04
-26.54
-16.56
-7.88
-1.36
3.02
5.81
7.59
8.68
9.25
9.56
10.15
11.61
14.22
17.52
20.50
22.16
22.21
21.33
20.86
21.88
24.48
27.62
29.67
29.49
27.04
23.46
20.28
18.62
18.62
19.52
20.25
20.04
18.66
16.39
13.68
10.94
8.51
6.64
5.55
5.31
5.78
6.66
7.55
8.13
8.06
6.97
4.38
-0.08
-6.35
-13.77
-21.24
-27.83
-33.34
-38.53
-44.57
-52.09
-60.28
-66.91
-69.32
-65.88
-57.02
-45.22
-33.68
-24.76
-18.80
-14.30
-9.15
-2.07
6.64
15.39
22.31
26.33
27.55
27.03
26.17
26.00
26.96
28.87
31.11
32.84
33.36
32.37
30.19
27.68
25.83
25.11
25.20
25.15
24.06
21.69
18.78
16.55
15.87
16.62
17.59
17.13
14.00
8.06
0.30
-7.68
-14.39
-19.00
-21.38
-21.97
-21.41
-20.54
-20.32
-21.68
-25.23
-30.81
-37.33
-43.10
-46.56
-46.92
-44.55
-40.52
-35.92
-31.19
-26.04
-19.92
-12.64
-4.71
2.89
9.26
14.05
17.48
19.94
21.60
22.30
21.83
20.15
17.65
14.90
12.35
10.19
8.47
7.26
6.76
7.18
8.40
9.96
11.11
11.37
10.75
9.81
9.30
9.67
10.89
12.45
13.74
14.33
14.06
12.93
10.97
8.14
4.41
-0.12
-5.12
-10.11
-14.64
-18.40
-21.33
-23.49
-24.98
-25.82
-25.98
-25.52
-24.75
-24.28
-24.89
-27.05
-30.53
-34.28
-36.70
-36.32
-32.46
-25.57
-16.93
-8.06
0.01
7.05
13.41
19.53
25.45
30.59
34.05
35.06
33.31
29.21
23.72
18.14
13.72
11.39
11.52
13.89
17.72
21.92
25.33
27.11
26.86
24.69
21.06
16.66
12.29
8.75
6.71
6.47
7.79
9.80
11.35
11.39
9.43
5.78
1.37
-2.75
-5.88
-7.91
-9.25
-10.47
-12.01
-13.99
-16.24
-18.39
-20.03
-20.85
-20.84
-20.41
-20.33
-21.41
-24.05
-27.91
-31.94
-34.92
-36.12
-35.65
-34.32
-32.91
-31.59
-29.71
-26.35
-21.07
-14.39
-7.61
-2.17
1.13
2.46
2.58
2.32
2.15
2.27
2.98
4.91
8.85
15.16
23.27
31.58
38.05
41.20
40.68
37.43
33.00
28.79
25.48
23.00
20.91
18.88
16.82
14.65
12.10
8.68
4.03
-1.73
-7.71
-12.59
-15.30
-15.66
-14.62
-13.80
-14.70
-17.88
-22.70
-27.70
-31.26
-32.46
-31.32
-28.64
-25.43
-22.23
-18.95
-15.10
-10.27
-4.61
1.17
6.14
9.61
11.45
12.01
11.81
11.29
10.70
10.21
10.05
10.52
11.80
13.75
15.99
18.07
19.73
20.93
21.65
21.72
20.75
18.46
15.02
11.22
8.26
7.12
8.01
10.20
12.33
13.07
11.75
8.59
4.41
0.11
-3.77
-7.23
-10.65
-14.35
-18.26
-21.94
-24.80
-26.51
-27.32
-28.05
-29.68
-32.79
-37.14
-41.72
-45.16
-46.41
-45.20
-41.99
-37.56
-32.48
-26.81
-20.19
-12.33
-3.42
5.73
13.96
20.16
23.79
25.00
24.60
23.70
23.31
24.02
25.68
27.63
28.90
28.81
27.34
25.18
23.47
23.12
24.35
26.64
28.93
30.16
29.68
27.32
23.33
18.23
12.65
7.34
3.08
0.49
-0.23
0.56
2.01
3.06
2.95
1.41
-1.31
-4.74
-8.53
-12.51
-16.67
-20.86
-24.72
-27.79
-29.76
-30.66
-30.85
-30.80
-30.74
-30.61
-30.20
-29.45
-28.62
-28.17
-28.33
-28.68
-28.15
-25.28
-19.03
-9.40
2.37
14.19
23.91
30.01
32.06
30.61
27.01
23.07
20.77
21.91
27.53
37.54
50.34
63.27
73.28
78.09
76.89
70.45
60.57
49.20
37.94
27.81
19.42
13.06
8.75
6.03
4.07
1.98
-0.77
-4.03
-7.16
-9.48
-10.72
-11.22
-11.60
-12.43
-13.88
-15.78
-17.97
-20.49
-23.60
-27.47
-31.93
-36.34
-39.83
-41.67
-41.68
-40.28
-38.31
-36.52
-35.13
-33.56
-30.59
-24.96
-16.13
-4.85
6.89
16.60
22.39
23.85
22.22
19.74
18.43
19.11
21.14
22.98
23.30
21.71
18.91
16.15
14.37
13.75
13.82
14.00
14.15
14.63
15.89
17.87
19.79
20.41
18.83
15.09
10.27
5.87
3.04
1.93
1.67
0.99
-1.03
-4.57
-9.02
-13.67
-18.11
-22.47
-27.18
-32.41
-37.70
-41.97
-43.95
-42.91
-39.08
-33.67
-28.24
-23.89
-20.57
-17.10
-11.80
-3.48
7.70
20.16
31.51
39.62
43.52
43.68
41.55
38.73
36.27
34.47
33.11
31.96
31.11
30.84
31.42
32.77
34.40
35.66
36.08
35.55
34.33
32.83
31.36
29.99
28.54
26.69
24.14
20.70
16.41
11.50
6.40
1.57
-2.55
-5.68
-7.72
-8.86
-9.56
-10.48
-12.33
-15.66
-20.70
-27.37
-35.35
-44.13
-52.90
-60.42
-65.07
-65.34
-60.56
-51.49
-40.25
-29.40
-20.72
-14.30
-8.65
-1.73
7.69
19.29
31.42
42.07
50.09
55.55
59.33
62.32
64.72
66.14
66.28
65.68
65.90
69.03
76.64
88.90
104.25
119.83
132.52
140.12
142.10
139.77
135.82
133.47
135.55
143.91
159.03
179.80
203.49
226.00
242.36
247.76
238.99
216.03
182.91
147.15
117.58
101.21
100.61
113.32
133.35
154.05
170.59
180.90
184.98
183.27
175.73
161.92
142.21
118.65
94.89
75.02
61.89
56.21
56.63
60.84
66.61
72.63
78.56
84.64
91.18
98.13
104.94
110.72
114.52
115.67
113.93
109.60
103.27
95.64
87.27
78.46
69.23
59.39
48.66
36.69
23.27
8.31
-7.96
-24.95
-41.85
-57.74
-71.86
-83.80
-93.56
-101.43
-107.76
-112.64
-115.86
-117.06
-116.15
-113.79
-111.67
-112.40
-118.89
-133.49
-157.27
-189.60
-228.68
-271.93
-317.12
-362.83
-408.65
-455.00
-503.00
-554.29
-610.53
-672.41
-738.08
-802.42
-857.44
-894.51
-907.40
-894.81
-860.93
-813.52
-760.85
-708.74
-659.53
-612.84
-567.53
-523.18
-480.43
-440.19
-402.61
-366.77
-331.16
-294.66
-257.29
-220.18
-185.25
-154.14
-127.58
-105.15
-85.52
-67.11
-48.88
-30.65
-13.09
2.69
15.69
25.50
32.48
37.48
41.48
45.14
48.61
51.50
53.19
53.13
51.13
47.42
42.54
37.16
31.85
26.99
22.72
19.12
16.29
14.43
13.84
14.83
17.60
22.21
28.53
36.21
44.84
54.02
63.39
72.71
81.83
90.64
99.12
107.19
114.78
121.79
128.08
133.54
138.11
141.70
144.23
145.56
145.49
143.81
140.41
135.35
128.97
121.91
114.94
108.80
104.01
100.76
98.92
98.25
98.52
99.78
102.37
106.83
113.66
123.12
135.09
149.11
164.65
181.25
198.81
217.54
238.00
260.92
287.14
317.40
351.90
389.75
428.72
465.46
496.41
519.10
533.05
539.78
541.84
541.27
538.40
531.53
517.79
494.63
461.08
418.10
368.19
314.50
260.12
207.90
160.60
120.91
91.02
71.84
62.25
58.84
56.78
51.43
40.07
22.55
0.69
-23.05
-46.80
-69.53
-90.59
-108.78
-122.31
-129.44
-129.70
-124.76
-118.11
-113.65
-113.90
-118.90
-126.32
-132.78
-135.40
-133.01
-126.40
-117.55
-108.65
-101.05
-94.80
-88.83
-81.78
-72.89
-62.51
-52.05
-43.21
-37.06
-33.41
-31.07
-28.91
-27.03
-27.22
-32.04
-43.15
-59.68
-78.02
-93.18
-101.12
-100.67
-93.94
-84.88
-77.11
-72.28
-69.87
-68.33
-66.53
-64.50
-63.06
-62.68
-62.60
-60.88
-55.51
-45.62
-32.48
-19.19
-9.33
-5.40
-7.50
-13.20
-18.48
-19.47
-13.97
-2.21
13.41
29.43
42.60
50.91
53.87
52.29
47.68
41.55
35.06
28.70
22.45
16.05
9.39
2.77
-3.02
-7.02
-8.60
-7.98
-6.32
-5.34
-6.53
-10.33
-15.72
-20.60
-22.53
-19.75
-11.78
0.62
15.91
32.33
48.33
62.59
74.05
81.87
85.72
85.91
83.51
80.05
76.96
75.19
75.12
76.78
80.21
85.52
92.67
101.09
109.50
116.19
119.68
119.34
115.66
109.79
102.70
94.52
84.43
71.26
54.19
33.47
10.52
-12.51
-33.26
-49.59
-59.88
-63.06
-58.85
-47.93
-32.16
-14.37
2.24
15.08
22.75
25.21
23.38
18.28
10.47
-0.18
-14.18
-31.99
-53.43
-77.56
-102.78
-127.04
-148.28
-164.70
-175.22
-179.75
-179.27
-175.63
-170.95
-167.01
-164.60
-163.35
-161.92
-158.45
-151.11
-138.60
-120.45
-97.24
-70.54
-42.68
-16.38
5.84
22.13
31.84
35.57
35.02
32.51
30.27
29.83
31.59
34.91
38.45
40.90
41.47
40.29
38.27
36.70
36.69
38.64
42.15
46.05
48.89
49.33
46.65
41.01
33.55
26.18
21.04
19.68
22.50
28.47
35.60
41.71
45.35
46.23
45.07
42.92
40.49
37.78
34.38
30.02
25.12
20.80
18.50
19.35
23.57
30.35
38.08
44.92
49.44
51.00
49.97
47.42
44.72
42.87
42.13
41.94
41.07
38.17
32.33
23.59
13.03
2.52
-5.92
-10.92
-12.22
-10.71
-7.97
-5.54
-4.28
-4.31
-5.23
-6.58
-8.14
-10.02
-12.38
-15.29
-18.65
-22.31
-26.15
-30.09
-33.88
-37.00
-38.74
-38.56
-36.44
-33.11
-29.84
-28.00
-28.45
-31.30
-35.89
-41.25
-46.40
-50.62
-53.40
-54.17
-52.39
-47.61
-39.92
-30.15
-19.88
-10.89
-4.46
-0.83
0.86
2.03
3.87
6.80
10.37
13.64
15.80
16.56
16.14
15.07
13.80
12.64
11.78
11.49
12.07
13.74
16.50
19.98
23.60
26.63
28.36
28.24
26.01
21.90
16.65
11.43
7.44
5.42
5.28
6.14
6.85
6.60
5.32
3.70
2.64
2.61
3.34
4.02
3.80
2.30
-0.21
-3.10
-5.91
-8.56
-11.41
-14.67
-18.07
-20.66
-21.17
-18.75
-13.44
-6.32
0.85
6.34
9.02
8.58
5.33
-0.12
-7.27
-15.76
-25.41
-36.05
-47.52
-59.65
-72.29
-85.31
-98.50
-111.58
-124.04
-135.21
-144.31
-150.61
-153.70
-153.84
-152.10
-150.25
-150.18
-153.03
-158.49
-164.48
-167.84
-165.32
-154.76
-135.64
-108.94
-76.67
-41.23
-5.21
28.56
56.83
76.31
84.67
81.69
70.05
54.88
42.39
37.84
43.99
60.45
84.18
111.03
137.14
160.02
178.42
191.77
199.52
201.04
196.22
186.08
173.01
160.10
150.04
144.05
141.56
140.69
139.35
136.29
131.53
126.16
121.54
118.79
118.25
119.36
120.56
119.48
113.48
100.41
79.59
52.16
20.99
-10.18
-38.00
-60.56
-78.18
-93.33
-109.92
-131.97
-162.14
-200.62
-244.68
-289.01
-326.76
-351.16
-357.33
-344.01
-314.21
-274.83
-234.72
-202.07
-181.94
-175.05
-178.23
-186.38
-194.53
-199.26
-198.79
-192.21
-178.75
-157.78
-129.34
-94.82
-56.82
-18.38
18.23
52.30
84.69
117.16
151.45
188.53
228.54
271.24
316.31
363.30
410.96
456.86
497.44
528.80
547.90
553.38
545.68
526.47
497.87
462.05
421.30
378.34
336.40
298.74
267.78
244.42
227.87
216.22
207.34
199.57
192.00
184.31
176.56
168.87
161.24
153.37
144.67
134.33
121.41
105.18
85.30
62.05
36.16
8.70
-19.30
-47.05
-74.26
-101.01
-127.80
-155.43
-184.83
-216.62
-250.57
-285.03
-316.79
-341.74
-356.03
-357.37
-346.05
-324.86
-298.23
-270.79
-246.06
-225.84
-210.36
-198.88
-190.38
-183.91
-178.62
-173.74
-168.43
-161.90
-153.47
-142.76
-129.77
-114.87
-98.72
-82.03
-65.37
-49.11
-33.44
-18.63
-5.23
5.94
13.93
18.17
18.87
17.18
14.81
13.28
13.16
13.77
13.63
11.32
6.41
-0.16
-6.52
-10.86
-12.37
-11.58
-9.80
-8.15
-6.79
-4.90
-1.55
3.31
8.37
11.33
10.05
3.68
-6.85
-19.28
-30.97
-39.93
-45.20
-46.81
-45.46
-42.24
-38.61
-36.28
-36.80
-41.05
-48.75
-58.37
-67.53
-73.89
-75.98
-73.64
-67.89
-60.37
-52.59
-45.42
-39.13
-33.57
-28.70
-24.67
-21.73
-19.87
-18.42
-16.19
-11.94
-5.16
3.47
12.19
18.99
22.63
23.33
22.75
23.03
25.72
30.95
37.32
42.79
45.74
45.80
43.96
41.81
40.64
40.69
41.20
40.93
39.07
35.80
32.20
29.73
29.43
31.44
34.92
38.36
40.15
39.15
35.10
28.81
22.23
17.82
17.86
23.46
34.00
47.26
60.28
70.68
77.62
82.12
86.36
92.51
101.54
112.65
123.46
130.63
130.63
120.71
99.98
70.30
36.79
7.02
-11.00
-11.82
4.95
33.84
65.25
88.97
98.12
91.50
73.56
52.01
34.48
25.97
27.75
38.11
53.90
72.06
90.45
107.50
121.55
130.03
129.42
116.09
88.07
46.46
-4.13
-56.57
-103.12
-137.64
-156.91
-161.30
-154.21
-141.16
-128.58
-122.43
-126.95
-143.54
-170.46
-203.60
-238.39
-272.06
-305.00
-340.12
-380.38
-425.76
-471.65
-509.75
-531.42
-531.53
-510.67
-474.89
-432.75
-391.54
-354.70
-321.80
-290.46
-258.90
-227.35
-197.68
-171.77
-149.94
-130.20
-109.18
-83.67
-52.03
-14.78
25.85
66.98
106.19
142.06
174.05
201.98
225.44
243.72
256.00
262.01
262.36
258.57
252.55
245.93
239.63
233.90
228.83
224.85
222.88
224.02
228.84
236.91
246.66
255.83
262.22
264.25
261.33
253.75
242.32
227.96
211.44
193.17
173.29
151.79
128.61
103.97
78.48
53.24
29.75
9.65
-5.64
-15.32
-19.65
-20.07
-18.91
-18.81
-21.82
-28.64
-38.34
-48.61
-56.62
-60.08
-58.16
-51.78
-43.27
-35.42
-30.28
-28.34
-28.36
-27.97
-24.68
-17.00
-5.13
9.04
22.52
32.33
36.42
34.41
27.55
18.02
7.96
-1.29
-9.53
-17.27
-25.00
-32.71
-39.87
-45.85
-50.57
-54.67
-59.10
-64.35
-69.82
-73.78
-74.13
-69.59
-60.63
-49.51
-39.50
-33.45
-32.55
-35.96
-41.45
-46.64
-50.15
-52.10
-53.64
-56.02
-59.89
-65.05
-70.87
-76.81
-82.75
-88.80
-95.04
-101.15
-106.43
-110.07
-111.39
-110.09
-106.23
-100.23
-92.68
-84.16
-74.87
-64.21
-50.59
-31.66
-5.01
30.94
76.11
128.41
183.93
237.82
285.27
322.71
348.56
363.51
370.11
371.82
371.91
372.34
373.29
373.19
369.49
359.62
341.87
315.92
282.79
244.53
203.60
162.35
122.59
85.26
50.46
17.54
-14.35
-45.69
-76.10
-104.30
-128.55
-147.44
-160.48
-168.29
-171.83
-171.75
-168.37
-162.28
-155.39
-150.94
-152.70
-162.98
-181.41
-204.76
-228.41
-248.44
-262.96
-272.01
-276.57
-277.03
-272.68
-262.46
-246.22
-225.93
-205.56
-189.97
-183.29
-187.43
-201.47
-221.72
-242.61
-257.82
-261.83
-251.26
-225.81
-188.76
-146.18
-105.25
-72.16
-49.95
-37.64
-30.87
-23.78
-11.16
9.79
39.19
75.02
114.11
152.89
188.00
216.26
235.14
243.13
240.13
227.62
208.06
184.18
158.22
131.68
105.55
80.72
58.38
39.80
25.99
17.08
12.23
9.85
8.26
6.42
4.37
3.05
3.64
6.92
12.68
19.68
26.11
30.24
31.09
28.71
24.14
18.93
14.64
12.24
12.00
13.41
15.49
17.16
17.57
16.32
13.62
10.14
6.78
4.38
3.38
3.81
5.32
7.46
9.81
12.11
14.21
15.93
17.10
17.58
17.55
17.56
18.49
21.22
26.16
33.06
40.93
48.40
54.10
57.10
57.04
54.18
49.28
43.42
37.73
33.16
30.34
29.45
30.25
32.24
34.88
37.69
40.24
42.07
42.64
41.47
38.40
33.71
28.11
22.33
16.71
10.93
4.08
-4.81
-16.25
-29.93
-44.80
-59.53
-72.84
-83.84
-92.00
-97.11
-99.15
-98.45
-95.65
-91.73
-87.76
-84.61
-82.84
-82.62
-83.94
-86.72
-90.84
-95.95
-101.38
-106.15
-109.13
-109.49
-106.82
-101.39
-93.96
-85.63
-77.45
-70.20
-64.10
-58.88
-53.84
-48.10
-40.78
-31.09
-18.55
-2.95
15.44
35.87
57.11
77.63
95.93
110.96
122.44
130.95
137.72
144.21
151.55
160.26
170.00
179.79
188.36
194.60
198.03
198.88
197.87
195.79
193.03
189.32
184.06
176.56
166.42
153.47
137.34
117.44
93.05
64.01
31.37
-2.37
-33.99
-60.72
-81.39
-96.93
-109.61
-121.71
-134.31
-146.88
-157.77
-165.24
-168.19
-166.20
-159.47
-148.08
-132.11
-111.92
-88.58
-64.02
-40.69
-20.86
-5.73
4.21
9.52
11.18
9.97
6.14
-0.47
-10.28
-23.56
-39.67
-58.03
-76.99
-94.52
-108.91
-119.58
-127.48
-135.05
-145.34
-160.12
-180.68
-205.29
-230.08
-250.35
-261.78
-261.60
-249.13
-225.88
-194.25
-159.31
-125.20
-94.47
-68.00
-45.07
-24.25
-4.51
8.72
20.30
27.83
30.75
31.14
32.22
37.28
48.31
65.22
86.35
110.36
134.92
159.74
187.11
219.37
258.14
303.72
355.09
410.16
466.50
519.14
562.39
591.92
603.65
595.71
568.98
526.88
474.28
416.46
356.90
286.70
202.69
106.80
7.27
-84.73
-160.12
-215.50
-253.16
-279.25
-300.35
-318.60
-334.43
-344.81
-344.77
-329.44
-296.10
-245.71
-183.48
-117.57
-55.12
-3.52
32.87
53.70
62.07
62.92
61.36
61.45
65.75
76.47
94.32
118.98
148.62
179.73
207.53
226.67
232.63
222.94
198.65
163.60
123.67
84.68
50.15
20.06
-8.40
-38.75
-72.79
-108.92
-143.24
-171.80
-193.32
-210.10
-226.64
-246.74
-271.30
-298.15
-323.54
-344.12
-357.81
-363.40
-359.72
-345.83
-322.07
-291.53
-260.25
-235.47
-222.62
-222.57
-231.10
-241.25
-246.44
-242.82
-229.46
-206.81
-175.48
-136.09
-89.90
-39.72
10.00
54.12
89.13
114.70
133.79
151.04
170.77
195.71
226.48
260.86
293.49
316.54
321.71
304.11
265.40
214.94
167.54
137.49
131.75
146.15
167.58
179.33
172.58
149.81
120.17
91.62
68.34
49.27
29.96
6.06
-24.41
-60.11
-97.45
-131.74
-157.79
-170.76
-168.32
-151.77
-125.91
-96.99
-69.97
-47.02
-27.51
-9.41
9.10
28.14
46.22
61.21
71.00
73.33
65.27
43.48
6.37
-43.43
-98.19
-146.03
-174.47
-174.87
-145.93
-94.43
-33.01
24.43
67.46
91.79
99.20
95.33
86.49
77.27
69.78
64.28
60.36
57.64
55.89
54.80
54.06
53.33
52.69
52.50
53.02
53.96
54.61
54.28
53.13
52.32
53.34
56.93
62.43
67.94
71.49
72.23
70.75
68.42
66.21
63.93
60.58
55.23
47.72
38.38
27.34
13.92
-3.00
-23.91
-47.75
-72.11
-94.65
-114.77
-134.49
-157.86
-188.83
-228.88
-275.46
-322.12
-360.22
-381.49
-380.48
-355.90
-310.61
-250.32
-181.51
-109.33
-36.60
35.77
107.12
175.19
235.18
280.69
305.86
307.89
288.45
253.36
210.60
167.77
129.88
98.63
72.97
50.57
29.10
6.81
-17.70
-46.09
-80.36
-122.16
-171.48
-225.48
-278.33
-322.49
-351.19
-360.85
-352.58
-331.85
-306.43
-283.50
-267.04
-256.82
-249.02
-238.39
-220.70
-194.31
-160.48
-122.32
-83.23
-45.60
-10.36
22.61
53.55
82.22
107.93
130.11
149.00
165.73
181.74
197.75
213.07
225.70
233.22
234.08
228.53
218.67
207.66
198.41
192.56
190.02
189.33
188.41
185.42
179.22
169.56
156.89
142.06
125.99
109.46
93.13
77.65
63.75
52.23
43.59
37.82
34.19
31.45
28.28
23.84
18.05
11.59
5.48
0.62
-2.56
-4.16
-4.62
-4.39
-3.68
-2.40
-0.32
2.58
5.87
8.72
10.16
9.58
7.10
3.46
-0.33
-3.60
-6.33
-9.02
-12.20
-15.91
-19.55
-22.10
-22.79
-21.49
-18.88
-15.99
-13.63
-12.02
-10.82
-9.52
-7.99
-6.59
-5.96
-6.58
-8.36
-10.67
-12.71
-14.01
-14.61
-15.04
-15.79
-16.92
-18.00
-18.34
-17.49
-15.56
-13.12
-10.81
-8.83
-6.62
-3.15
2.66
11.22
21.98
33.53
44.18
52.73
58.86
63.08
66.23
68.90
71.09
72.34
72.19
70.75
68.91
68.02
69.34
73.43
79.90
87.64
95.36
102.13
107.65
112.17
116.18
120.15
124.39
129.01
133.86
138.52
142.24
143.95
142.54
137.18
127.50
113.65
96.06
75.35
52.25
27.68
2.82
-21.02
-42.59
-61.04
-76.06
-87.98
-97.60
-106.12
-114.81
-124.62
-135.70
-147.21
-157.69
-166.00
-172.29
-178.58
-188.53
-205.98
-233.10
-268.62
-307.32
-340.89
-360.14
-358.04
-332.09
-285.29
-224.87
-159.44
-95.90
-37.43
16.29
67.29
116.85
164.19
206.86
242.40
269.77
289.61
303.08
310.14
308.86
296.19
270.05
231.27
184.23
135.49
91.33
55.47
27.93
5.74
-15.24
-38.58
-66.39
-99.39
-137.29
-178.70
-220.70
-258.49
-285.88
-297.09
-288.83
-261.70
-219.97
-169.62
-115.71
-60.69
-4.74
51.99
106.89
154.35
187.78
203.08
201.47
189.46
175.69
166.39
162.32
158.83
149.10
128.28
96.19
57.11
17.46
-17.17
-43.76
-61.98
-73.15
-78.97
-80.62
-78.27
-71.06
-57.74
-37.77
-12.40
14.86
39.04
55.37
61.13
56.56
44.47
28.74
12.96
-0.35
-9.72
-14.52
-14.83
-11.62
-6.56
-1.56
1.97
3.39
2.79
0.46
-3.24
-7.70
-11.85
-14.18
-13.78
-11.39
-9.73
-12.43
-21.96
-37.70
-55.81
-71.21
-80.29
-82.87
-81.56
-79.36
-76.98
-71.98
-60.31
-39.04
-8.28
28.84
68.04
106.11
141.83
175.34
206.88
235.91
261.50
283.00
300.71
315.45
327.58
336.30
339.69
335.80
323.67
303.90
278.28
249.11
218.45
188.04
159.48
134.34
113.97
98.80
87.96
78.99
68.48
53.11
30.78
1.40
-33.24
-70.29
-107.15
-142.49
-176.73
-211.73
-250.02
-293.94
-344.68
-401.42
-460.58
-515.73
-558.49
-580.69
-576.98
-547.22
-497.16
-436.97
-377.99
-329.04
-293.97
-271.39
-256.47
-243.49
-227.97
-207.66
-182.52
-154.09
-124.60
-96.13
-69.98
-46.53
-25.54
-6.57
10.63
26.04
39.85
52.54
64.48
74.78
80.34
75.96
56.47
20.04
-29.33
-81.88
-125.48
-150.70
-154.82
-142.36
-122.15
-102.67
-88.29
-78.61
-70.33
-60.14
-46.66
-30.47
-12.93
5.15
23.62
42.56
61.26
78.16
91.22
98.90
100.82
97.87
91.81
84.72
78.35
73.71
70.93
69.37
67.91
65.47
61.32
55.20
47.16
37.53
26.88
16.28
7.11
0.79
-1.69
-0.14
4.80
11.86
19.50
26.03
29.79
29.42
24.31
15.14
3.89
-6.68
-14.06
-16.87
-15.20
-10.14
-2.92
5.72
15.54
26.30
37.32
47.33
55.18
60.33
63.22
64.86
66.17
67.29
67.45
65.45
60.44
52.61
43.22
34.12
27.03
22.85
21.58
22.52
24.80
27.66
30.51
32.73
33.65
32.61
29.24
23.77
17.05
10.27
4.58
0.72
-1.21
-1.63
-1.32
-1.17
-1.91
-3.91
-7.14
-11.27
-15.99
-21.22
-27.12
-33.73
-40.53
-46.37
-49.79
-49.77
-46.39
-40.75
-34.49
-28.80
-23.88
-18.93
-12.80
-4.86
4.59
14.48
23.40
30.25
34.53
36.34
36.13
34.49
31.95
28.97
25.92
23.00
20.36
18.00
16.03
14.67
14.37
15.71
19.09
24.37
30.61
36.18
39.22
38.46
33.80
26.54
18.88
12.93
9.76
8.89
8.70
7.22
3.30
-2.84
-9.93
-16.35
-21.07
-24.04
-25.88
-27.14
-27.71
-26.74
-23.32
-17.14
-9.02
-0.64
6.25
10.56
12.32
12.43
12.11
12.25
13.10
14.38
15.57
16.20
16.07
15.27
14.04
12.66
11.35
10.18
9.11
8.05
7.04
6.23
5.86
6.17
7.26
9.03
11.19
13.25
14.69
15.09
14.28
12.40
9.81
6.92
3.97
1.04
-1.80
-4.20
-5.50
-5.00
-2.35
2.00
6.88
10.87
13.01
13.27
12.58
12.20
13.13
15.59
19.10
22.74
25.66
27.31
27.46
26.19
23.73
20.48
16.94
13.68
11.21
9.95
10.14
11.78
14.55
17.77
20.57
22.03
21.65
19.50
16.24
12.83
10.07
8.28
7.22
6.43
5.46
4.22
2.91
1.87
1.40
1.54
2.06
2.49
2.28
0.94
-1.76
-5.74
-10.50
-15.27
-19.23
-21.85
-23.00
-22.98
-22.27
-21.33
-20.37
-19.36
-18.10
-16.32
-13.77
-10.32
-5.95
-0.83
4.71
10.20
15.10
18.92
21.33
22.21
21.67
20.09
18.03
16.15
14.92
14.44
14.33
13.92
12.56
10.03
6.62
2.99
-0.11
-2.24
-3.35
-3.68
-3.61
-3.43
-3.35
-3.56
-4.24
-5.46
-7.15
-9.06
-10.74
-11.79
-12.02
-11.60
-11.00
-10.89
-11.72
-13.45
-15.37
-16.27
-15.01
-11.05
-5.02
1.52
6.58
8.79
7.99
5.45
3.22
3.15
6.03
11.28
17.25
22.08
24.43
23.92
21.15
17.21
13.10
9.36
5.87
2.10
-2.44
-7.84
-13.65
-19.01
-23.12
-25.70
-27.14
-28.37
-30.32
-33.40
-37.31
-41.07
-43.62
-44.25
-42.85
-39.71
-35.42
-30.60
-25.86
-21.89
-19.21
-17.87
-17.11
-15.32
-10.47
-0.95
13.44
30.93
48.18
61.24
66.97
64.04
53.16
36.54
16.94
-3.23
-22.19
-38.64
-51.38
-59.16
-60.94
-56.40
-46.31
-32.39
-16.77
-1.40
12.33
23.63
32.09
37.62
40.55
41.67
42.17
43.26
45.55
48.87
52.36
55.16
56.97
58.10
59.00
59.61
59.01
55.71
48.59
37.79
25.08
13.24
5.01
1.78
2.95
6.32
9.11
9.18
5.86
-0.06
-6.88
-12.77
-16.36
-17.01
-14.70
-9.91
-3.59
2.95
8.23
11.09
11.10
8.98
6.20
4.30
4.07
4.71
4.11
-0.39
-10.68
-26.82
-46.53
-65.80
-80.12
-86.15
-82.79
-71.17
-53.80
-33.13
-10.72
12.84
36.86
59.54
77.66
87.51
86.68
75.49
57.35
37.38
20.22
8.00
-0.26
-7.59
-17.10
-30.12
-45.67
-61.19
-73.94
-82.24
-85.86
-85.63
-82.76
-78.54
-74.28
-71.60
-72.12
-77.01
-86.19
-97.99
-109.86
-119.46
-125.84
-129.47
-131.66
-133.53
-135.49
-137.58
-140.30
-145.00
-153.32
-165.91
-181.10
-194.95
-202.36
-199.30
-184.47
-159.59
-128.43
-94.97
-61.93
-30.35
-0.01
29.93
60.42
92.32
126.11
161.35
196.26
227.61
251.38
264.31
265.23
255.68
239.24
220.11
201.55
185.27
171.65
160.57
151.92
145.31
139.55
132.44
121.49
105.24
84.38
61.68
40.84
24.92
15.18
11.08
11.15
13.96
18.64
24.56
30.88
36.28
39.42
39.65
37.34
33.79
30.41
28.09
26.85
26.06
24.83
22.45
18.57
13.24
6.87
0.25
-5.57
-9.34
-9.99
-6.93
-0.33
8.87
19.39
30.13
40.51
50.36
59.23
65.78
67.81
63.17
51.14
33.44
13.93
-3.06
-14.93
-22.06
-27.40
-34.43
-45.12
-58.79
-72.75
-83.85
-90.03
-90.87
-87.22
-80.45
-72.08
-63.65
-56.71
-52.37
-50.74
-50.64
-50.13
-47.66
-43.14
-38.02
-34.37
-33.40
-34.55
-35.58
-33.83
-27.60
-16.98
-3.67
10.11
22.73
33.69
43.41
52.41
60.65
67.30
71.21
71.51
68.13
61.89
54.05
45.86
38.09
30.82
23.62
15.87
7.07
-2.76
-13.01
-22.52
-29.86
-33.97
-34.59
-32.55
-29.47
-27.07
-26.35
-27.03
-27.77
-26.78
-22.79
-15.64
-6.31
3.54
12.14
18.22
21.17
20.93
18.00
13.23
7.86
3.30
0.74
0.64
2.56
5.23
7.19
7.40
5.62
2.37
-1.47
-5.11
-8.09
-10.20
-11.28
-11.15
-9.59
-6.68
-2.88
0.94
3.87
5.22
4.84
3.02
0.26
-2.91
-6.10
-8.99
-11.30
-12.74
-13.21
-12.90
-12.24
-11.75
-11.67
-11.81
-11.61
-10.42
-7.93
-4.31
-0.17
3.77
7.02
9.45
11.29
12.87
14.36
15.62
16.27
15.96
14.68
12.91
11.45
11.16
12.43
14.97
17.96
20.37
21.47
21.11
19.57
17.38
14.96
12.50
10.03
7.66
5.62
4.20
3.58
3.65
4.04
4.29
4.09
3.48
2.74
2.22
2.07
2.10
1.94
1.17
-0.36
-2.57
-5.23
-8.04
-10.84
-13.57
-16.15
-18.48
-20.37
-21.60
-22.03
-21.62
-20.51
-18.92
-17.15
-15.45
-14.02
-12.81
-11.58
-10.00
-7.85
-5.15
-2.26
0.28
1.95
2.43
1.78
0.31
-1.54
-3.33
-4.68
-5.28
-4.94
-3.56
-1.37
1.18
3.47
4.98
5.55
5.41
5.00
4.76
4.92
5.45
6.26
7.27
8.49
9.91
11.34
12.41
12.75
12.21
10.98
9.55
8.40
7.74
7.36
6.69
5.15
2.42
-1.33
-5.48
-9.23
-11.87
-13.07
-12.90
-11.76
-10.13
-8.42
-6.86
-5.58
-4.69
-4.30
-4.42
-4.96
-5.66
-6.19
-6.25
-5.66
-4.35
-2.35
0.22
3.15
6.11
8.60
10.13
10.33
9.13
6.86
4.20
1.94
0.77
1.04
2.63
5.03
7.48
9.23
9.79
9.06
7.34
5.14
3.03
1.43
0.56
0.37
0.66
1.08
1.31
1.12
0.46
-0.50
-1.53
-2.43
-3.17
-3.85
-4.56
-5.29
-5.89
-6.17
-6.10
-5.95
-6.09
-6.82
-8.13
-9.61
-10.68
-10.95
-10.36
-9.25
-8.05
-7.13
-6.62
-6.50
-6.71
-7.18
-7.74
-8.08
-7.68
-6.05
-3.00
1.18
5.75
9.81
12.64
13.84
13.47
11.82
9.34
6.45
3.59
1.15
-0.48
-1.05
-0.55
0.72
2.16
3.06
2.83
1.29
-1.33
-4.34
-6.93
-8.35
-8.27
-6.77
-4.38
-1.78
0.37
1.61
1.79
1.06
-0.26
-1.86
-3.52
-5.21
-6.96
-8.73
-10.46
-11.99
-13.21
-14.17
-15.06
-16.17
-17.79
-20.14
-23.30
-27.23
-31.65
-36.04
-39.66
-41.77
-42.02
-40.71
-38.88
-37.89
-38.73
-41.34
-44.33
-45.25
-41.40
-30.65
-12.20
13.20
43.36
75.09
104.85
129.44
146.71
156.06
158.54
156.35
152.01
147.47
143.64
140.49
137.51
134.21
130.27
125.38
118.92
110.10
98.28
83.46
66.53
49.02
32.36
17.31
3.67
-9.41
-22.64
-36.20
-49.69
-62.54
-74.43
-85.46
-95.85
-105.40
-113.46
-119.11
-121.88
-122.17
-121.17
-120.19
-119.96
-120.13
-119.58
-117.22
-112.79
-107.04
-101.20
-95.81
-89.92
-81.09
-66.43
-44.32
-15.51
17.01
49.41
79.05
105.58
130.67
156.38
183.56
211.21
237.04
258.74
274.83
284.43
286.52
279.49
261.77
233.56
197.84
160.04
125.92
98.93
78.93
62.68
46.14
26.63
3.82
-20.64
-44.43
-65.85
-84.45
-100.83
-116.04
-131.02
-146.33
-162.01
-177.52
-191.74
-202.94
-209.07
-208.21
-199.08
-181.49
-156.67
-127.01
-95.57
-65.23
-37.91
-14.27
6.15
24.41
41.73
59.18
77.51
96.68
115.40
131.18
140.87
141.83
133.06
115.58
91.75
63.99
33.89
2.36
-29.73
-60.97
-89.72
-115.04
-137.71
-160.23
-185.91
-217.63
-256.84
-303.18
-354.59
-407.25
-455.58
-492.81
-512.27
-509.66
-484.87
-442.47
-390.19
-336.13
-286.10
-242.46
-204.82
-171.55
-141.39
-113.85
-88.79
-65.71
-43.42
-20.43
4.32
30.91
58.51
85.70
111.14
134.08
154.36
172.21
187.70
200.34
209.07
212.79
211.07
204.97
197.37
192.46
194.60
206.51
227.79
254.41
279.78
296.93
300.99
290.54
267.35
235.16
198.34
161.20
127.91
102.13
86.18
79.96
80.51
82.87
82.36
76.90
67.90
59.01
53.63
52.59
53.89
54.12
50.84
44.15
36.48
31.20
30.91
36.39
46.39
58.35
69.36
77.07
80.29
78.95
73.65
65.08
53.68
39.85
24.41
8.94
-4.41
-13.66
-18.02
-18.37
-16.83
-15.70
-16.35
-18.64
-21.34
-22.86
-22.10
-18.76
-13.29
-6.55
0.47
6.72
11.10
12.70
11.20
7.44
3.55
2.60
7.58
20.06
39.39
62.73
86.17
106.36
121.74
132.67
140.62
146.79
151.24
153.02
151.06
144.93
135.09
122.40
107.46
90.42
71.19
49.99
27.45
4.19
-19.69
-44.77
-71.68
-100.07
-128.00
-152.30
-169.67
-178.31
-178.69
-173.46
-166.47
-161.28
-159.99
-162.91
-168.87
-176.01
-182.44
-186.72
-187.94
-185.56
-179.42
-169.80
-157.31
-142.69
-126.35
-107.95
-86.44
-60.75
-30.92
0.89
30.42
52.37
62.31
58.67
43.68
22.97
3.65
-8.19
-9.68
-2.21
9.37
18.66
20.31
11.96
-5.10
-26.75
-48.04
-65.38
-77.83
-86.94
-95.03
-103.02
-109.14
-109.38
-99.46
-77.41
-44.83
-6.22
33.08
69.15
100.53
127.40
150.02
167.81
179.49
184.24
182.81
177.54
171.45
166.93
165.15
166.29
170.13
176.27
183.54
189.45
190.08
181.13
159.61
125.27
81.01
31.60
-17.96
-64.38
-106.91
-146.99
-187.17
-230.19
-278.42
-333.40
-395.38
-462.33
-529.16
-588.04
-630.31
-649.43
-643.36
-615.34
-572.34
-522.03
-470.12
-419.24
-369.67
-320.96
-273.30
-227.68
-184.94
-144.96
-106.32
-67.04
-25.75
17.56
61.55
103.85
142.27
175.41
202.93
225.35
243.54
258.23
269.63
277.31
280.28
277.55
268.36
252.86
232.27
208.72
184.91
163.31
145.57
132.13
122.20
113.97
105.54
95.65
84.58
74.35
68.01
68.49
76.95
92.13
110.55
127.76
140.05
145.68
145.19
140.80
135.31
131.02
129.36
130.86
135.35
141.94
148.83
153.33
152.26
142.98
124.65
98.82
69.27
40.56
16.30
-2.03
-15.19
-25.30
-34.32
-43.18
-51.64
-58.75
-63.56
-65.30
-63.45
-57.78
-48.56
-36.91
-24.93
-15.34
-10.84
-13.35
-23.35
-39.48
-58.50
-75.85
-86.67
-87.33
-76.82
-57.37
-33.73
-11.58
4.50
12.22
11.78
5.02
-5.62
-17.74
-29.18
-38.05
-43.08
-44.05
-42.13
-39.51
-38.56
-40.87
-46.58
-54.45
-62.27
-67.65
-68.55
-63.77
-53.21
-38.04
-20.43
-3.00
12.14
24.09
33.35
41.22
48.78
55.95
61.41
63.24
60.00
51.59
39.41
25.74
12.88
2.38
-5.23
-10.08
-12.52
-12.82
-11.07
-7.52
-2.69
2.58
7.49
11.66
15.32
19.11
23.67
29.19
35.19
40.74
44.85
46.88
46.71
44.76
41.77
38.46
35.38
32.79
30.65
28.78
26.98
25.11
23.23
21.57
20.49
20.33
21.30
23.37
26.24
29.38
32.12
33.93
34.45
33.64
31.65
28.73
25.12
20.98
16.42
11.63
6.95
2.88
-0.13
-1.73
-1.95
-1.18
-0.15
0.32
-0.43
-2.69
-6.20
-10.36
-14.42
-17.79
-20.23
-21.87
-23.03
-24.02
-24.99
-25.86
-26.34
-26.05
-24.67
-22.07
-18.43
-14.15
-9.75
-5.60
-1.74
2.05
6.10
10.58
15.27
19.61
23.00
25.02
25.67
25.28
24.28
23.04
21.68
20.14
18.39
16.53
14.88
13.78
13.44
13.80
14.57
15.33
15.75
15.66
14.97
13.60
11.40
8.28
4.38
0.17
-3.57
-6.04
-6.75
-5.78
-3.80
-1.85
-0.83
-1.18
-2.66
-4.36
-5.08
-3.79
-0.17
5.11
10.48
14.04
14.39
11.31
5.95
0.29
-3.74
-5.18
-4.27
-2.23
-0.57
-0.46
-2.33
-5.75
-9.55
-11.97
-11.14
-5.57
5.01
19.39
35.24
50.20
63.18
74.99
87.82
103.81
123.34
144.42
163.38
176.61
182.05
179.77
171.16
157.54
139.16
115.12
84.20
45.83
0.88
-48.24
-97.70
-142.84
-178.96
-202.48
-212.30
-210.24
-200.51
-187.99
-176.15
-165.75
-155.04
-141.16
-121.98
-97.09
-67.69
-35.68
-2.88
29.23
59.18
85.01
104.43
115.60
117.90
112.33
101.23
87.26
72.50
57.97
43.77
29.59
15.39
1.51
-11.42
-22.97
-33.08
-41.83
-49.17
-54.67
-57.79
-58.48
-57.57
-56.69
-57.51
-60.98
-66.82
-73.90
-80.99
-87.39
-93.28
-99.23
-105.52
-111.85
-117.46
-121.59
-123.88
-124.34
-122.91
-119.29
-112.91
-103.37
-90.84
-76.11
-60.13
-43.38
-25.42
-5.11
18.48
45.26
73.54
100.48
122.89
138.40
146.24
147.41
144.38
140.22
137.77
138.85
143.86
151.77
160.38
166.76
167.71
160.55
143.93
118.69
88.29
58.27
34.87
23.00
24.54
37.70
58.01
80.17
100.16
116.15
128.23
137.34
144.09
148.43
150.01
148.92
145.76
141.26
135.36
126.65
112.85
92.04
64.09
31.35
-1.97
-31.35
-53.76
-68.72
-78.26
-85.70
-94.16
-105.22
-118.67
-132.88
-145.96
-156.57
-164.16
-168.56
-169.44
-166.09
-157.86
-145.01
-129.25
-113.68
-101.77
-96.00
-96.83
-102.56
-110.07
-115.95
-117.52
-113.35
-103.52
-89.43
-73.53
-58.57
-46.92
-39.84
-37.23
-38.06
-41.04
-45.37
-50.87
-57.58
-65.27
-73.16
-80.10
-85.09
-87.79
-88.45
-87.66
-85.83
-83.11
-79.63
-75.96
-73.37
-73.48
-77.60
-85.95
-97.15
-108.48
-116.67
-118.96
-113.91
-101.57
-83.20
-60.69
-35.91
-10.56
13.88
36.06
55.00
70.42
83.22
95.36
109.08
125.77
144.93
163.98
179.13
186.98
185.87
176.53
161.38
143.35
124.71
106.60
89.36
73.13
58.29
45.37
34.77
26.30
19.25
12.66
5.85
-1.27
-8.13
-13.78
-17.31
-18.25
-16.77
-13.63
-9.80
-6.07
-2.65
0.73
4.41
8.36
11.90
13.86
13.22
9.62
3.43
-4.40
-12.93
-21.41
-29.19
-35.46
-39.04
-38.66
-33.47
-23.73
-10.85
2.93
15.26
24.43
29.68
31.20
29.83
26.71
23.06
19.91
18.10
18.11
20.04
23.58
28.01
32.23
34.92
34.81
31.03
23.47
13.03
1.54
-8.67
-15.40
-17.39
-14.77
-9.07
-2.79
1.34
1.11
-4.75
-16.32
-32.59
-51.58
-70.50
-86.15
-95.55
-96.90
-90.31
-78.12
-64.12
-52.25
-45.01
-42.65
-43.52
-45.27
-46.24
-46.20
-45.99
-46.61
-48.16
-49.69
-49.84
-47.88
-44.40
-40.92
-38.74
-37.87
-36.62
-32.33
-23.02
-8.69
8.00
22.70
31.13
31.21
24.32
15.17
10.02
13.97
28.58
50.73
73.63
89.55
93.19
84.03
66.56
48.34
37.07
38.17
53.63
82.10
119.64
160.42
197.38
223.10
231.44
219.54
189.35
147.70
104.51
69.61
49.54
45.61
53.86
67.16
78.22
82.19
78.18
68.56
56.90
45.35
33.29
17.57
-5.56
-37.94
-78.02
-121.33
-162.73
-198.86
-229.07
-254.38
-275.19
-289.32
-292.21
-278.87
-246.65
-196.79
-134.12
-65.20
3.51
66.71
119.87
158.25
177.07
172.86
145.57
99.91
44.77
-9.46
-53.90
-83.30
-96.08
-93.23
-76.84
-49.69
-16.06
17.74
44.02
56.00
50.29
28.22
-5.10
-43.34
-81.43
-116.36
-146.18
