1679903912.00
64.000000
-0.00
-0.00
-0.00
-0.00
-0.00
-0.00
-0.00
-0.00
-0.00
-0.00
0.00
0.01
0.01
-0.00
-0.03
-0.05
-0.05
0.00
0.13
0.36
0.66
1.01
1.37
1.72
2.06
2.40
2.79
3.24
3.80
4.42
5.06
5.66
6.20
6.68
7.15
7.68
8.31
9.14
10.09
11.04
11.88
12.56
13.14
13.76
14.65
15.96
17.91
20.32
22.90
25.38
27.58
29.57
31.68
34.32
37.81
42.54
48.15
54.10
59.83
64.97
69.58
74.14
79.34
85.71
93.76
103.00
112.62
121.73
129.77
136.75
143.30
150.75
157.77
166.64
177.95
191.79
206.97
220.57
228.25
225.36
208.53
176.87
132.76
80.05
23.07
-34.94
-92.44
-149.16
-205.23
-260.37
-313.74
-363.87
-409.83
-450.91
-486.50
-515.74
-537.23
-549.22
-549.96
-538.37
-514.21
-478.67
-433.88
-382.45
-327.02
-269.84
-212.63
-156.66
-102.95
-52.37
-5.90
35.58
71.43
101.35
125.50
144.38
158.69
169.15
176.37
180.75
182.57
182.07
179.51
175.23
169.65
163.18
156.15
148.81
141.30
133.69
126.02
118.33
110.69
103.16
95.80
88.68
81.83
75.25
68.95
62.95
57.25
51.86
46.78
42.03
37.59
33.45
29.61
26.07
22.81
19.83
17.11
14.67
12.48
10.54
8.83
7.35
6.07
4.97
4.05
3.27
2.62
2.09
1.65
1.30
1.01
0.79
0.61
0.48
0.37
0.29
0.23
0.18
0.16
0.16
0.17
0.18
0.18
0.16
0.13
0.08
0.05
0.04
0.06
0.12
0.18
0.23
0.25
0.23
0.19
0.16
0.15
0.20
0.29
0.39
0.46
0.46
0.38
0.27
0.18
0.18
0.30
0.54
0.78
0.94
0.91
0.71
0.41
0.19
0.19
0.51
1.08
1.71
2.15
2.23
1.91
1.36
0.89
0.78
1.22
2.11
3.14
3.87
4.01
3.51
2.63
1.84
1.56
1.99
3.03
4.25
5.15
5.30
4.32
2.02
-1.66
-6.37
-11.15
-14.61
-15.39
-12.86
-7.52
-1.09
4.20
6.56
5.26
0.98
-4.78
-10.36
-14.46
-16.51
-16.54
-15.14
-13.08
-11.15
-9.81
-9.04
-8.30
-6.70
-3.62
0.97
6.47
12.03
17.04
21.45
25.64
29.95
34.57
39.18
43.12
45.60
46.06
44.14
39.72
32.79
23.42
12.54
1.76
-6.80
-11.05
-9.80
-3.57
5.41
13.54
16.90
13.29
3.22
-9.91
-20.80
-24.29
-17.68
-1.74
20.27
41.03
54.41
57.92
53.20
44.31
35.29
27.69
21.59
16.19
10.68
5.28
0.67
-2.93
-6.14
-10.16
-16.23
-23.97
-31.38
-35.77
-34.72
-27.52
-15.83
-3.22
9.04
18.25
23.11
23.99
22.36
20.16
18.91
19.38
21.62
25.16
28.77
31.40
32.20
30.64
26.68
20.77
13.46
5.14
-4.04
-14.26
-25.14
-35.60
-44.21
-49.62
-51.29
-49.69
-46.08
-41.80
-37.86
-34.39
-31.06
-27.73
-24.91
-23.77
-25.65
-31.44
-41.01
-53.34
-66.51
-78.36
-87.02
-91.31
-91.01
-86.73
-79.63
-70.75
-60.66
-49.24
-35.95
-20.34
-2.54
16.68
36.13
54.73
71.78
87.00
100.14
110.66
117.50
119.33
115.06
104.39
88.34
69.21
50.38
35.61
28.27
30.22
41.14
58.09
75.91
88.28
89.64
77.26
52.49
20.79
-10.18
-33.27
-44.50
-44.58
-38.99
-36.25
-45.13
-71.40
-115.09
-169.60
-223.13
-262.80
-279.58
-272.00
-246.51
-214.12
-184.96
-163.64
-148.14
-132.47
-111.43
-84.26
-55.01
-29.78
-12.75
-3.53
2.67
12.49
31.16
60.60
99.18
143.01
187.36
227.31
258.05
275.25
275.61
258.01
224.28
179.14
129.13
80.99
40.16
9.93
-8.79
-17.21
-18.17
-15.63
-13.61
-15.06
-20.92
-30.00
-39.76
-47.92
-53.77
-58.55
-64.78
-74.77
-89.29
-106.88
-124.16
-137.14
-142.57
-139.19
-128.06
-112.03
-94.65
-78.86
-66.21
-56.71
-49.18
-41.97
-33.53
-22.80
-9.42
6.24
22.98
38.98
52.20
60.99
64.72
64.16
61.24
58.35
57.57
59.94
65.24
72.22
79.17
84.51
87.22
87.02
84.37
80.29
76.00
72.50
70.11
68.23
65.43
59.98
50.47
36.45
18.59
-1.66
-22.64
-43.14
-62.54
-80.76
-97.79
-113.51
-127.55
-139.50
-149.17
-156.60
-162.07
-165.87
-167.89
-167.56
-163.83
-155.58
-142.13
-123.71
-101.49
-77.08
-51.88
-26.56
-1.06
24.92
51.16
76.44
98.72
115.75
125.88
128.57
124.40
114.74
101.26
85.68
69.64
54.65
41.96
32.37
26.04
22.50
20.88
20.30
20.08
19.89
19.53
18.80
17.42
15.21
12.29
9.19
6.76
5.78
6.71
9.52
13.83
19.17
25.13
31.36
37.38
42.47
45.59
45.66
41.84
33.82
22.00
7.33
-9.07
-26.19
-43.37
-60.23
-76.34
-90.91
-102.71
-110.30
-112.70
-109.79
-102.61
-92.94
-82.75
-73.53
-65.95
-59.96
-55.12
-50.91
-46.97
-43.09
-39.26
-35.55
-32.09
-29.02
-26.41
-24.17
-22.08
-19.88
-17.35
-14.47
-11.32
-7.97
-4.41
-0.41
4.32
10.06
16.95
24.99
34.07
44.05
54.69
65.56
75.93
84.85
91.28
94.38
93.87
90.12
84.12
77.18
70.51
64.94
60.81
58.02
56.23
55.00
53.85
52.30
49.95
46.59
42.32
37.57
33.03
29.36
26.95
25.87
25.85
26.64
28.08
30.24
33.10
36.39
39.53
41.77
42.50
41.52
39.03
35.44
31.14
26.39
21.34
16.18
11.22
6.81
3.18
0.32
-1.92
-3.76
-5.32
-6.71
-8.15
-10.01
-12.81
-16.94
-22.38
-28.59
-34.66
-39.63
-42.92
-44.42
-44.51
-43.82
-43.02
-42.65
-43.00
-43.83
-44.25
-42.64
-36.96
-25.39
-7.14
17.00
44.58
72.01
95.52
112.03
119.79
118.47
109.09
93.63
74.73
55.17
37.31
22.55
11.05
1.98
-5.91
-13.54
-20.98
-27.51
-32.07
-33.86
-32.77
-29.44
-24.93
-20.24
-16.12
-12.90
-10.64
-9.24
-8.56
-8.35
-8.28
-7.95
-7.01
-5.28
-2.87
-0.10
2.66
5.08
7.00
8.49
9.74
10.93
12.17
13.47
14.65
15.49
15.66
14.96
13.35
11.03
8.43
6.02
4.14
2.85
1.95
1.07
-0.12
-1.73
-3.68
-5.73
-7.66
-9.31
-10.65
-11.63
-12.23
-12.29
-11.71
-10.51
-8.85
-7.01
-5.28
-3.85
-2.75
-1.92
-1.29
-0.81
-0.54
-0.45
-0.50
-0.44
-0.00
1.07
2.93
5.55
8.78
12.28
15.70
18.70
21.02
22.53
23.26
23.38
23.11
22.68
22.20
21.65
20.88
19.73
18.13
16.13
13.90
11.68
9.65
7.89
6.34
4.82
3.19
1.36
-0.59
-2.45
-3.95
-4.81
-4.85
-4.03
-2.44
-0.27
2.23
4.78
7.13
9.01
10.24
10.74
10.58
9.95
9.11
8.31
7.68
7.30
7.09
6.92
6.71
6.41
6.05
5.66
5.20
4.51
3.40
1.72
-0.50
-3.02
-5.56
-7.85
-9.83
-11.56
-13.12
-14.52
-15.64
-16.33
-16.58
-16.55
-16.56
-16.97
-18.04
-19.83
-22.28
-25.19
-28.24
-31.04
-33.13
-34.15
-33.85
-32.23
-29.46
-25.86
-21.85
-17.79
-14.00
-10.67
-7.83
-5.37
-3.11
-0.88
1.41
3.72
5.90
7.78
9.26
10.31
11.02
11.51
11.96
12.46
13.01
13.56
14.03
14.37
14.63
14.86
15.13
15.37
15.43
15.13
14.38
13.20
11.72
10.11
8.50
6.96
5.55
4.28
3.14
2.01
0.63
-1.35
-4.23
-8.01
-12.36
-16.58
-19.88
-21.68
-21.76
-20.36
-17.95
-15.00
-11.84
-8.59
-5.29
-2.07
0.88
3.32
5.07
6.19
6.89
7.52
8.47
10.05
12.42
15.57
19.24
22.90
25.89
27.53
27.37
25.28
21.50
16.56
11.15
5.87
1.19
-2.63
-5.48
-7.37
-8.39
-8.70
-8.57
-8.34
-8.35
-8.85
-9.90
-11.32
-12.76
-13.81
-14.16
-13.75
-12.78
-11.62
-10.68
-10.31
-10.72
-11.92
-13.68
-15.61
-17.21
-17.98
-17.60
-15.99
-13.44
-10.39
-7.31
-4.51
-2.08
0.07
2.00
3.73
5.12
6.03
6.42
6.46
6.49
6.82
7.66
8.94
10.36
11.56
12.27
12.41
12.07
11.45
10.77
10.10
9.44
8.73
7.92
6.96
5.85
4.61
3.20
1.60
-0.18
-2.10
-4.13
-6.24
-8.46
-10.88
-13.65
-16.86
-20.46
-24.17
-27.54
-30.08
-31.37
-31.25
-29.80
-27.26
-23.94
-20.13
-16.08
-11.96
-8.05
-4.57
-1.70
0.53
2.17
3.41
4.42
5.34
6.21
7.05
7.88
8.68
9.42
10.05
10.52
10.82
10.96
10.95
10.75
10.25
9.30
7.83
5.93
3.80
1.76
0.00
-1.44
-2.71
-4.03
-5.53
-7.15
-8.73
-10.02
-10.94
-11.52
-11.94
-12.37
-12.88
-13.40
-13.80
-13.97
-13.89
-13.56
-12.95
-11.93
-10.28
-7.82
-4.58
-0.81
2.96
6.21
8.57
9.99
10.65
10.88
10.90
10.75
10.36
9.62
8.56
7.35
6.21
5.31
4.75
4.50
4.50
4.76
5.26
6.03
7.01
8.08
9.04
9.70
9.94
9.63
8.74
7.24
5.20
2.80
0.25
-2.22
-4.45
-6.41
-8.17
-9.86
-11.60
-13.44
-15.40
-17.47
-19.62
-21.78
-23.77
-25.34
-26.16
-25.97
-24.63
-22.18
-18.85
-14.93
-10.78
-6.63
-2.66
1.06
4.50
7.60
10.32
12.62
14.52
16.06
17.33
18.37
19.13
19.49
19.26
18.26
16.40
13.73
10.47
6.88
3.30
-0.01
-2.86
-5.17
-6.93
-8.14
-8.81
-9.00
-8.76
-8.18
-7.36
-6.35
-5.21
-4.00
-2.83
-1.85
-1.22
-1.04
-1.38
-2.28
-3.80
-5.97
-8.66
-11.55
-14.01
-15.30
-14.80
-12.25
-7.86
-2.25
3.84
9.80
15.17
19.77
23.48
26.22
27.97
28.77
28.87
28.61
28.41
28.59
29.27
30.30
31.38
32.14
32.31
31.77
30.63
29.13
27.51
25.93
24.42
22.88
21.24
19.45
17.60
15.80
14.17
12.70
11.30
9.84
8.20
6.40
4.55
2.80
1.25
-0.14
-1.50
-3.04
-4.85
-6.92
-9.06
-11.09
-12.90
-14.53
-16.07
-17.59
-18.99
-20.05
-20.48
-20.04
-18.69
-16.64
-14.27
-11.99
-10.07
-8.58
-7.36
-6.19
-4.84
-3.26
-1.60
-0.15
0.82
1.18
1.01
0.55
0.08
-0.15
-0.05
0.34
0.95
1.71
2.58
3.49
4.41
5.22
5.80
6.05
5.94
5.54
4.97
4.35
3.71
3.01
2.07
0.72
-1.14
-3.46
-6.05
-8.66
-11.06
-13.14
-14.93
-16.51
-17.96
-19.28
-20.30
-20.81
-20.60
-19.53
-17.63
-15.04
-11.99
-8.78
-5.70
-3.01
-0.85
0.73
1.77
2.42
2.80
3.04
3.25
3.44
3.59
3.68
3.68
3.63
3.59
3.66
3.90
4.34
4.92
5.55
6.13
6.59
6.92
7.17
7.37
7.54
7.66
7.72
7.68
7.55
7.34
7.08
6.77
6.46
6.14
5.82
5.50
5.19
4.92
4.72
4.64
4.69
4.81
4.88
4.73
4.24
3.40
2.33
1.27
0.46
0.06
0.06
0.38
0.89
1.43
1.88
2.11
2.03
1.51
0.45
-1.13
-3.11
-5.23
-7.16
-8.62
-9.49
-9.81
-9.79
-9.72
-9.83
-10.27
-11.04
-12.01
-12.99
-13.78
-14.23
-14.23
-13.75
-12.86
-11.70
-10.48
-9.36
-8.45
-7.77
-7.26
-6.86
-6.56
-6.36
-6.28
-6.29
-6.32
-6.26
-6.01
-5.59
-5.10
-4.68
-4.37
-4.14
-3.84
-3.25
-2.19
-0.59
1.56
4.22
7.29
10.61
13.96
16.99
19.36
20.74
21.01
20.20
18.55
16.40
14.09
11.88
9.92
8.24
6.81
5.62
4.66
3.99
3.59
3.40
3.24
2.92
2.32
1.46
0.50
-0.35
-0.94
-1.31
-1.57
-1.95
-2.61
-3.56
-4.69
-5.83
-6.77
-7.43
-7.80
-7.97
-8.07
-8.25
-8.62
-9.21
-10.04
-11.03
-12.09
-13.07
-13.75
-13.93
-13.41
-12.12
-10.16
-7.80
-5.41
-3.32
-1.76
-0.79
-0.32
-0.21
-0.27
-0.37
-0.35
-0.06
0.62
1.73
3.18
4.72
6.08
7.05
7.60
7.81
7.88
7.95
8.05
8.07
7.83
7.18
6.09
4.67
3.09
1.56
0.25
-0.81
-1.69
-2.49
-3.30
-4.19
-5.14
-6.11
-7.07
-8.02
-8.98
-9.96
-10.91
-11.73
-12.26
-12.37
-11.96
-11.03
-9.71
-8.23
-6.86
-5.86
-5.35
-5.27
-5.43
-5.57
-5.48
-5.05
-4.33
-3.41
-2.40
-1.34
-0.22
1.00
2.34
3.72
5.07
6.29
7.37
8.33
9.20
9.94
10.44
10.56
10.18
9.30
8.06
6.67
5.34
4.16
3.15
2.20
1.22
0.11
-1.15
-2.50
-3.89
-5.24
-6.52
-7.73
-8.85
-9.85
-10.65
-11.10
-11.06
-10.42
-9.21
-7.55
-5.67
-3.85
-2.30
-1.16
-0.44
-0.06
0.10
0.15
0.19
0.26
0.40
0.61
0.87
1.16
1.45
1.74
2.02
2.37
2.79
3.31
3.83
4.25
4.42
4.26
3.79
3.10
2.33
1.57
0.86
0.18
-0.53
-1.28
-2.05
-2.79
-3.44
-3.96
-4.38
-4.74
-5.08
-5.43
-5.76
-6.03
-6.19
-6.19
-6.00
-5.61
-4.96
-4.03
-2.77
-1.25
0.42
2.06
3.47
4.60
5.46
6.10
6.50
6.54
6.08
5.04
3.56
1.94
0.56
-0.34
-0.73
-0.78
-0.71
-0.65
-0.58
-0.45
-0.21
0.03
0.07
-0.28
-1.11
-2.28
-3.57
-4.64
-5.25
-5.30
-4.86
-4.13
-3.29
-2.53
-1.88
-1.39
-1.07
-0.96
-1.16
-1.74
-2.67
-3.79
-4.84
-5.53
-5.69
-5.33
-4.56
-3.56
-2.48
-1.36
-0.17
1.12
2.47
3.80
5.00
5.95
6.55
6.78
6.62
6.09
5.29
4.36
3.50
2.90
2.64
2.63
2.72
2.74
2.61
2.42
2.28
2.32
2.51
2.71
2.75
2.51
2.01
1.38
0.83
0.50
0.42
0.57
0.86
1.24
1.66
2.03
2.24
2.21
1.88
1.23
0.37
-0.63
-1.69
-2.77
-3.84
-4.86
-5.71
-6.27
-6.41
-6.11
-5.41
-4.44
-3.33
-2.25
-1.29
-0.56
-0.09
0.11
0.10
-0.03
-0.18
-0.26
-0.22
0.02
0.52
1.33
2.49
3.94
5.52
7.04
8.29
9.14
9.54
9.49
9.03
8.24
7.20
6.02
4.81
3.65
2.58
1.63
0.80
0.09
-0.46
-0.88
-1.21
-1.56
-1.99
-2.52
-3.13
-3.73
-4.31
-4.89
-5.55
-6.32
-7.10
-7.70
-7.90
-7.60
-6.86
-5.86
-4.86
-3.99
-3.27
-2.63
-2.03
-1.47
-1.03
-0.75
-0.62
-0.49
-0.20
0.34
1.08
1.87
2.53
2.96
3.18
3.31
3.47
3.72
4.00
4.14
3.99
3.43
2.52
1.38
0.23
-0.76
-1.51
-2.07
-2.50
-2.86
-3.16
-3.34
-3.36
-3.21
-2.99
-2.82
-2.85
-3.15
-3.71
-4.43
-5.17
-5.80
-6.19
-6.33
-6.23
-5.93
-5.52
-5.03
-4.43
-3.64
-2.60
-1.30
0.15
1.56
2.72
3.48
3.81
3.87
3.85
3.98
4.35
4.94
5.64
6.31
6.83
7.16
7.30
7.30
7.22
7.08
6.89
6.69
6.49
6.28
6.04
5.73
5.28
4.67
3.90
3.06
2.26
1.64
1.25
1.01
0.81
0.54
0.17
-0.22
-0.56
-0.84
-1.21
-1.88
-3.09
-4.89
-7.14
-9.49
-11.52
-12.88
-13.42
-13.18
-12.32
-11.06
-9.57
-7.96
-6.36
-4.85
-3.50
-2.37
-1.44
-0.65
0.08
0.81
1.53
2.22
2.89
3.63
4.54
5.73
7.19
8.82
10.41
11.80
12.89
13.70
14.30
14.74
14.99
14.97
14.56
13.77
12.72
11.65
10.79
10.26
10.02
9.93
9.81
9.54
9.08
8.47
7.69
6.69
5.39
3.78
1.96
0.16
-1.40
-2.57
-3.39
-4.03
-4.67
-5.38
-6.12
-6.76
-7.17
-7.38
-7.48
-7.65
-7.96
-8.38
-8.77
-8.96
-8.89
-8.65
-8.35
-8.15
-8.03
-7.91
-7.61
-7.00
-6.06
-4.86
-3.58
-2.40
-1.48
-0.90
-0.62
-0.54
-0.47
-0.28
0.12
0.66
1.20
1.59
1.71
1.54
1.08
0.30
-0.81
-2.28
-4.05
-5.94
-7.74
-9.34
-10.76
-12.14
-13.65
-15.40
-17.32
-19.22
-20.87
-22.10
-22.87
-23.28
-23.49
-23.73
-24.15
-24.89
-25.94
-27.25
-28.71
-30.26
-31.89
-33.61
-35.38
-37.12
-38.64
-39.67
-39.97
-39.40
-37.88
-35.39
-31.93
-27.50
-22.09
-15.71
-8.43
-0.47
7.80
15.93
23.43
29.89
35.13
39.13
41.99
43.86
44.82
44.86
43.95
42.13
39.57
36.49
33.15
29.72
26.38
23.18
20.19
17.48
15.11
13.12
11.59
10.54
9.97
9.83
9.98
10.25
10.52
10.71
10.85
10.96
11.06
11.06
10.81
10.19
9.18
7.91
6.63
5.60
4.99
4.79
4.90
5.12
5.31
5.40
5.37
5.27
5.07
4.74
4.26
3.63
2.93
2.27
1.76
1.44
1.27
1.14
0.94
0.57
-0.01
-0.81
-1.73
-2.73
-3.71
-4.60
-5.31
-5.81
-6.08
-6.22
-6.34
-6.60
-7.07
-7.74
-8.43
-8.91
-8.96
-8.45
-7.42
-6.01
-4.44
-2.93
-1.61
-0.54
0.31
0.98
1.54
2.01
2.35
2.52
2.49
2.33
2.18
2.21
2.54
3.17
4.00
4.85
5.64
6.31
6.89
7.40
7.82
8.08
8.12
7.93
7.51
6.96
6.34
5.75
5.25
4.87
4.63
4.46
4.26
3.94
3.41
2.67
1.78
0.81
-0.16
-1.07
-1.93
-2.76
-3.60
-4.49
-5.47
-6.49
-7.45
-8.18
-8.50
-8.26
-7.41
-6.03
-4.29
-2.44
-0.69
0.78
1.88
2.61
3.00
3.14
3.10
2.93
2.71
2.54
2.52
2.74
3.23
3.92
4.69
5.37
5.83
6.02
5.96
5.69
5.34
4.94
4.57
4.24
3.95
3.67
3.35
2.92
2.37
1.71
1.00
0.29
-0.43
-1.19
-2.05
-3.02
-4.03
-4.98
-5.73
-6.19
-6.40
-6.47
-6.57
-6.86
-7.43
-8.23
-9.17
-10.01
-10.55
-10.59
-10.08
-9.07
-7.66
-6.01
-4.24
-2.48
-0.85
0.52
1.52
2.11
2.35
2.40
2.44
2.64
3.02
3.51
3.97
4.25
4.32
4.26
4.23
4.38
4.77
5.34
5.92
6.36
6.60
6.68
6.68
6.62
6.42
5.94
5.10
3.96
2.72
1.68
1.02
0.74
0.68
0.59
0.24
-0.45
-1.44
-2.59
-3.71
-4.62
-5.24
-5.54
-5.64
-5.71
-5.98
-6.60
-7.59
-8.74
-9.75
-10.27
-10.08
-9.15
-7.65
-5.83
-3.94
-2.15
-0.55
0.78
1.75
2.34
2.54
2.50
2.40
2.42
2.63
3.00
3.44
3.88
4.33
4.84
5.42
6.03
6.62
7.10
7.46
7.69
7.78
7.68
7.32
6.66
5.72
4.58
3.38
2.22
1.18
0.26
-0.58
-1.42
-2.30
-3.23
-4.14
-4.93
-5.52
-5.84
-5.91
-5.82
-5.72
-5.77
-6.08
-6.72
-7.63
-8.66
-9.60
-10.19
-10.28
-9.80
-8.85
-7.60
-6.25
-4.95
-3.77
-2.71
-1.77
-0.97
-0.43
-0.26
-0.52
-1.16
-1.97
-2.65
-2.89
-2.55
-1.65
-0.42
0.86
1.96
2.80
3.42
3.93
4.42
4.91
5.42
5.89
6.31
6.71
7.03
7.20
7.12
6.71
5.98
5.08
4.16
3.39
2.79
2.28
1.71
0.96
-0.01
-1.14
-2.30
-3.36
-4.24
-4.92
-5.51
-6.13
-6.89
-7.84
-8.90
-9.83
-10.33
-10.18
-9.27
-7.73
-5.84
-3.91
-2.23
-0.94
-0.03
0.57
0.96
1.23
1.42
1.57
1.76
2.07
2.59
3.31
4.14
4.90
5.38
5.46
5.17
4.68
4.17
3.81
3.57
3.36
3.03
2.50
1.83
1.12
0.52
0.06
-0.28
-0.59
-0.97
-1.45
-2.00
-2.56
-3.06
-3.46
-3.78
-4.08
-4.42
-4.84
-5.32
-5.82
-6.24
-6.52
-6.65
-6.70
-6.75
-6.86
-6.98
-6.97
-6.67
-5.96
-4.86
-3.49
-2.05
-0.71
0.43
1.37
2.09
2.60
2.86
2.85
2.64
2.39
2.29
2.51
3.06
3.81
4.57
5.16
5.49
5.61
5.61
5.59
5.56
5.49
5.31
4.99
4.55
4.02
3.45
2.88
2.31
1.70
1.01
0.25
-0.58
-1.44
-2.26
-3.02
-3.65
-4.20
-4.69
-5.18
-5.71
-6.25
-6.78
-7.23
-7.62
-8.02
-8.55
-9.28
-10.18
-11.04
-11.59
-11.54
-10.73
-9.20
-7.17
-4.97
-2.98
-1.50
-0.68
-0.47
-0.71
-1.12
-1.47
-1.63
-1.59
-1.44
-1.26
-1.07
-0.80
-0.38
0.23
0.99
1.78
2.53
3.18
3.81
4.47
5.20
5.90
6.40
6.57
6.33
5.79
5.14
4.58
4.22
4.01
3.83
3.51
2.99
2.28
1.47
0.63
-0.21
-1.04
-1.89
-2.72
-3.47
-4.12
-4.69
-5.29
-6.08
-7.12
-8.33
-9.46
-10.22
-10.32
-9.69
-8.41
-6.69
-4.79
-2.93
-1.24
0.20
1.36
2.25
2.89
3.31
3.56
3.72
3.85
4.09
4.55
5.31
6.33
7.44
8.32
8.63
8.16
6.87
4.93
2.70
0.50
-1.43
-2.94
-4.03
-4.73
-5.17
-5.54
-6.14
-7.33
-9.42
-12.45
-16.17
-20.01
-23.31
-25.47
-26.18
-25.45
-23.54
-20.83
-17.72
-14.56
-11.58
-8.88
-6.50
-4.37
-2.35
-0.24
2.16
5.01
8.25
11.71
15.03
17.86
19.94
21.27
22.05
22.52
22.78
22.76
22.21
20.92
18.86
16.23
13.42
10.78
8.54
6.76
5.39
4.36
3.65
3.29
3.20
3.29
3.33
3.13
2.59
1.72
0.72
-0.21
-0.82
-1.03
-0.87
-0.52
-0.25
-0.27
-0.67
-1.36
-2.13
-2.70
-2.87
-2.63
-2.10
-1.50
-1.05
-0.87
-0.95
-1.12
-1.16
-0.83
0.02
1.42
3.26
5.31
7.33
9.07
10.41
11.37
12.05
12.67
13.46
14.56
16.02
17.69
19.38
20.93
22.38
24.01
26.37
30.14
35.85
43.67
53.14
63.15
72.18
78.73
81.81
81.30
77.84
72.59
66.66
60.75
55.03
49.40
43.70
37.99
32.46
27.24
22.24
17.16
11.65
5.58
-0.84
-7.13
-12.71
-17.16
-20.37
-22.49
-23.84
-24.73
-25.39
-25.89
-26.20
-26.20
-25.73
-24.71
-23.19
-21.35
-19.51
-17.98
-16.98
-16.58
-16.68
-17.17
-17.96
-19.06
-20.50
-22.21
-23.96
-25.35
-25.95
-25.42
-23.70
-21.00
-17.73
-14.41
-11.50
-9.28
-7.88
-7.25
-7.23
-7.63
-8.27
-9.07
-9.96
-10.93
-11.98
-13.09
-14.25
-15.38
-16.34
-16.95
-16.92
-16.09
-14.42
-12.09
-9.48
-6.97
-4.84
-3.15
-1.78
-0.48
0.85
2.20
3.32
3.86
3.50
2.03
-0.57
-4.10
-8.22
-12.50
-16.50
-19.81
-22.14
-23.28
-23.24
-22.17
-20.39
-18.30
-16.30
-14.70
-13.63
-13.08
-12.90
-12.94
-13.05
-13.23
-13.54
-14.18
-15.32
-17.08
-19.40
-22.07
-24.81
-27.32
-29.36
-30.75
-31.35
-31.06
-29.91
-28.12
-26.14
-24.62
-24.24
-25.45
-28.30
-32.36
-36.93
-41.24
-44.74
-47.26
-49.01
-50.36
-51.63
-53.01
-54.45
-55.77
-56.73
-57.10
-56.67
-55.27
-52.76
-49.07
-44.20
-38.29
-31.51
-24.08
-16.17
-7.85
0.95
10.25
19.99
29.87
39.37
47.83
54.60
59.21
61.52
61.67
60.06
57.20
53.53
49.39
44.90
40.07
34.86
29.28
23.50
17.85
12.75
8.56
5.42
3.17
1.37
-0.59
-3.26
-6.97
-11.56
-16.45
-20.70
-23.34
-23.75
-21.89
-18.40
-14.41
-11.27
-10.23
-12.09
-17.13
-24.97
-34.67
-44.77
-53.54
-59.33
-60.85
-57.50
-49.49
-37.82
-24.06
-10.05
2.48
12.27
18.77
22.16
23.25
23.13
22.85
23.08
24.01
25.41
26.76
27.58
27.65
27.18
26.73
26.98
28.46
31.20
34.65
37.80
39.53
39.03
36.11
31.29
25.67
20.52
16.92
15.41
15.94
17.93
20.54
22.90
24.32
24.38
22.94
20.18
16.55
12.67
9.19
6.59
5.00
4.19
3.70
2.94
1.50
-0.76
-3.64
-6.69
-9.28
-10.88
-11.16
-10.15
-8.17
-5.73
-3.21
-0.60
2.54
6.88
12.92
20.65
29.36
37.88
44.96
49.73
51.98
52.14
51.06
49.68
48.68
48.37
48.56
48.73
48.34
47.03
44.99
42.83
41.37
41.15
41.98
42.80
41.86
37.43
28.50
15.45
0.16
-14.41
-25.15
-29.91
-28.30
-21.97
-14.19
-8.75
-8.81
-15.70
-28.61
-44.71
-60.17
-71.34
-75.96
-73.95
-67.36
-59.56
-54.00
-53.09
-57.58
-66.63
-78.44
-90.76
-101.22
-107.48
-107.36
-99.39
-83.48
-61.42
-36.80
-13.96
3.41
13.54
17.03
16.22
14.05
12.87
13.76
16.54
20.20
23.59
25.80
26.44
25.63
23.74
21.23
18.41
15.44
12.26
8.84
5.19
1.44
-2.24
-5.73
-9.07
-12.38
-15.71
-18.92
-21.68
-23.66
-24.72
-25.06
-25.24
-25.89
-27.51
-30.15
-33.47
-36.78
-39.39
-40.82
-40.91
-39.83
-37.98
-35.81
-33.68
-31.73
-29.80
-27.42
-23.91
-18.61
-11.14
-1.62
9.31
20.63
31.24
40.34
47.55
52.85
56.45
58.46
58.82
57.38
54.10
49.23
43.35
37.21
31.45
26.40
22.14
18.69
16.37
15.85
17.94
23.08
30.83
39.82
48.18
54.38
57.92
59.58
60.92
63.29
66.98
70.78
72.57
70.31
63.07
51.50
37.48
23.28
10.69
0.64
-6.60
-10.93
-12.13
-9.92
-4.47
3.28
11.48
18.00
21.11
20.14
15.54
8.53
0.55
-7.16
-13.70
-18.46
-21.23
-22.28
-22.54
-23.33
-26.01
-31.24
-38.70
-47.19
-55.18
-61.41
-65.18
-66.22
-64.46
-59.89
-52.65
-43.30
-32.87
-22.50
-12.97
-4.33
3.98
12.58
21.56
30.34
37.91
43.49
46.99
49.07
50.62
52.29
54.10
55.48
55.72
54.29
51.14
46.54
40.93
34.60
27.78
20.59
13.28
6.22
-0.13
-5.29
-9.02
-11.39
-12.81
-13.90
-15.27
-17.27
-19.83
-22.53
-24.76
-26.02
-26.09
-25.13
-23.61
-22.10
-21.16
-21.12
-22.10
-23.91
-26.15
-28.24
-29.64
-30.04
-29.46
-28.19
-26.58
-24.83
-22.82
-20.25
-16.87
-12.73
-8.34
-4.43
-1.72
-0.57
-0.76
-1.70
-2.64
-3.03
-2.76
-2.14
-1.85
-2.62
-5.07
-9.35
-14.89
-20.13
-22.58
-19.28
-7.86
12.37
39.62
69.72
97.17
116.80
125.35
122.30
109.70
91.06
70.16
50.12
32.94
19.68
10.71
5.84
4.46
5.44
7.39
8.79
8.44
5.78
1.04
-4.79
-10.33
-14.24
-15.78
-14.95
-12.55
-9.71
-7.50
-6.49
-6.66
-7.54
-8.56
-9.30
-9.70
-9.93
-10.25
-10.86
-11.77
-12.86
-14.02
-15.12
-16.10
-16.94
-17.62
-18.08
-18.29
-18.25
-18.04
-17.79
-17.70
-17.89
-18.38
-19.02
-19.59
-19.85
-19.64
-18.98
-18.01
-16.88
-15.75
-14.72
-13.85
-13.18
-12.70
-12.43
-12.30
-12.24
-12.19
-12.07
-11.92
-11.75
-11.61
-11.55
-11.59
-11.78
-12.15
-12.75
-13.67
-14.94
-16.62
-18.72
-21.19
-23.88
-26.61
-29.18
-31.46
-33.30
-34.56
-35.02
-34.37
-32.32
-28.71
-23.56
-17.14
-9.82
-2.03
5.84
13.44
20.43
26.53
31.53
35.27
37.76
39.07
39.33
38.75
37.55
35.98
34.28
32.65
31.16
29.76
28.34
26.76
24.98
23.02
21.02
19.09
17.37
15.94
14.82
14.02
13.48
13.15
12.88
12.54
12.01
11.25
10.32
9.37
8.60
8.20
8.29
8.81
9.60
10.34
10.74
10.54
9.68
8.29
6.63
4.96
3.49
2.22
1.01
-0.32
-1.84
-3.47
-4.98
-6.14
-6.72
-6.70
-6.09
-4.99
-3.50
-1.78
-0.15
1.00
1.24
0.34
-1.62
-4.25
-6.96
-9.20
-10.63
-11.26
-11.29
-11.02
-10.63
-10.12
-9.33
-8.13
-6.49
-4.54
-2.53
-0.70
0.82
2.00
2.92
3.69
4.36
4.87
5.17
5.15
4.79
4.10
3.20
2.27
1.47
0.93
0.62
0.41
0.09
-0.53
-1.55
-2.92
-4.50
-6.12
-7.62
-8.98
-10.19
-11.26
-12.14
-12.79
-13.13
-13.09
-12.61
-11.60
-9.96
-7.63
-4.64
-1.15
2.64
6.52
10.32
13.94
17.25
20.11
22.36
23.90
24.69
24.81
24.34
23.34
21.83
19.84
17.47
14.91
12.36
9.99
7.86
6.01
4.46
3.27
2.52
2.23
2.28
2.37
2.17
1.38
-0.11
-2.24
-4.81
-7.53
-10.13
-12.40
-14.17
-15.33
-15.83
-15.71
-15.05
-14.01
-12.76
-11.44
-10.11
-8.76
-7.33
-5.80
-4.18
-2.54
-0.99
0.36
1.44
2.22
2.70
2.94
2.99
2.95
2.89
2.86
2.90
2.99
3.09
3.14
3.04
2.74
2.25
1.59
0.90
0.34
0.01
-0.07
0.04
0.21
0.33
0.39
0.48
0.72
1.19
1.82
2.45
2.81
2.72
2.11
1.10
-0.03
-0.96
-1.33
-0.91
0.39
2.54
5.32
8.37
11.19
13.24
14.02
13.25
11.05
7.87
4.39
1.29
-0.95
-2.17
-2.43
-1.89
-0.65
1.28
3.88
6.96
10.10
12.65
13.97
13.76
12.23
10.07
8.20
7.38
7.86
9.33
11.06
12.32
12.62
11.96
10.67
9.16
7.68
6.18
4.45
2.26
-0.37
-3.20
-5.81
-7.85
-9.21
-10.08
-10.88
-12.04
-13.84
-16.31
-19.19
-22.17
-24.95
-27.41
-29.57
-31.54
-33.44
-35.26
-36.92
-38.28
-39.23
-39.78
-40.08
-40.36
-40.79
-41.48
-42.37
-43.28
-44.00
-44.25
-43.83
-42.51
-40.11
-36.47
-31.52
-25.32
-18.10
-10.23
-2.15
5.74
13.18
20.01
26.12
31.37
35.59
38.54
40.10
40.33
39.52
38.03
36.22
34.30
32.22
29.89
27.19
24.23
21.21
18.37
15.87
13.64
11.49
9.25
6.84
4.37
2.07
0.12
-1.42
-2.65
-3.75
-4.88
-6.04
-7.04
-7.60
-7.46
-6.48
-4.75
-2.56
-0.25
1.81
3.41
4.50
5.18
5.63
6.01
6.42
6.88
7.37
7.85
8.31
8.75
9.16
9.53
9.76
9.83
9.76
9.64
9.57
9.56
9.56
9.46
9.19
8.74
8.15
7.51
6.85
6.17
5.47
4.73
3.97
3.22
2.46
1.65
0.72
-0.33
-1.50
-2.73
-3.99
-5.27
-6.55
-7.84
-9.09
-10.21
-11.12
-11.71
-11.85
-11.46
-10.50
-9.06
-7.34
-5.61
-4.08
-2.81
-1.71
-0.61
0.60
1.82
2.80
3.27
3.12
2.46
1.62
0.93
0.59
0.59
0.80
1.06
1.31
1.55
1.84
2.16
2.42
2.51
2.39
2.07
1.65
1.22
0.77
0.23
-0.43
-1.19
-1.91
-2.39
-2.49
-2.15
-1.45
-0.58
0.21
0.70
0.66
-0.09
-1.62
-3.86
-6.50
-9.06
-10.91
-11.55
-10.71
-8.51
-5.30
-1.60
2.12
5.51
8.39
10.60
12.05
12.66
12.41
11.47
10.13
8.79
7.80
7.35
7.44
7.86
8.33
8.54
8.33
7.68
6.74
5.78
5.06
4.70
4.67
4.77
4.78
4.52
3.99
3.32
2.77
2.62
3.07
4.21
5.89
7.75
9.28
9.94
9.35
7.45
4.58
1.33
-1.60
-3.72
-4.86
-5.24
-5.37
-5.80
-7.01
-9.18
-12.17
-15.50
-18.47
-20.35
-20.57
-18.99
-16.00
-12.42
-9.17
-6.93
-5.85
-5.49
-5.10
-3.90
-1.41
2.45
7.37
12.92
18.59
23.97
28.64
32.28
34.62
35.57
35.26
33.94
31.95
29.59
27.08
24.51
21.92
19.30
16.68
14.17
12.04
10.55
9.84
9.68
9.35
7.83
4.06
-2.55
-11.82
-22.81
-34.02
-43.94
-51.44
-55.99
-57.68
-56.99
-54.57
-51.04
-46.94
-42.74
-38.78
-35.26
-32.25
-29.65
-27.31
-25.07
-22.84
-20.59
-18.27
-15.79
-13.01
-9.80
-6.05
-1.77
3.00
8.13
13.43
18.68
23.59
27.85
31.18
33.46
34.71
35.16
35.11
34.81
34.36
33.68
32.54
30.71
28.06
24.63
20.67
16.56
12.67
9.32
6.61
4.50
2.85
1.52
0.39
-0.59
-1.46
-2.26
-2.99
-3.66
-4.25
-4.74
-5.10
-5.35
-5.54
-5.74
-6.00
-6.36
-6.84
-7.45
-8.18
-8.99
-9.79
-10.46
-10.90
-11.07
-11.01
-10.79
-10.44
-9.94
-9.19
-8.06
-6.54
-4.69
-2.72
-0.85
0.73
1.95
2.89
3.69
4.48
5.32
6.14
6.85
7.31
7.51
7.50
7.38
7.25
7.12
6.94
6.61
6.10
5.43
4.64
3.79
2.87
1.85
0.70
-0.56
-1.86
-3.07
-4.06
-4.73
-5.09
-5.18
-5.11
-5.00
-4.92
-4.92
-4.98
-5.11
-5.25
-5.41
-5.57
-5.71
-5.82
-5.90
-5.94
-5.95
-5.96
-5.98
-6.02
-6.01
-5.89
-5.53
-4.85
-3.85
-2.59
-1.23
0.07
1.21
2.14
2.90
3.55
4.15
4.71
5.21
5.63
5.96
6.21
6.37
6.41
6.31
6.08
5.79
5.49
5.22
4.95
4.62
4.16
3.58
2.89
2.12
1.29
0.40
-0.54
-1.45
-2.25
-2.86
-3.28
-3.59
-3.90
-4.28
-4.68
-4.99
-5.08
-4.90
-4.54
-4.19
-4.05
-4.25
-4.74
-5.40
-6.04
-6.51
-6.76
-6.83
-6.83
-6.82
-6.84
-6.82
-6.66
-6.24
-5.48
-4.42
-3.17
-1.98
-1.08
-0.62
-0.55
-0.66
-0.66
-0.27
0.59
1.86
3.33
4.77
6.01
6.97
7.66
8.11
8.38
8.46
8.38
8.19
7.90
7.55
7.17
6.73
6.20
5.55
4.76
3.83
2.82
1.83
1.00
0.43
0.13
0.03
-0.03
-0.25
-0.71
-1.45
-2.38
-3.38
-4.32
-5.11
-5.69
-6.01
-6.07
-5.88
-5.59
-5.35
-5.35
-5.72
-6.42
-7.25
-7.97
-8.33
-8.21
-7.69
-6.97
-6.31
-5.91
-5.84
-6.02
-6.29
-6.48
-6.44
-6.11
-5.45
-4.45
-3.16
-1.74
-0.46
0.33
0.39
-0.32
-1.58
-2.96
-4.02
-4.51
-4.42
-3.99
-3.49
-3.07
-2.72
-2.31
-1.74
-1.04
-0.36
0.15
0.41
0.46
0.46
0.51
0.60
0.59
0.29
-0.44
-1.59
-2.95
-4.22
-5.15
-5.65
-5.81
-5.89
-6.18
-6.89
-8.03
-9.46
-10.89
-12.08
-12.89
-13.35
-13.66
-14.08
-14.81
-15.98
-17.50
-19.22
-20.87
-22.20
-23.02
-23.26
-23.04
-22.54
-21.94
-21.27
-20.33
-18.79
-16.30
-12.68
-7.96
-2.40
3.62
9.66
15.34
20.32
24.42
27.59
30.10
32.35
34.82
37.73
40.93
43.87
45.81
46.18
44.78
41.87
37.96
33.56
28.94
24.16
19.12
13.80
8.35
3.08
-1.65
-5.61
-8.69
-10.89
-12.25
-12.80
-12.56
-11.63
-10.27
-8.87
-7.84
-7.44
-7.67
-8.24
-8.75
-8.85
-8.46
-7.70
-6.81
-5.90
-4.86
-3.40
-1.23
1.67
5.02
8.32
11.13
13.26
14.82
16.05
17.09
17.76
17.78
16.85
15.00
12.61
10.27
8.59
8.02
8.77
10.82
13.86
17.40
20.69
23.00
23.87
23.34
22.06
20.91
20.62
21.32
22.48
23.33
23.26
22.22
20.69
19.26
18.24
17.37
16.02
13.53
9.65
4.65
-0.81
-6.10
-10.89
-15.24
-19.45
-23.74
-28.12
-32.28
-35.82
-38.40
-39.88
-40.36
-40.10
-39.44
-38.61
-37.80
-37.04
-36.29
-35.47
-34.49
-33.36
-32.16
-31.06
-30.18
-29.64
-29.41
-29.36
-29.34
-29.14
-28.67
-27.86
-26.72
-25.24
-23.48
-21.52
-19.51
-17.67
-16.17
-15.06
-14.20
-13.18
-11.55
-9.02
-5.62
-1.75
1.95
4.90
6.74
7.51
7.52
7.27
7.33
8.22
10.35
13.97
19.07
25.31
32.10
38.62
44.03
47.59
48.86
47.67
44.26
39.19
33.29
27.41
22.21
17.89
14.24
10.76
7.02
2.96
-1.05
-4.36
-6.40
-6.93
-6.20
-4.77
-3.25
-2.07
-1.35
-1.00
-0.84
-0.74
-0.66
-0.65
-0.71
-0.80
-0.77
-0.50
0.08
0.89
1.69
2.23
2.24
1.66
0.57
-0.78
-2.13
-3.28
-4.21
-5.04
-5.91
-6.88
-7.85
-8.61
-8.91
-8.64
-7.87
-6.85
-5.91
-5.30
-5.18
-5.52
-6.20
-7.02
-7.79
-8.37
-8.60
-8.39
-7.74
-6.72
-5.50
-4.26
-3.16
-2.25
-1.46
-0.67
0.23
1.27
2.34
3.26
3.83
3.94
3.64
3.10
2.57
2.19
2.04
2.06
2.17
2.30
2.42
2.52
2.56
2.49
2.25
1.84
1.34
0.89
0.59
0.47
0.47
0.45
0.29
-0.08
-0.69
-1.50
-2.45
-3.47
-4.49
-5.40
-6.11
-6.56
-6.77
-6.86
-6.99
-7.25
-7.65
-8.09
-8.38
-8.35
-7.91
-7.13
-6.18
-5.24
-4.46
-3.89
-3.49
-3.19
-2.91
-2.63
-2.38
-2.18
-2.01
-1.81
-1.49
-0.97
-0.24
0.62
1.48
2.21
2.73
2.96
2.88
2.52
1.93
1.27
0.70
0.49
0.84
1.96
3.90
6.63
9.98
13.62
17.15
20.16
22.33
23.52
23.74
23.05
21.54
19.32
16.50
13.32
10.10
7.19
4.86
3.19
2.09
1.34
0.72
0.12
-0.45
-0.90
-1.14
-1.13
-0.93
-0.64
-0.38
-0.22
-0.15
-0.11
-0.05
0.08
0.28
0.55
0.84
1.10
1.28
1.33
1.27
1.16
1.09
1.14
1.33
1.55
1.68
1.61
1.37
1.03
0.74
0.55
0.46
0.39
0.29
0.25
0.50
1.30
2.81
4.93
7.35
9.64
11.46
12.70
13.46
14.03
14.66
15.47
16.43
17.39
18.19
18.71
18.89
18.73
18.27
17.61
16.91
16.38
16.22
16.48
16.99
17.30
16.80
14.87
11.22
5.98
-0.30
-6.80
-12.69
-17.35
-20.52
-22.33
-23.21
-23.79
-24.66
-26.28
-28.81
-32.09
-35.85
-39.85
-44.14
-48.99
-54.68
-61.15
-67.87
-73.93
-78.40
-80.70
-80.78
-79.01
-75.84
-71.58
-66.27
-59.94
-52.86
-45.75
-39.57
-34.99
-31.97
-29.51
-26.00
-19.94
-10.65
1.41
14.73
27.42
37.87
45.18
49.31
50.86
50.70
49.74
48.64
47.71
46.96
46.14
44.97
43.34
41.34
39.25
37.26
35.41
33.57
31.60
29.46
27.24
25.03
22.81
20.40
17.71
14.81
12.08
10.04
9.07
9.28
10.37
11.85
13.18
13.97
14.09
13.62
12.86
12.16
11.85
12.10
12.88
14.01
15.22
16.24
16.86
16.92
16.31
14.90
12.73
9.95
6.87
3.84
1.20
-0.78
-1.76
-1.24
1.35
6.56
14.51
24.81
36.43
48.05
58.26
65.95
70.31
70.82
67.20
59.44
47.95
33.64
17.89
2.32
-11.63
-23.00
-31.48
-37.31
-40.99
-43.02
-43.76
-43.38
-42.06
-40.02
-37.65
-35.30
-33.21
-31.39
-29.66
-27.78
-25.70
-23.57
-21.75
-20.58
-20.17
-20.30
-20.51
-20.24
-19.12
-17.11
-14.51
-11.84
-9.62
-8.20
-7.61
-7.62
-7.77
-7.59
-6.84
-5.54
-4.07
-2.91
-2.47
-2.84
-3.72
-4.58
-4.86
-4.31
-3.11
-1.73
-0.83
-0.85
-1.89
-3.69
-5.74
-7.42
-8.29
-8.34
-8.23
-9.38
-13.79
-23.25
-38.43
-58.02
-78.62
-95.33
-103.30
-99.16
-82.08
-53.93
-18.60
19.11
54.65
84.42
106.22
119.24
123.95
121.72
114.36
103.65
91.08
77.70
64.29
51.44
39.65
29.26
20.34
12.82
6.49
1.32
-2.52
-4.69
-4.95
-3.33
-0.33
3.18
6.24
8.18
8.82
8.50
7.84
7.44
7.59
8.15
8.69
8.75
8.05
6.70
5.05
3.55
2.50
1.87
1.26
0.03
-2.60
-7.33
-14.62
-24.53
-36.57
-49.72
-62.64
-73.95
-82.72
-88.75
-92.52
-94.95
-96.89
-98.79
-100.56
-101.74
-101.84
-100.58
-98.01
-94.33
-89.71
-84.21
-77.74
-70.22
-61.71
-52.43
-42.71
-32.87
-23.14
-13.61
-4.36
4.45
12.55
19.50
24.91
28.50
30.30
30.73
30.54
30.79
32.66
37.16
44.84
55.53
68.28
81.58
93.75
103.42
109.92
113.18
113.64
111.86
108.36
103.46
97.41
90.42
82.68
74.43
65.89
57.28
48.83
40.79
33.31
26.52
20.48
15.20
10.73
7.10
4.28
2.10
0.23
-1.66
-3.78
-6.16
-8.60
-10.81
-12.62
-13.95
-14.86
-15.54
-16.16
-16.91
-17.97
-19.44
-21.36
-23.67
-26.22
-28.86
-31.49
-34.04
-36.48
-38.71
-40.51
-41.61
-41.77
-40.90
-39.16
-36.89
-34.52
-32.40
-30.65
-29.18
-27.75
-26.15
-24.29
-22.30
-20.43
-18.94
-17.94
-17.38
-17.07
-16.83
-16.61
-16.41
-16.31
-16.29
-16.28
-16.14
-15.75
-15.05
-13.98
-12.50
-10.51
-7.89
-4.63
-0.77
3.48
7.86
12.11
16.07
19.67
22.95
26.02
29.00
31.99
35.02
38.07
41.00
43.61
45.68
47.03
47.57
47.28
46.22
44.45
42.00
38.92
35.26
31.18
26.88
22.60
18.48
14.53
10.62
6.60
2.39
-1.89
-5.93
-9.39
-12.00
-13.68
-14.56
-14.92
-15.08
-15.18
-15.26
-15.15
-14.69
-13.79
-12.53
-11.11
-9.81
-8.86
-8.34
-8.19
-8.23
-8.25
-8.06
-7.54
-6.73
-5.75
-4.86
-4.33
-4.34
-4.92
-5.87
-6.83
-7.37
-7.19
-6.20
-4.58
-2.70
-1.02
0.17
0.77
1.02
1.33
2.13
3.64
5.66
7.65
8.85
8.58
6.51
2.84
-1.77
-6.42
-10.27
-12.85
-14.24
-14.98
-15.86
-17.59
-20.47
-24.26
-28.23
-31.39
-32.71
-31.49
-27.50
-21.08
-13.11
-4.77
2.68
8.28
11.53
12.52
11.76
9.86
7.25
4.05
0.17
-4.45
-9.67
-15.04
-20.04
-24.23
-27.50
-30.10
-32.37
-34.60
-36.81
-38.76
-40.09
-40.60
-40.34
-39.61
-38.73
-37.89
-37.04
-35.91
-34.25
-31.99
-29.32
-26.58
-24.02
-21.61
-18.94
-15.42
-10.51
-4.06
3.62
11.83
19.78
26.90
32.99
38.22
42.84
46.96
50.33
52.48
52.93
51.53
48.59
44.90
41.48
39.29
38.98
40.75
44.23
48.54
52.40
54.36
53.16
48.12
39.33
27.73
14.77
2.16
-8.63
-16.55
-21.14
-22.47
-21.09
-17.90
-13.93
-10.19
-7.42
-5.94
-5.75
-6.59
-8.11
-10.03
-12.08
-13.97
-15.38
-15.97
-15.50
-13.87
-11.18
-7.65
-3.59
0.74
5.10
9.38
13.50
17.50
21.41
25.19
28.57
31.07
31.99
30.71
26.88
20.68
12.82
4.42
-3.38
-9.61
-13.83
-16.10
-16.89
-16.86
-16.59
-16.50
-16.72
-17.25
-17.97
-18.71
-19.31
-19.67
-19.70
-19.41
-18.88
-18.24
-17.65
-17.24
-17.02
-16.90
-16.68
-16.13
-15.04
-13.34
-11.09
-8.54
-5.97
-3.68
-1.84
-0.50
0.40
0.99
1.38
1.72
2.14
2.76
3.64
4.69
5.72
6.46
6.77
6.68
6.42
6.25
6.32
6.61
6.90
6.97
6.67
6.05
5.28
4.52
3.85
3.25
2.66
2.06
1.50
1.07
0.83
0.73
0.69
0.59
0.37
0.04
-0.29
-0.45
-0.29
0.32
1.36
2.75
4.33
5.96
7.61
9.30
11.12
13.08
15.06
16.84
18.20
19.01
19.38
19.56
19.85
20.47
21.43
22.55
23.59
24.33
24.67
24.62
24.26
23.68
22.95
22.15
21.38
20.76
20.40
20.39
20.74
21.38
22.22
23.22
24.41
25.93
27.98
30.62
33.80
37.24
40.57
43.49
46.01
48.46
51.39
55.31
60.28
65.89
71.33
75.81
78.94
80.86
82.12
83.26
84.42
85.13
84.34
80.72
72.82
59.15
38.24
8.89
-29.23
-74.82
-124.65
-173.94
-217.75
-252.57
-277.46
-294.07
-305.61
-315.23
-324.81
-334.52
-343.26
-349.46
-351.58
-348.17
-337.75
-318.74
-289.83
-250.71
-202.70
-149.02
-94.46
-44.47
-3.90
24.17
39.17
43.05
39.63
33.40
28.31
26.86
29.98
37.32
48.08
61.54
77.38
95.46
115.43
136.39
156.84
174.94
189.04
198.04
201.74
200.57
195.29
186.63
175.16
161.33
145.75
129.37
113.29
98.55
85.81
75.17
66.30
58.69
51.85
45.46
39.29
33.12
26.87
20.67
15.06
10.92
9.21
10.68
15.70
24.14
35.47
48.67
62.26
74.34
82.88
86.29
84.01
76.78
66.39
55.01
44.52
35.92
29.43
24.74
21.46
19.32
18.13
17.68
17.56
17.21
16.10
13.83
10.35
5.89
0.93
-3.99
-8.47
-12.31
-15.53
-18.24
-20.53
-22.35
-23.61
-24.17
-24.04
-23.35
-22.33
-21.20
-20.20
-19.46
-19.09
-19.12
-19.55
-20.24
-20.98
-21.41
-21.18
-20.02
-17.82
-14.77
-11.25
-7.80
-4.91
-2.85
-1.62
-1.00
-0.68
-0.47
-0.33
-0.32
-0.49
-0.78
-1.09
-1.33
-1.51
-1.74
-2.02
-2.17
-1.81
-0.67
1.11
2.73
2.89
0.27
-5.83
-15.15
-26.52
-38.30
-48.99
-57.69
-64.23
-68.91
-72.17
-74.26
-75.23
-75.01
-73.58
-71.01
-67.46
-63.13
-58.16
-52.64
-46.64
-40.17
-33.28
-25.99
-18.31
-10.26
-1.89
6.65
15.02
22.76
29.31
34.13
36.93
37.72
36.83
34.80
32.29
29.76
27.48
25.44
23.48
21.38
18.99
16.30
13.39
10.45
7.72
5.51
4.13
3.85
4.82
6.98
10.12
13.85
17.78
21.55
24.85
27.47
29.26
30.13
30.14
29.45
28.23
26.61
24.60
22.05
18.84
14.99
10.76
6.61
3.04
0.44
-1.00
-1.27
-0.55
0.95
2.95
5.07
6.88
7.96
7.98
6.87
4.88
2.41
-0.05
-2.20
-3.96
-5.47
-6.95
-8.50
-10.03
-11.24
-11.81
-11.54
-10.53
-9.12
-7.79
-6.86
-6.39
-6.20
-6.03
-5.72
-5.34
-5.03
-4.84
-4.58
-3.87
-2.38
-0.08
2.74
5.54
7.89
9.59
10.69
11.25
11.15
10.12
7.93
4.70
0.96
-2.54
-5.23
-7.05
-8.40
-9.92
-12.09
-14.89
-17.85
-20.33
-21.87
-22.42
-22.29
-21.93
-21.60
-21.24
-20.50
-18.95
-16.33
-12.70
-8.49
-4.32
-0.84
1.42
2.14
1.20
-1.32
-5.17
-9.88
-14.82
-19.29
-22.73
-24.82
-25.66
-25.57
-24.96
-24.01
-22.62
-20.45
-17.16
-12.71
-7.51
-2.38
1.79
4.33
5.10
4.47
3.14
1.80
0.79
0.04
-0.86
-2.41
-4.85
-8.08
-11.73
-15.28
-18.26
-20.40
-21.63
-21.95
-21.38
-19.97
-17.79
-14.98
-11.77
-8.37
-5.01
-1.84
1.04
3.54
5.60
7.23
8.55
9.76
11.03
12.40
13.63
14.39
14.30
13.29
11.61
9.84
8.65
8.46
9.35
11.09
13.35
15.87
18.59
21.49
24.48
27.21
29.26
30.29
30.37
29.98
29.87
30.70
32.67
35.43
38.18
40.03
40.34
38.97
36.26
32.80
29.20
25.86
22.89
20.13
17.32
14.27
10.95
7.54
4.40
1.88
0.19
-0.65
-0.87
-0.75
-0.53
-0.36
-0.21
-0.07
0.06
0.10
-0.02
-0.31
-0.65
-0.86
-0.75
-0.26
0.54
1.47
2.25
2.67
2.61
2.14
1.47
0.92
0.78
1.16
1.97
2.96
3.82
4.31
4.36
3.99
3.32
2.44
1.43
0.30
-0.91
-2.23
-3.68
-5.31
-7.18
-9.29
-11.59
-13.92
-16.10
-17.90
-19.15
-19.79
-19.83
-19.38
-18.58
-17.61
-16.57
-15.56
-14.54
-13.37
-11.83
-9.64
-6.60
-2.63
2.11
7.22
12.21
16.51
19.71
21.59
22.21
21.89
21.17
20.65
20.81
21.84
23.51
25.30
26.56
26.78
25.73
23.56
20.80
18.31
17.14
18.34
22.51
29.36
37.59
45.05
49.43
49.17
44.10
35.50
25.52
16.23
8.91
3.67
-0.13
-3.38
-6.70
-10.36
-14.40
-18.99
-24.49
-31.25
-39.29
-47.95
-55.95
-61.66
-63.74
-61.67
-55.98
-48.06
-39.60
-31.98
-25.82
-20.99
-16.85
-12.82
-8.64
-4.46
-0.70
2.31
4.48
6.00
7.17
8.17
9.01
9.54
9.57
8.99
7.87
6.41
4.92
3.67
2.85
2.56
2.76
3.32
4.08
4.88
5.52
5.83
5.66
4.93
3.63
1.86
-0.26
-2.53
-4.76
-6.74
-8.25
-9.07
-9.08
-8.33
-7.07
-5.66
-4.40
-3.46
-2.78
-2.20
-1.59
-0.89
-0.20
0.37
0.71
0.80
0.63
0.20
-0.48
-1.43
-2.60
-3.93
-5.26
-6.41
-7.18
-7.48
-7.27
-6.65
-5.83
-5.07
-4.58
-4.41
-4.51
-4.69
-4.79
-4.71
-4.48
-4.28
-4.29
-4.65
-5.38
-6.38
-7.48
-8.51
-9.38
-10.02
-10.42
-10.59
-10.46
-9.95
-9.03
-7.72
-6.18
-4.65
-3.31
-2.30
-1.60
-1.10
-0.59
0.06
0.93
1.98
3.08
4.08
4.88
5.46
5.90
6.31
6.76
7.24
7.64
7.88
7.89
7.68
7.35
6.99
6.65
6.35
6.02
5.63
5.14
4.54
3.87
3.13
2.35
1.50
0.57
-0.43
-1.40
-2.16
-2.42
-1.91
-0.53
1.57
4.03
6.36
8.21
9.48
10.37
11.25
12.41
13.94
15.67
17.34
18.73
19.78
20.53
21.05
21.30
21.16
20.47
19.20
17.45
15.41
13.21
10.87
8.32
5.49
2.45
-0.61
-3.39
-5.63
-7.23
-8.22
-8.75
-9.02
-9.18
-9.31
-9.43
-9.49
-9.40
-9.07
-8.48
-7.71
-6.88
-6.14
-5.57
-5.17
-4.84
-4.48
-4.07
-3.63
-3.23
-2.98
-2.95
-3.18
-3.64
-4.32
-5.15
-6.08
-7.06
-8.10
-9.18
-10.27
-11.30
-12.13
-12.65
-12.76
-12.50
-12.01
-11.51
-11.26
-11.46
-12.17
-13.28
-14.55
-15.55
-15.87
-15.14
-13.27
-10.40
-6.97
-3.54
-0.61
1.52
2.89
3.72
4.32
4.90
5.50
6.01
6.26
6.18
5.90
5.75
6.13
7.30
9.24
11.63
13.95
15.70
16.53
16.38
15.42
13.96
12.34
10.86
9.69
8.92
8.46
8.10
7.49
6.38
4.61
2.33
-0.18
-2.53
-4.41
-5.60
-6.01
-5.56
-4.26
-2.18
0.42
3.07
5.20
6.34
6.31
5.32
3.90
2.63
1.84
1.51
1.30
0.78
-0.30
-1.82
-3.39
-4.49
-4.72
-3.95
-2.33
-0.16
2.18
4.39
6.30
7.84
9.00
9.84
10.39
10.63
10.50
9.96
8.98
7.60
5.90
3.89
1.51
-1.33
-4.67
-8.34
-12.04
-15.30
-17.67
-18.92
-19.04
-18.32
-17.18
-16.04
-15.19
-14.67
-14.35
-13.96
-13.28
-12.18
-10.67
-8.89
-7.04
-5.29
-3.81
-2.69
-2.02
-1.73
-1.70
-1.71
-1.57
-1.21
-0.73
-0.34
-0.23
-0.44
-0.84
-1.22
-1.44
-1.48
-1.45
-1.47
-1.54
-1.50
-1.17
-0.48
0.38
1.04
1.12
0.44
-0.87
-2.39
-3.63
-4.28
-4.27
-3.78
-3.11
-2.63
-2.72
-3.68
-5.77
-8.95
-12.87
-16.88
-20.28
-22.63
-23.88
-24.39
-24.62
-24.79
-24.74
-24.02
-22.23
-19.31
-15.66
-12.00
-8.97
-6.94
-5.81
-5.20
-4.62
-3.76
-2.47
-0.74
1.40
3.94
6.80
9.78
12.59
15.01
17.12
19.40
22.54
27.18
33.45
40.86
48.36
54.72
58.92
60.45
59.37
56.20
51.63
46.30
40.63
34.81
28.81
22.53
15.94
9.19
2.56
-3.60
-9.00
-13.54
-17.21
-20.07
-22.08
-23.12
-23.11
-22.11
-20.46
-18.63
-17.11
-16.14
-15.64
-15.26
-14.60
-13.37
-11.59
-9.52
-7.56
-6.05
-5.14
-4.80
-4.83
-4.96
-4.94
-4.64
-4.01
-3.15
-2.23
-1.35
-0.58
0.15
0.91
1.71
2.49
3.06
3.20
2.82
1.96
0.82
-0.32
-1.18
-1.64
-1.71
-1.49
-1.16
-0.85
-0.66
-0.65
-0.84
-1.27
-1.93
-2.78
-3.74
-4.67
-5.44
-5.95
-6.18
-6.17
-6.04
-5.91
-5.92
-6.19
-6.75
-7.52
-8.32
-8.86
-8.90
-8.33
-7.22
-5.91
-4.75
-4.06
-3.88
-4.06
-4.24
-4.09
-3.46
-2.46
-1.37
-0.51
-0.07
-0.03
-0.15
-0.08
0.45
1.55
3.12
4.82
6.24
7.04
7.08
6.58
6.13
6.65
9.15
14.42
22.54
32.66
43.03
51.50
56.16
56.01
51.24
43.08
33.25
23.44
14.86
8.13
3.43
0.53
-1.02
-1.87
-2.78
-4.42
-7.19
-11.08
-15.75
-20.75
-25.68
-30.26
-34.27
-37.48
-39.55
-40.22
-39.38
-37.24
-34.30
-31.10
-28.04
-25.22
-22.50
-19.64
-16.53
-13.33
-10.38
-8.04
-6.54
-5.89
-5.87
-6.17
-6.46
-6.51
-6.23
-5.69
-4.96
-4.13
-3.18
-2.04
-0.56
1.37
3.73
6.41
9.11
11.50
13.24
14.11
14.06
13.20
11.80
10.16
8.47
6.77
4.97
2.94
0.59
-2.01
-4.65
-7.05
-8.92
-10.07
-10.44
-10.14
-9.38
-8.42
-7.53
-6.83
-6.31
-5.77
-4.98
-3.64
-1.56
1.28
4.66
8.11
10.99
12.70
13.01
12.19
11.05
10.67
11.99
15.38
20.50
26.34
31.63
35.24
36.56
35.55
32.68
28.68
24.32
20.30
17.22
15.55
15.57
17.26
20.13
23.21
25.22
24.93
21.56
15.11
6.34
-3.51
-13.15
-21.73
-29.01
-35.31
-41.25
-47.25
-53.32
-58.97
-63.37
-65.64
-65.16
-61.79
-55.91
-48.38
-40.32
-32.83
-26.62
-21.83
-18.00
-14.28
-9.81
-4.14
2.60
9.82
16.77
22.90
28.09
32.53
36.59
40.61
44.78
49.00
52.82
55.38
55.39
51.46
42.61
28.79
11.14
-8.15
-26.46
-41.48
-51.75
-56.88
-57.44
-54.59
-49.68
-44.09
-39.04
-35.47
-33.95
-34.52
-36.65
-39.32
-41.14
-40.76
-37.27
-30.48
-21.07
-10.35
0.25
9.63
17.44
23.99
29.92
35.72
41.47
46.81
51.25
54.43
56.27
56.97
56.74
55.76
54.08
51.74
48.85
45.60
42.21
38.83
35.52
32.29
29.14
26.09
23.08
19.91
16.29
11.99
6.94
1.36
-4.25
-9.32
-13.32
-15.98
-17.27
-17.45
-16.87
-15.97
-15.10
-14.52
-14.37
-14.69
-15.48
-16.65
-18.05
-19.47
-20.57
-20.93
-20.08
-17.56
-13.09
-6.60
1.70
11.27
21.41
31.34
40.34
47.86
53.54
57.15
58.56
57.69
54.61
49.64
43.39
36.71
30.45
25.18
20.99
17.54
14.24
10.60
6.45
2.03
-2.29
-6.13
-9.36
-12.07
-14.37
-16.34
-17.88
-18.80
-19.00
-18.48
-17.47
-16.26
-15.17
-14.41
-14.05
-14.03
-14.23
-14.53
-14.84
-15.15
-15.51
-15.96
-16.52
-17.16
-17.75
-18.21
-18.46
-18.51
-18.44
-18.35
-18.40
-18.63
-19.10
-19.72
-20.39
-20.98
-21.41
-21.68
-21.86
-22.07
-22.39
-22.84
-23.35
-23.75
-23.85
-23.43
-22.37
-20.64
-18.41
-16.01
-13.82
-12.16
-11.16
-10.72
-10.50
-10.15
-9.38
-8.08
-6.28
-4.11
-1.74
0.66
2.95
4.96
6.61
7.85
8.67
9.09
9.13
8.79
8.17
7.44
6.90
6.80
7.28
8.23
9.34
10.24
10.67
10.60
10.17
9.59
8.98
8.32
7.56
6.66
5.74
4.98
4.59
4.65
5.11
5.80
6.60
7.43
8.28
9.18
10.11
10.99
11.70
12.11
12.14
11.76
11.01
9.97
8.75
7.42
6.03
4.53
2.86
0.96
-1.17
-3.42
-5.64
-7.64
-9.30
-10.57
-11.48
-12.10
-12.48
-12.65
-12.61
-12.37
-11.98
-11.51
-11.07
-10.76
-10.62
-10.67
-10.85
-11.06
-11.19
-11.11
-10.78
-10.27
-9.76
-9.47
-9.58
-10.07
-10.72
-11.16
-11.09
-10.32
-8.94
-7.16
-5.30
-3.60
-2.17
-1.03
-0.12
0.64
1.34
2.02
2.70
3.41
4.12
4.83
5.52
6.18
6.75
7.18
7.47
7.61
7.68
7.77
7.89
7.99
7.95
7.63
6.98
6.01
4.83
3.57
2.36
1.28
0.42
-0.18
-0.53
-0.73
-0.98
-1.52
-2.47
-3.82
-5.35
-6.78
-7.87
-8.54
-8.91
-9.11
-9.29
-9.51
-9.76
-10.01
-10.26
-10.48
-10.59
-10.44
-9.87
-8.79
-7.23
-5.39
-3.54
-1.96
-0.77
0.04
0.63
1.20
1.90
2.80
3.81
4.83
5.73
6.45
7.02
7.52
7.96
8.31
8.47
8.34
7.93
7.36
6.80
6.38
6.13
5.99
5.82
5.51
5.00
4.36
3.64
2.91
2.26
1.71
1.26
0.91
0.61
0.34
0.05
-0.26
-0.60
-0.98
-1.40
-1.84
-2.28
-2.73
-3.23
-3.83
-4.56
-5.37
-6.12
-6.58
-6.55
-5.95
-4.88
-3.59
-2.39
-1.48
-0.88
-0.47
-0.10
0.39
1.05
1.84
2.69
3.56
4.46
5.41
6.42
7.41
8.28
8.90
9.22
9.27
9.13
8.90
8.68
8.54
8.52
8.59
8.69
8.70
8.48
7.98
7.21
6.31
5.48
4.85
4.48
4.32
4.26
4.19
4.04
3.69
3.07
2.04
0.54
-1.44
-3.68
-5.87
-7.63
-8.70
-9.01
-8.69
-7.95
-7.02
-6.00
-4.88
-3.59
-2.11
-0.44
1.35
3.12
4.74
6.08
6.99
7.39
7.25
6.60
5.61
4.51
3.57
3.02
2.97
3.35
3.95
4.48
4.65
4.35
3.60
2.57
1.48
0.51
-0.25
-0.82
-1.23
-1.53
-1.78
-2.05
-2.45
-3.02
-3.75
-4.55
-5.28
-5.81
-6.10
-6.17
-6.14
-6.09
-6.10
-6.27
-6.66
-7.35
-8.33
-9.46
-10.43
-10.91
-10.62
-9.58
-8.00
-6.26
-4.70
-3.49
-2.64
-1.99
-1.40
-0.79
-0.15
0.51
1.16
1.83
2.50
3.14
3.66
3.98
4.06
3.94
3.69
3.44
3.21
3.02
2.82
2.51
2.03
1.32
0.41
-0.56
-1.43
-2.04
-2.32
-2.35
-2.32
-2.44
-2.83
-3.47
-4.24
-4.95
-5.50
-5.87
-6.14
-6.41
-6.74
-7.14
-7.58
-8.08
-8.67
-9.36
-10.13
-10.85
-11.37
-11.50
-11.15
-10.31
-9.13
-7.78
-6.48
-5.48
-4.98
-5.14
-5.98
-7.31
-8.74
-9.74
-9.85
-8.83
-6.73
-3.85
-0.62
2.62
5.66
8.44
10.88
12.92
14.39
15.19
15.31
14.87
14.09
13.22
12.43
11.78
11.24
10.70
10.08
9.34
8.51
7.65
6.78
5.90
4.99
4.04
3.05
2.10
1.21
0.38
-0.42
-1.28
-2.21
-3.16
-4.03
-4.70
-5.08
-5.15
-4.96
-4.53
-3.88
-2.98
-1.84
-0.51
0.92
2.31
3.56
4.62
5.48
6.15
6.68
7.06
7.30
7.42
7.47
7.52
7.62
7.76
7.90
7.92
7.76
7.43
6.98
6.52
6.15
5.92
5.80
5.67
5.41
4.90
4.12
3.17
2.21
1.44
0.95
0.69
0.44
-0.06
-0.93
-2.15
-3.48
-4.62
-5.34
-5.59
-5.47
-5.23
-5.08
-5.16
-5.46
-5.85
-6.15
-6.15
-5.74
-4.95
-3.87
-2.67
-1.51
-0.46
0.51
1.41
2.24
2.94
3.40
3.60
3.57
3.45
3.43
3.64
4.08
4.65
5.18
5.57
5.78
5.91
6.09
6.43
6.97
7.67
8.51
9.49
10.61
11.83
12.97
13.72
13.72
12.73
10.70
7.88
4.60
1.21
-2.16
-5.51
-8.94
-12.47
-15.98
-19.21
-21.87
-23.83
-25.09
-25.84
-26.29
-26.61
-26.83
-26.90
-26.68
-26.00
-24.73
-22.78
-20.17
-17.03
-13.58
-10.10
-6.83
-3.97
-1.64
0.03
0.92
0.98
0.28
-0.87
-2.06
-2.90
-3.25
-3.30
-3.46
-4.10
-5.38
-7.15
-9.02
-10.58
-11.52
-11.74
-11.25
-10.13
-8.41
-6.12
-3.34
-0.31
2.59
4.97
6.64
7.78
8.96
10.96
14.36
19.21
24.90
30.34
34.43
36.51
36.60
35.25
33.20
30.99
28.80
26.49
23.88
20.98
18.08
15.69
14.31
14.29
15.75
18.68
22.97
28.49
34.93
41.75
48.15
53.24
56.29
56.96
55.39
52.06
47.53
42.27
36.58
30.72
24.95
19.59
14.90
10.94
7.56
4.47
1.36
-1.87
-5.15
-8.28
-11.07
-13.44
-15.43
-17.18
-18.82
-20.40
-21.87
-23.13
-24.06
-24.58
-24.69
-24.49
-24.16
-23.86
-23.70
-23.65
-23.61
-23.41
-22.94
-22.20
-21.28
-20.36
-19.55
-18.92
-18.38
-17.81
-17.03
-15.95
-14.52
-12.80
-10.90
-8.95
-7.05
-5.28
-3.70
-2.37
-1.32
-0.57
-0.06
0.26
0.49
0.65
0.80
0.92
0.99
1.01
0.98
0.87
0.64
0.29
-0.16
-0.63
-1.05
-1.36
-1.58
-1.77
-1.96
-2.19
-2.46
-2.76
-3.12
-3.58
-4.15
-4.80
-5.40
-5.84
-6.09
-6.21
-6.32
-6.54
-6.92
-7.35
-7.69
-7.81
-7.71
-7.50
-7.36
-7.39
-7.60
-7.87
-8.02
-7.94
-7.60
-7.04
-6.30
-5.40
-4.34
-3.15
-1.94
-0.89
-0.21
0.04
-0.05
-0.27
-0.40
-0.35
-0.17
0.01
0.12
0.24
0.51
1.04
1.80
2.61
3.21
3.41
3.21
2.77
2.32
2.02
1.86
1.70
1.35
0.76
-0.05
-0.95
-1.80
-2.53
-3.16
-3.77
-4.40
-5.05
-5.66
-6.14
-6.45
-6.64
-6.77
-6.93
-7.11
-7.31
-7.53
-7.78
-8.04
-8.20
-8.07
-7.43
-6.16
-4.34
-2.29
-0.41
0.95
1.69
2.05
2.49
3.50
5.35
7.92
10.81
13.49
15.59
17.08
18.17
19.20
20.34
21.49
22.40
22.86
22.84
22.51
22.14
21.89
21.70
21.35
20.51
18.99
16.72
13.79
10.35
6.57
2.56
-1.52
-5.42
-8.81
-11.29
-12.54
-12.54
-11.61
-10.34
-9.41
-9.26
-9.94
-11.19
-12.58
-13.83
-14.90
-15.91
-17.00
-18.17
-19.31
-20.34
-21.32
-22.56
-24.41
-26.99
-30.09
-33.08
-35.15
-35.62
-34.14
-30.75
-25.79
-19.75
-13.18
-6.60
-0.50
4.75
8.93
12.01
14.15
15.54
16.26
16.27
15.48
13.81
11.38
8.42
5.24
2.09
-0.87
-3.58
-5.98
-7.94
-9.26
-9.75
-9.29
-7.95
-5.98
-3.82
-1.94
-0.69
-0.16
-0.16
-0.35
-0.38
-0.08
0.45
0.93
1.01
0.48
-0.62
-1.96
-2.97
-3.05
-1.72
1.23
5.64
11.03
16.60
21.43
24.56
25.29
23.32
18.93
12.96
6.61
1.08
-2.77
-4.69
-4.94
-4.10
-2.74
-1.19
0.44
2.10
3.63
4.75
5.14
4.68
3.58
2.33
1.44
1.21
1.53
2.02
2.21
1.82
0.84
-0.50
-1.92
-3.22
-4.38
-5.43
-6.39
-7.21
-7.81
-8.14
-8.26
-8.32
-8.49
-8.88
-9.55
-10.49
-11.64
-12.87
-13.95
-14.58
-14.45
-13.36
-11.37
-8.84
-6.24
-3.95
-2.11
-0.55
1.08
3.00
5.16
7.22
8.68
9.17
8.65
7.43
6.08
5.16
5.00
5.65
6.81
8.07
9.02
9.40
9.16
8.37
7.17
5.69
4.14
2.83
2.21
2.78
4.78
8.15
12.40
16.87
20.95
24.35
27.00
28.79
29.34
27.95
23.96
17.27
8.75
0.13
-6.51
-9.53
-8.40
-3.78
2.77
9.47
14.83
17.96
18.53
16.69
12.87
7.76
2.19
-3.01
-7.11
-9.72
-10.86
-10.85
-10.29
-9.79
-9.85
-10.70
-12.25
-14.07
-15.51
-15.98
-15.18
-13.19
-10.53
-7.88
-5.82
-4.59
-4.04
-3.69
-3.03
-1.71
0.23
2.47
4.54
6.03
6.78
6.83
6.37
5.57
4.53
3.30
1.92
0.48
-0.89
-2.09
-3.11
-4.01
-4.91
-5.90
-7.00
-8.15
-9.26
-10.19
-10.84
-11.15
-11.08
-10.71
-10.17
-9.66
-9.31
-9.16
-9.14
-9.08
-8.80
-8.22
-7.37
-6.42
-5.58
-5.01
-4.79
-4.87
-5.16
-5.54
-5.87
-6.07
-6.09
-5.95
-5.69
-5.43
-5.25
-5.23
-5.35
-5.56
-5.73
-5.75
-5.55
-5.08
-4.38
-3.54
-2.68
-1.98
-1.58
-1.59
-2.03
-2.86
-3.97
-5.19
-6.30
-7.06
-7.28
-6.91
-6.02
-4.82
-3.56
-2.39
-1.26
0.06
1.91
4.56
8.06
12.22
16.66
20.99
24.91
28.33
31.25
33.69
35.58
36.74
36.99
36.24
34.50
31.92
28.66
24.84
20.50
15.67
10.49
5.25
0.34
-3.77
-6.78
-8.60
-9.37
-9.41
-9.03
-8.46
-7.77
-6.89
-5.72
-4.24
-2.52
-0.78
0.72
1.73
2.14
1.97
1.39
0.67
0.10
-0.01
0.56
1.92
3.99
6.55
9.29
11.92
14.27
16.31
18.13
19.82
21.38
22.68
23.53
23.83
23.62
23.07
22.41
21.84
21.44
21.19
21.08
21.04
21.05
21.06
21.03
21.03
21.28
22.06
23.67
26.12
29.11
31.99
33.91
34.15
32.32
28.46
23.02
16.68
10.15
4.04
-1.27
-5.67
-9.23
-12.15
-14.66
-16.90
-18.92
-20.76
-22.38
-23.83
-25.14
-26.37
-27.62
-28.99
-30.62
-32.67
-35.32
-38.63
-42.52
-46.73
-50.85
-54.40
-56.91
-58.05
-57.68
-56.01
-53.49
-50.76
-48.41
-46.74
-45.61
-44.50
-42.74
-39.92
-36.09
-31.79
-27.76
-24.61
-22.45
-20.85
-19.05
-16.35
-12.44
-7.56
-2.39
2.13
5.22
6.42
5.72
3.56
0.73
-1.66
-2.43
-0.50
4.82
13.49
24.64
36.60
47.30
54.92
58.38
57.65
53.57
47.50
40.73
34.18
28.33
23.37
19.37
16.38
14.41
13.29
12.63
11.95
10.79
8.96
6.56
3.96
1.64
-0.02
-0.88
-1.12
-1.11
-1.22
-1.62
-2.20
-2.65
-2.64
-2.05
-1.06
-0.06
0.52
0.45
-0.23
-1.28
-2.38
-3.25
-3.76
-3.83
-3.39
-2.44
-1.00
0.78
2.59
4.07
4.87
4.74
3.62
1.64
-0.95
-3.80
-6.57
-8.99
-10.93
-12.41
-13.54
-14.47
-15.35
-16.27
-17.26
-18.31
-19.35
-20.24
-20.80
-20.88
-20.52
-19.88
-19.32
-19.16
-19.56
-20.47
-21.54
-22.39
-22.64
-22.11
-20.80
-18.91
-16.71
-14.51
-12.53
-10.89
-9.63
-8.62
-7.77
-6.96
-6.13
-5.29
-4.43
-3.54
-2.62
-1.69
-0.81
-0.04
0.59
1.16
1.82
2.74
4.00
5.50
7.01
8.24
8.98
9.18
8.97
8.58
8.17
7.78
7.35
6.82
6.16
5.43
4.75
4.18
3.71
3.28
2.80
2.19
1.40
0.46
-0.60
-1.66
-2.65
-3.47
-4.10
-4.58
-5.03
-5.52
-6.08
-6.64
-7.02
-7.04
-6.58
-5.61
-4.20
-2.58
-0.97
0.44
1.57
2.53
3.54
4.89
6.75
9.18
12.04
15.16
18.33
21.35
24.06
26.29
27.90
28.78
28.96
28.56
27.74
26.62
25.21
23.36
20.98
18.05
14.74
11.31
8.02
5.05
2.47
0.29
-1.50
-2.91
-4.01
-4.94
-5.83
-6.78
-7.77
-8.65
-9.29
-9.61
-9.65
-9.52
-9.31
-9.05
-8.82
-8.74
-9.00
-9.75
-10.97
-12.41
-13.71
-14.50
-14.62
-14.13
-13.26
-12.32
-11.53
-11.03
-10.92
-11.18
-11.75
-12.51
-13.22
-13.64
-13.63
-13.15
-12.32
-11.25
-10.04
-8.74
-7.34
-5.84
-4.27
-2.71
-1.29
-0.13
0.68
1.13
1.26
1.17
0.99
0.84
0.77
0.81
0.93
1.09
1.22
1.30
1.34
1.32
1.29
1.26
1.21
1.12
0.92
0.58
0.05
-0.64
-1.49
-2.43
-3.41
-4.40
-5.36
-6.24
-6.97
-7.41
-7.45
-6.99
-6.02
-4.64
-3.06
-1.46
0.05
1.43
2.73
4.02
5.31
6.51
7.51
8.20
8.55
8.61
8.51
8.35
8.23
8.15
8.11
8.08
8.07
8.09
8.17
8.24
8.18
7.83
7.10
6.05
4.90
3.90
3.27
3.06
3.14
3.37
3.57
3.68
3.72
3.67
3.54
3.25
2.77
2.12
1.40
0.72
0.17
-0.26
-0.66
-1.14
-1.79
-2.51
-3.16
-3.53
-3.47
-2.98
-2.20
-1.32
-0.50
0.18
0.79
1.40
2.02
2.58
2.90
2.84
2.35
1.55
0.67
-0.04
-0.40
-0.40
-0.16
0.13
0.35
0.48
0.60
0.88
1.54
2.72
4.46
6.65
8.94
10.83
11.76
11.34
9.54
6.71
3.51
0.61
-1.61
-3.07
-4.02
-4.79
-5.58
-6.44
-7.29
-8.10
-8.82
-9.44
-9.80
-9.66
-8.81
-7.17
-4.84
-1.97
1.40
5.46
10.54
16.80
23.96
31.21
37.44
41.65
43.37
42.75
40.48
37.35
33.95
30.51
27.04
23.53
20.06
16.89
14.29
12.41
11.11
10.03
8.73
6.84
4.27
1.22
-2.01
-5.27
-8.72
-12.90
-18.46
-25.73
-34.42
-43.53
-51.59
-57.11
-59.16
-57.57
-53.04
-46.82
-40.36
-34.88
-31.10
-29.13
-28.56
-28.69
-28.84
-28.49
-27.39
-25.52
-22.92
-19.66
-15.81
-11.52
-7.05
-2.75
1.01
3.97
6.08
7.49
8.50
9.42
10.43
11.55
12.69
13.66
14.40
14.97
15.53
16.24
17.14
18.11
18.95
19.46
19.53
19.20
18.63
17.94
17.21
16.49
15.75
14.98
14.14
13.19
12.07
10.76
9.27
7.70
6.17
4.77
3.52
2.40
1.32
0.29
-0.69
-1.59
-2.45
-3.31
-4.23
-5.19
-6.06
-6.63
-6.70
-6.16
-5.09
-3.67
-2.16
-0.79
0.30
1.14
1.84
2.55
3.38
4.36
5.40
6.40
7.21
7.80
8.19
8.41
8.53
8.53
8.42
8.19
7.84
7.44
7.08
6.79
6.59
6.44
6.24
5.90
5.37
4.70
3.97
3.33
2.88
2.63
2.51
2.40
2.16
1.73
1.13
0.45
-0.21
-0.77
-1.23
-1.61
-1.94
-2.23
-2.50
-2.75
-3.05
-3.46
-4.00
-4.62
-5.21
-5.63
-5.75
-5.52
-4.97
-4.17
-3.20
-2.11
-0.87
0.47
1.88
3.21
4.30
5.01
5.30
5.28
5.17
5.21
5.50
6.03
6.63
7.12
7.34
7.26
6.96
6.57
6.19
5.83
5.44
4.93
4.18
3.15
1.88
0.46
-0.93
-2.09
-2.93
-3.38
-3.52
-3.46
-3.36
-3.36
-3.59
-4.06
-4.74
-5.51
-6.22
-6.78
-7.14
-7.35
-7.54
-7.84
-8.31
-8.86
-9.28
-9.31
-8.74
-7.56
-5.96
-4.23
-2.68
-1.44
-0.53
0.17
0.80
1.43
2.04
2.55
2.93
3.15
3.27
3.38
3.56
3.90
4.47
5.22
6.05
6.73
7.08
6.97
6.45
5.70
4.96
4.34
3.85
3.36
2.79
2.09
1.37
0.77
0.35
0.03
-0.36
-0.97
-1.83
-2.80
-3.65
-4.20
-4.40
-4.35
-4.13
-3.72
-2.87
-1.22
1.53
5.40
9.95
14.42
17.90
19.65
19.34
17.16
13.69
9.75
6.22
3.84
3.17
4.49
7.75
12.59
18.37
24.33
29.81
34.39
38.03
40.94
43.40
45.61
47.57
49.07
49.79
49.47
47.93
45.14
41.17
36.16
30.28
23.72
16.60
9.10
1.43
-6.07
-12.84
-18.25
-21.75
-23.10
-22.48
-20.44
-17.71
-14.87
-12.27
-9.88
-7.55
-5.17
-2.74
-0.43
1.56
3.08
4.12
4.77
5.16
5.39
5.51
5.52
5.37
5.07
4.67
4.28
3.99
3.83
3.69
3.37
2.67
1.43
-0.39
-2.70
-5.29
-7.91
-10.29
-12.21
-13.53
-14.24
-14.53
-14.62
-14.84
-15.38
-16.32
-17.51
-18.74
-19.75
-20.37
-20.56
-20.43
-20.17
-20.01
-20.10
-20.46
-21.03
-21.66
-22.22
-22.58
-22.68
-22.47
-21.94
-21.15
-20.18
-19.24
-18.55
-18.29
-18.50
-19.04
-19.60
-19.83
-19.48
-18.49
-17.00
-15.25
-13.51
-11.95
-10.58
-9.38
-8.26
-7.21
-6.26
-5.45
-4.78
-4.24
-3.74
-3.23
-2.69
-2.13
-1.54
-0.89
-0.11
0.89
2.14
3.54
4.91
6.06
6.87
7.33
7.54
7.58
7.52
7.35
7.01
6.48
5.75
4.89
3.96
3.00
1.98
0.87
-0.34
-1.59
-2.78
-3.80
-4.61
-5.25
-5.82
-6.44
-7.14
-7.85
-8.44
-8.75
-8.68
-8.24
-7.53
-6.68
-5.82
-5.02
-4.30
-3.66
-3.13
-2.78
-2.65
-2.77
-3.05
-3.33
-3.41
-3.21
-2.74
-2.19
-1.79
-1.70
-1.95
-2.51
-3.24
-4.05
-4.81
-5.29
-5.14
-3.95
-1.42
2.44
7.23
12.22
16.62
19.84
21.65
22.17
21.74
20.71
19.35
17.83
16.27
14.74
13.28
11.83
10.21
8.17
5.51
2.22
-1.42
-4.88
-7.53
-8.85
-8.67
-7.16
-4.87
-2.49
-0.63
0.31
0.26
-0.63
-2.08
-3.82
-5.69
-7.58
-9.47
-11.33
-13.15
-14.86
-16.42
-17.78
-18.89
-19.69
-20.11
-20.08
-19.55
-18.56
-17.24
-15.78
-14.37
-13.09
-11.90
-10.65
-9.17
-7.36
-5.30
-3.18
-1.31
0.12
1.03
1.52
1.77
1.95
2.10
2.18
2.07
1.68
1.01
0.15
-0.75
-1.53
-2.10
-2.47
-2.74
-3.05
-3.53
-4.25
-5.20
-6.28
-7.36
-8.24
-8.77
-8.79
-8.28
-7.27
-5.88
-4.31
-2.80
-1.55
-0.72
-0.35
-0.34
-0.54
-0.72
-0.74
-0.54
-0.14
0.35
0.85
1.32
1.70
1.94
1.98
1.80
1.43
1.01
0.69
0.56
0.61
0.69
0.61
0.24
-0.48
-1.40
-2.37
-3.20
-3.75
-3.98
-3.93
-3.65
-3.27
-2.91
-2.66
-2.55
-2.52
-2.45
-2.21
-1.68
-0.85
0.14
1.09
1.83
2.28
2.52
2.77
3.29
4.27
5.73
7.54
9.46
11.29
12.84
14.03
14.83
15.27
15.41
15.34
15.19
15.11
15.23
15.56
15.99
16.29
16.22
15.60
14.41
12.81
11.05
9.40
8.04
7.05
6.37
5.89
5.48
5.06
4.57
4.00
3.36
2.62
1.73
0.64
-0.65
-2.05
-3.42
-4.57
-5.45
-6.10
-6.79
-7.76
-9.19
-11.07
-13.17
-15.16
-16.77
-17.81
-18.28
-18.25
-17.91
-17.42
-17.03
-16.94
-17.27
-17.99
-18.73
-18.81
-17.43
-13.92
-8.11
-0.55
7.61
14.94
20.20
22.78
22.90
21.43
19.50
18.07
17.58
18.00
18.93
19.93
20.73
21.26
21.63
22.01
22.53
23.24
24.12
25.05
25.90
26.50
26.81
26.90
26.94
27.10
27.47
28.05
28.88
30.00
31.55
33.50
35.62
37.37
38.18
37.68
35.86
33.09
29.74
25.99
21.69
16.62
10.77
4.49
-1.60
-6.92
-11.22
-14.64
-17.57
-20.33
-23.07
-25.72
-28.09
-30.09
-31.72
-33.06
-34.14
-34.90
-35.25
-35.04
-34.19
-32.70
-30.70
-28.40
-26.11
-24.15
-22.75
-21.96
-21.59
-21.27
-20.69
-19.68
-18.38
-17.17
-16.59
-17.09
-18.93
-22.06
-26.07
-30.19
-33.41
-34.60
-32.78
-27.41
-18.68
-7.50
4.69
16.35
26.31
34.15
40.12
44.95
49.43
54.03
58.75
63.14
66.46
68.03
67.34
64.26
58.98
52.04
44.09
35.82
27.76
20.27
13.46
7.35
1.94
-2.76
-6.63
-9.53
-11.31
-11.98
-11.69
-10.69
-9.30
-7.81
-6.44
-5.36
-4.77
-4.80
-5.52
-6.81
-8.45
-10.12
-11.56
-12.67
-13.55
-14.44
-15.53
-16.92
-18.58
-20.37
-22.15
-23.88
-25.64
-27.63
-30.10
-33.26
-37.22
-41.86
-46.85
-51.72
-56.02
-59.39
-61.60
-62.57
-62.12
-60.09
-56.30
-50.70
-43.51
-35.24
-26.50
-17.86
-9.72
-2.29
4.23
9.59
13.45
15.52
15.75
14.45
12.20
9.72
7.62
6.24
5.69
5.80
6.38
7.12
7.80
8.20
8.26
8.01
7.58
7.12
6.64
6.07
5.29
4.18
2.74
1.14
-0.36
-1.50
-2.12
-2.19
-1.85
-1.27
-0.63
0.02
0.72
1.63
2.88
4.51
6.45
8.47
10.36
11.96
13.22
14.18
14.92
15.45
15.79
15.93
15.93
15.87
15.86
15.99
16.22
16.48
16.68
16.75
16.71
16.57
16.37
16.09
15.67
15.08
14.30
13.33
12.20
10.91
9.46
7.83
6.11
4.40
2.85
1.57
0.56
-0.26
-1.01
-1.78
-2.59
-3.43
-4.31
-5.27
-6.36
-7.53
-8.63
-9.38
-9.55
-9.01
-7.84
-6.25
-4.53
-2.86
-1.34
0.02
1.25
2.37
3.35
4.18
4.86
5.44
6.00
6.63
7.40
8.36
9.46
10.64
11.75
12.72
13.51
14.23
15.05
16.18
17.83
20.13
23.10
26.58
30.25
33.66
36.36
38.00
38.49
37.88
36.35
34.03
30.95
27.07
22.36
16.98
11.30
5.78
0.90
-3.05
-6.02
-8.11
-9.56
-10.52
-11.05
-11.10
-10.58
-9.43
-7.72
-5.65
-3.51
-1.61
-0.18
0.68
0.96
0.68
-0.15
-1.51
-3.36
-5.59
-8.01
-10.39
-12.57
-14.51
-16.33
-18.15
-20.10
-22.15
-24.20
-26.11
-27.84
-29.40
-30.85
-32.18
-33.29
-34.04
-34.31
-34.08
-33.43
-32.44
-31.17
-29.58
-27.55
-25.07
-22.23
-19.31
-16.61
-14.37
-12.71
-11.58
-10.91
-10.61
-10.66
-10.97
-11.41
-11.73
-11.63
-10.96
-9.73
-8.13
-6.47
-4.95
-3.68
-2.59
-1.53
-0.49
0.38
0.75
0.19
-1.58
-4.57
-8.35
-12.22
-15.36
-17.10
-17.13
-15.59
-12.97
-9.88
-6.88
-4.36
-2.47
-1.25
-0.69
-0.74
-1.28
-2.15
-3.09
-3.79
-3.98
-3.53
-2.54
-1.26
-0.14
0.44
0.22
-0.75
-2.20
-3.73
-5.02
-5.92
-6.51
-6.96
-7.46
-8.12
-8.88
-9.61
-10.14
-10.34
-10.16
-9.65
-8.99
-8.41
-8.14
-8.26
-8.64
-9.03
-9.08
-8.62
-7.64
-6.26
-4.61
-2.67
-0.31
2.59
5.94
9.36
12.32
14.33
15.25
15.28
14.89
14.48
14.19
13.87
13.21
12.04
10.46
8.80
7.43
6.48
5.86
5.22
4.26
2.87
1.25
-0.16
-0.86
-0.52
0.93
3.22
5.80
8.03
9.32
9.35
8.13
6.07
3.81
2.07
1.42
2.12
4.03
6.79
9.88
12.95
15.81
18.47
20.94
23.13
24.81
25.68
25.55
24.46
22.68
20.56
18.41
16.34
14.28
12.17
9.97
7.84
5.97
4.59
3.74
3.31
3.08
2.82
2.37
1.72
1.00
0.32
-0.21
-0.59
-0.93
-1.36
-1.96
-2.72
-3.50
-4.12
-4.47
-4.52
-4.34
-4.04
-3.72
-3.44
-3.26
-3.25
-3.52
-4.08
-4.80
-5.43
-5.60
-5.10
-4.01
-2.74
-1.90
-1.97
-3.12
-5.02
-7.07
-8.62
-9.22
-8.72
-7.26
-5.08
-2.45
0.38
3.22
5.91
8.33
10.37
11.97
13.05
13.55
13.42
12.67
11.45
9.96
8.44
7.02
5.74
4.54
3.44
2.50
1.85
1.56
1.54
1.57
1.38
0.77
-0.26
-1.52
-2.78
-3.87
-4.71
-5.37
-5.92
-6.40
-6.84
-7.25
-7.68
-8.17
-8.70
-9.17
-9.39
-9.14
-8.31
-6.96
-5.29
-3.55
-2.02
-0.84
-0.05
0.40
0.60
0.68
0.73
0.85
1.07
1.41
1.83
2.31
2.84
3.43
4.06
4.69
5.28
5.75
6.08
6.25
6.29
6.20
5.94
5.51
4.96
4.37
3.80
3.30
2.80
2.21
1.45
0.52
-0.56
-1.69
-2.80
-3.83
-4.74
-5.48
-6.05
-6.45
-6.79
-7.19
-7.70
-8.28
-8.79
-9.02
-8.81
-8.08
-6.89
-5.39
-3.76
-2.21
-0.95
-0.14
0.13
-0.10
-0.66
-1.33
-1.88
-2.16
-2.12
-1.79
-1.26
-0.64
-0.07
0.34
0.45
0.25
-0.19
-0.67
-0.89
-0.56
0.54
2.45
4.99
7.82
10.48
12.59
13.90
14.34
14.04
13.26
12.24
11.20
10.28
9.50
8.85
8.31
7.85
7.49
7.22
6.97
6.65
6.15
5.48
4.74
4.13
3.86
4.03
4.54
5.13
5.52
5.51
5.05
4.21
3.15
1.98
0.82
-0.26
-1.20
-1.98
-2.68
-3.51
-4.70
-6.52
-9.05
-12.17
-15.52
-18.58
-20.81
-21.78
-21.29
-19.35
-16.21
-12.18
-7.63
-2.92
1.64
5.83
9.54
12.81
15.83
18.87
22.17
25.76
29.41
32.62
34.76
35.34
34.18
31.45
27.65
23.37
19.21
15.59
12.76
10.77
9.53
8.77
8.19
7.48
6.49
5.26
4.03
3.09
2.67
2.82
3.45
4.43
5.63
6.98
8.38
9.67
10.68
11.28
11.57
11.85
12.52
13.90
16.10
18.96
22.23
25.70
29.34
33.13
36.90
40.19
42.25
42.34
39.99
35.21
28.48
20.48
11.89
3.13
-5.55
-13.98
-21.80
-28.54
-33.65
-36.81
-38.10
-38.04
-37.43
-37.03
-37.36
-38.51
-40.20
-41.93
-43.17
-43.46
-42.43
-39.80
-35.48
-29.65
-22.89
-16.10
-10.27
-6.12
-3.86
-3.11
-3.20
-3.43
-3.47
-3.29
-3.10
-3.09
-3.30
-3.62
-3.96
-4.30
-4.71
-5.28
-6.03
-6.88
-7.71
-8.45
-9.08
-9.63
-10.18
-10.78
-11.53
-12.52
-13.84
-15.51
-17.42
-19.35
-21.03
-22.22
-22.84
-23.06
-23.11
-23.25
-23.64
-24.26
-24.94
-25.52
-25.94
-26.23
-26.52
-26.90
-27.29
-27.47
-27.09
-25.85
-23.64
-20.57
-16.92
-13.02
-9.16
-5.51
-2.16
0.83
3.40
5.56
7.32
8.78
10.12
11.46
12.85
14.27
15.61
16.81
17.85
18.82
19.78
20.72
21.59
22.27
22.70
22.97
23.29
23.90
24.87
26.08
27.19
27.81
27.71
26.86
25.44
23.72
21.92
20.12
18.28
16.31
14.06
11.48
8.62
5.64
2.80
0.38
-1.36
-2.26
-2.37
-1.86
-1.00
-0.08
0.71
1.27
1.59
1.69
1.59
1.32
0.96
0.61
0.43
0.53
0.96
1.60
2.21
2.56
2.48
1.97
1.22
0.52
0.17
0.50
1.79
4.27
8.05
12.98
18.66
24.44
29.50
33.16
34.98
34.87
33.11
30.14
26.43
22.28
17.88
13.34
8.81
4.56
0.93
-1.76
-3.36
-3.94
-3.73
-2.96
-1.72
0.13
2.85
6.61
11.32
16.54
21.56
25.56
27.80
27.86
25.72
21.76
16.68
11.44
6.94
3.81
2.28
2.09
2.60
3.07
2.83
1.41
-1.45
-5.85
-11.73
-18.80
-26.53
-34.10
-40.64
-45.44
-48.26
-49.33
-49.21
-48.53
-47.71
-46.88
-46.01
-45.01
-43.92
-42.84
-41.88
-41.06
-40.24
-39.21
-37.84
-36.15
-34.29
-32.53
-31.06
-29.95
-29.13
-28.38
-27.47
-26.16
-24.30
-21.84
-18.85
-15.56
-12.24
-9.22
-6.70
-4.73
-3.17
-1.82
-0.48
0.87
2.09
3.03
3.60
3.85
3.98
4.18
4.53
4.96
5.33
5.50
5.39
5.05
4.59
4.09
3.55
2.93
2.16
1.26
0.34
-0.47
-1.04
-1.34
-1.45
-1.54
-1.78
-2.30
-3.15
-4.26
-5.52
-6.78
-7.91
-8.76
-9.24
-9.34
-9.14
-8.79
-8.45
-8.20
-7.97
-7.59
-6.84
-5.56
-3.75
-1.57
0.71
2.81
4.55
5.87
6.90
7.76
8.61
9.47
10.30
11.02
11.62
12.15
12.68
13.26
13.85
14.39
14.78
15.02
15.18
15.33
15.50
15.69
15.81
15.80
15.61
15.24
14.72
14.10
13.43
12.80
12.32
12.03
11.93
11.91
11.77
11.37
10.61
9.55
8.31
7.04
5.79
4.58
3.41
2.34
1.53
1.13
1.26
1.88
2.85
4.01
5.30
6.77
8.58
10.83
13.47
16.29
18.95
21.13
22.64
23.46
23.71
23.61
23.43
23.37
23.53
23.94
24.51
25.10
25.62
26.00
26.27
26.40
26.36
26.10
25.54
24.62
23.32
21.66
19.62
17.26
14.60
11.71
8.71
5.65
2.58
-0.54
-3.72
-6.89
-9.92
-12.61
-14.82
-16.51
-17.73
-18.55
-19.05
-19.24
-19.14
-18.78
-18.23
-17.61
-17.00
-16.47
-16.01
-15.54
-14.99
-14.42
-13.96
-13.85
-14.24
-15.01
-15.74
-15.82
-14.77
-12.45
-9.27
-5.97
-3.31
-1.75
-1.30
-1.60
-2.20
-2.78
-3.26
-3.76
-4.41
-5.24
-6.22
-7.23
-8.23
-9.19
-10.13
-11.05
-11.90
-12.62
-13.14
-13.42
-13.52
-13.55
-13.65
-13.98
-14.62
-15.51
-16.44
-17.12
-17.21
-16.44
-14.75
-12.28
-9.32
-6.29
-3.56
-1.39
0.10
0.98
1.43
1.68
1.92
2.27
2.72
3.18
3.57
3.82
3.95
4.04
4.18
4.45
4.83
5.25
5.60
5.81
5.89
5.90
5.95
6.10
6.36
6.61
6.78
6.80
6.66
6.36
5.88
5.16
4.11
2.75
1.16
-0.45
-1.85
-2.85
-3.44
-3.70
-3.84
-4.09
-4.57
-5.27
-6.05
-6.65
-6.79
-6.28
-5.12
-3.46
-1.57
0.27
1.90
3.30
4.56
5.84
7.26
8.87
10.67
12.58
14.53
16.45
18.24
19.85
21.30
22.67
24.13
25.77
27.58
29.41
30.88
31.55
31.02
29.02
25.51
20.70
15.09
9.31
3.96
-0.53
-4.05
-6.78
-9.09
-11.38
-13.90
-16.75
-19.84
-23.00
-26.04
-28.73
-30.83
-32.15
-32.63
-32.50
-32.16
-32.06
-32.49
-33.33
-34.07
-34.04
-32.66
-29.72
-25.46
-20.42
-15.22
-10.31
-5.92
-2.14
1.02
3.53
5.36
6.60
7.46
8.24
9.21
10.58
12.31
14.24
16.07
17.49
18.28
18.34
17.78
16.82
15.75
14.76
13.91
13.13
12.29
11.26
10.04
8.73
7.44
6.34
5.54
5.04
4.74
4.50
4.11
3.40
2.25
0.67
-1.30
-3.64
-6.37
-9.55
-13.18
-17.08
-20.92
-24.23
-26.58
-27.72
-27.64
-26.56
-24.81
-22.78
-20.82
-19.18
-17.95
-17.12
-16.48
-15.73
-14.56
-12.78
-10.49
-8.05
-5.99
-4.78
-4.62
-5.25
-6.07
-6.24
-5.04
-2.01
2.85
9.21
16.52
24.23
31.89
39.20
45.87
51.65
56.36
59.90
62.42
64.23
65.62
66.70
67.14
66.31
63.49
58.18
50.43
40.83
30.33
19.96
10.47
2.25
-4.68
-10.46
-15.28
-19.27
-22.46
-24.87
-26.52
-27.51
-28.00
-28.20
-28.23
-28.12
-27.83
-27.25
-26.34
-25.14
-23.78
-22.42
-21.15
-20.04
-19.05
-18.15
-17.28
-16.41
-15.53
-14.65
-13.80
-13.02
-12.34
-11.74
-11.19
-10.59
-9.91
-9.18
-8.50
-7.95
-7.58
-7.36
-7.17
-6.95
-6.76
-6.72
-6.99
-7.66
-8.70
-9.91
-11.07
-11.97
-12.54
-12.80
-12.86
-12.86
-12.91
-13.01
-13.15
-13.25
-13.25
-13.06
-12.62
-11.83
-10.60
-8.89
-6.77
-4.43
-2.15
-0.22
1.19
2.09
2.71
3.40
4.40
5.80
7.40
8.92
10.09
10.86
11.42
12.09
13.17
14.86
17.23
20.25
23.86
27.91
32.15
36.13
39.28
41.11
41.34
40.01
37.46
34.08
30.16
25.78
20.92
15.59
10.01
4.50
-0.53
-4.85
-8.48
-11.59
-14.42
-17.07
-19.50
-21.59
-23.24
-24.46
-25.30
-25.78
-25.82
-25.30
-24.17
-22.48
-20.43
-18.26
-16.10
-13.95
-11.68
-9.15
-6.31
-3.22
-0.03
3.13
6.19
9.15
12.09
15.06
18.09
21.09
23.87
26.09
27.37
27.25
25.37
21.54
15.87
8.89
1.36
-5.70
-11.26
-14.41
-14.52
-11.41
-5.51
2.16
10.26
17.47
22.95
26.60
28.98
30.91
33.07
35.60
38.10
39.92
40.46
39.43
36.81
32.78
27.57
21.45
14.78
7.99
1.58
-4.06
-8.71
-12.35
-15.13
-17.21
-18.71
-19.69
-20.17
-20.17
-19.72
-18.84
-17.54
-15.83
-13.69
-11.16
-8.29
-5.16
-1.89
1.36
4.37
6.90
8.81
10.03
10.66
10.83
10.61
10.00
8.94
7.45
5.66
3.81
2.21
1.07
0.45
0.24
0.24
0.23
0.05
-0.36
-0.96
-1.69
-2.38
-2.81
-2.78
-2.09
-0.76
1.01
2.83
4.26
4.93
4.66
3.50
1.66
-0.56
-2.90
-5.13
-7.08
-8.65
-9.81
-10.58
-11.03
-11.23
-11.26
-11.15
-10.91
-10.53
-10.08
-9.64
-9.36
-9.36
-9.68
-10.20
-10.70
-10.94
-10.75
-10.11
-9.18
-8.20
-7.39
-6.86
-6.61
-6.50
-6.38
-6.14
-5.66
-4.90
-3.85
-2.61
-1.35
-0.35
0.05
-0.49
-2.22
-5.17
-9.17
-13.70
-18.11
-21.70
-23.95
-24.67
-23.98
-22.24
-19.86
-17.17
-14.34
-11.43
-8.48
-5.59
-2.92
-0.60
1.31
2.88
4.27
5.65
7.06
8.44
9.64
10.48
10.87
10.87
10.71
10.71
11.28
12.77
15.41
19.24
24.00
29.09
33.69
36.89
37.91
36.43
32.63
27.17
20.98
14.94
9.66
5.36
1.95
-0.83
-3.22
-5.36
-7.26
-8.93
-10.38
-11.68
-12.94
-14.33
-15.92
-17.75
-19.74
-21.71
-23.41
-24.58
-25.00
-24.62
-23.50
-21.88
-20.06
-18.34
-16.92
-15.91
-15.32
-15.06
-15.11
-15.47
-16.19
-17.24
-18.44
-19.45
-19.85
-19.29
-17.67
-15.24
-12.47
-9.85
-7.64
-5.80
-4.05
-2.15
-0.08
1.86
3.25
3.79
3.46
2.62
1.84
1.64
2.36
3.96
6.10
8.13
9.31
8.93
6.58
2.28
-3.45
-9.71
-15.55
-20.24
-23.54
-25.60
-26.77
-27.27
-27.13
-26.21
-24.43
-21.89
-18.94
-16.00
-13.41
-11.27
-9.44
-7.68
-5.81
-3.83
-1.86
-0.10
1.27
2.17
2.66
2.83
2.86
2.89
3.05
3.38
3.90
4.59
5.43
6.39
7.40
8.36
9.13
9.56
9.54
9.08
8.34
7.56
6.99
6.73
6.72
6.73
6.49
5.85
4.84
3.67
2.64
2.00
1.89
2.29
3.06
3.86
4.20
3.48
1.19
-2.80
-8.04
-13.55
-18.21
-21.17
-22.28
-22.04
-21.29
-20.70
-20.50
-20.40
-19.89
-18.59
-16.50
-13.97
-11.49
-9.50
-8.19
-7.47
-7.09
-6.73
-6.13
-5.24
-4.20
-3.35
-3.01
-3.32
-4.17
-5.27
-6.25
-6.85
-7.00
-6.72
-5.98
-4.60
-2.33
1.05
5.41
10.20
14.54
17.50
18.50
17.53
15.18
12.47
10.37
9.48
9.83
10.86
11.69
11.40
9.37
5.49
0.28
-5.14
-9.25
-10.46
-7.61
-0.36
10.64
23.82
37.26
49.26
58.80
65.72
70.47
73.68
75.84
77.10
77.46
76.89
75.53
73.67
71.57
69.36
66.95
64.08
60.52
56.21
51.33
46.27
41.48
37.31
33.89
31.06
28.50
25.86
22.94
19.81
16.76
14.21
12.50
11.71
11.64
11.86
11.83
11.12
9.54
7.20
4.37
1.41
-1.46
-4.20
-6.91
-9.66
-12.44
-15.09
-17.36
-19.07
-20.20
-20.91
-21.48
-22.13
-22.98
-23.94
-24.83
-25.50
-25.92
-26.19
-26.56
-27.25
-28.36
-29.81
-31.31
-32.55
-33.27
-33.39
-33.02
-32.42
-31.97
-31.99
-32.73
-34.18
-36.10
-37.95
-39.12
-39.09
-37.64
-35.00
-31.69
-28.41
-25.74
-23.95
-23.01
-22.69
-22.69
-22.76
-22.76
-22.59
-22.18
-21.49
-20.55
-19.49
-18.51
-17.82
-17.52
-17.59
-17.86
-18.12
-18.15
-17.81
-17.05
-15.82
-14.16
-12.14
-9.95
-7.79
-5.88
-4.35
-3.14
-2.16
-1.25
-0.37
0.42
1.01
1.32
1.37
1.25
1.08
0.94
0.86
0.82
0.81
0.86
1.01
1.24
1.39
1.19
0.34
-1.34
-3.79
-6.69
-9.50
-11.69
-12.93
-13.15
-12.57
-11.51
-10.28
-9.06
-7.91
-6.85
-5.90
-5.16
-4.73
-4.70
-5.07
-5.80
-6.77
-7.82
-8.71
-9.12
-8.71
-7.20
-4.47
-0.62
4.00
8.97
13.88
18.48
22.64
26.33
29.50
31.99
33.61
34.16
33.58
31.94
29.42
26.26
22.70
18.93
15.10
11.29
7.54
3.83
0.14
-3.49
-6.93
-9.97
-12.42
-14.19
-15.39
-16.28
-17.12
-18.07
-19.03
-19.70
-19.67
-18.56
-16.21
-12.71
-8.41
-3.87
0.35
3.84
6.50
8.57
10.59
13.14
16.64
21.10
26.08
30.80
34.46
36.58
37.11
36.44
35.27
34.20
33.61
33.53
33.71
33.80
33.52
32.70
31.30
29.34
26.89
24.03
20.92
17.73
14.69
12.01
9.79
8.07
6.72
5.61
4.56
3.46
2.26
0.99
-0.29
-1.56
-2.76
-3.90
-4.90
-5.68
-6.12
-6.19
-5.92
-5.41
-4.72
-3.82
-2.54
-0.68
1.95
5.40
9.56
14.25
19.16
23.90
27.96
30.75
31.74
30.62
27.46
22.69
16.92
10.72
4.42
-1.85
-8.11
-14.27
-20.06
-25.08
-28.91
-31.33
-32.46
-32.68
-32.46
-32.21
-32.14
-32.22
-32.31
-32.19
-31.74
-30.89
-29.58
-27.75
-25.32
-22.24
-18.58
-14.62
-10.80
-7.56
-5.25
-3.94
-3.41
-3.30
-3.21
-2.89
-2.29
-1.50
-0.70
-0.03
0.41
0.55
0.34
-0.21
-1.01
-1.90
-2.73
-3.39
-3.93
-4.51
-5.35
-6.56
-8.07
-9.67
-11.04
-11.94
-12.29
-12.20
-11.82
-11.29
-10.62
-9.72
-8.47
-6.88
-5.17
-3.67
-2.71
-2.46
-2.77
-3.23
-3.31
-2.58
-0.84
1.78
4.93
8.18
11.21
13.85
16.04
17.76
18.94
19.50
19.38
18.63
17.41
15.93
14.37
12.80
11.11
9.16
6.79
4.02
0.99
-2.03
-4.79
-7.13
-9.09
-10.88
-12.70
-14.71
-16.89
-19.03
-20.82
-21.96
-22.25
-21.71
-20.48
-18.81
-16.86
-14.59
-11.72
-7.75
-2.20
5.24
14.40
24.59
34.73
43.62
50.29
54.22
55.43
54.38
51.75
48.24
44.39
40.55
36.95
33.76
31.13
29.15
27.78
26.82
25.91
24.59
22.56
19.78
16.57
13.54
11.41
10.84
12.30
15.97
21.58
28.32
34.76
39.07
39.56
35.26
26.45
14.61
1.87
-9.86
-19.51
-27.10
-33.34
-38.93
-44.18
-48.83
-52.36
-54.35
-54.71
-53.62
-51.42
-48.46
-45.04
-41.47
-38.16
-35.50
-33.87
-33.42
-34.11
-35.65
-37.65
-39.66
-41.31
-42.35
-42.64
-42.20
-41.13
-39.59
-37.71
-35.47
-32.65
-28.88
-23.77
-17.22
-9.60
-1.74
5.37
10.93
14.73
17.20
19.12
21.18
23.61
26.09
28.00
28.73
27.98
25.85
22.75
19.10
15.23
11.34
7.47
3.63
-0.16
-3.79
-7.08
-9.83
-11.84
-12.92
-13.03
-12.24
-10.75
-8.82
-6.72
-4.64
-2.69
-0.93
0.64
1.99
3.08
3.87
4.38
4.69
4.91
5.13
5.34
5.47
5.42
5.18
4.83
4.49
4.22
3.99
3.70
3.23
2.56
1.76
0.99
0.41
0.03
-0.21
-0.49
-0.96
-1.71
-2.71
-3.90
-5.18
-6.51
-7.87
-9.23
-10.47
-11.40
-11.85
-11.79
-11.37
-10.87
-10.60
-10.70
-11.11
-11.56
-11.71
-11.30
-10.21
-8.50
-6.34
-4.00
-1.74
0.22
1.79
3.05
4.15
5.26
6.44
7.61
8.62
9.32
9.65
9.68
9.48
9.16
8.76
8.32
7.92
7.65
7.63
7.86
8.24
8.57
8.68
8.45
7.93
7.25
6.57
6.01
5.53
5.05
4.44
3.66
2.75
1.79
0.83
-0.12
-1.11
-2.13
-3.13
-4.01
-4.66
-5.11
-5.44
-5.80
-6.29
-6.87
-7.40
-7.67
-7.48
-6.75
-5.51
-3.92
-2.23
-0.70
0.48
1.24
1.65
1.90
2.15
2.52
3.01
3.56
4.08
4.55
4.95
5.28
5.54
5.69
5.71
5.63
5.53
5.47
5.51
5.61
5.70
5.71
5.63
5.48
5.35
5.28
5.27
5.27
5.19
5.01
4.73
4.38
4.02
3.65
3.33
3.11
3.07
3.25
3.61
3.97
4.09
3.81
3.11
2.27
1.67
1.72
2.65
4.44
6.83
9.46
11.99
14.14
15.83
17.08
18.04
18.85
19.59
20.22
20.65
20.76
20.48
19.87
19.06
18.21
17.43
16.84
16.55
16.70
17.38
18.59
20.15
21.74
23.03
23.82
24.09
23.99
23.72
23.39
22.92
22.19
21.02
19.37
17.26
14.79
12.02
9.02
5.77
2.27
-1.52
-5.59
-9.84
-14.12
-18.18
-21.71
-24.40
-26.08
-26.70
-26.38
-25.28
-23.55
-21.29
-18.57
-15.48
-12.16
-8.84
-5.76
-3.04
-0.74
1.22
2.93
4.45
5.77
6.79
7.39
7.50
7.14
6.47
5.68
5.01
4.63
4.51
4.43
3.99
2.76
0.42
-3.10
-7.56
-12.51
-17.39
-21.69
-25.08
-27.43
-28.84
-29.53
-29.83
-30.10
-30.62
-31.55
-32.89
-34.44
-35.93
-37.12
-37.90
-38.31
-38.47
-38.50
-38.40
-38.01
-37.10
-35.46
-33.01
-29.91
-26.45
-22.99
-19.87
-17.25
-15.19
-13.57
-12.17
-10.70
-8.91
-6.63
-3.81
-0.55
2.96
6.47
9.78
12.76
15.38
17.70
19.84
21.98
24.25
26.75
29.43
32.14
34.69
36.87
38.59
39.84
40.71
41.31
41.78
42.15
42.41
42.54
42.52
42.35
42.06
41.62
41.01
40.25
39.47
38.91
38.80
39.26
40.16
41.11
41.62
41.30
40.05
38.12
35.97
34.11
32.98
32.87
33.96
36.29
39.67
43.58
47.12
49.27
49.20
46.58
41.75
35.53
28.91
22.62
16.97
11.85
7.04
2.40
-1.98
-5.80
-8.76
-10.69
-11.63
-11.79
-11.47
-11.04
-10.86
-11.30
-12.69
-15.24
-19.05
-23.96
-29.62
-35.60
-41.47
-46.96
-51.89
-56.11
-59.41
-61.50
-62.14
-61.38
-59.68
-57.88
-56.92
-57.45
-59.53
-62.62
-65.81
-68.15
-68.98
-68.01
-65.28
-61.07
-55.82
-49.99
-44.10
-38.57
-33.67
-29.47
-25.87
-22.63
-19.55
-16.55
-13.65
-10.87
-8.29
-5.89
-3.64
-1.46
0.76
3.19
5.98
9.31
13.16
17.33
21.41
24.84
27.08
27.80
27.04
25.19
22.93
21.07
20.27
20.90
22.96
26.05
29.56
32.78
35.15
36.32
36.19
34.85
32.49
29.38
25.76
21.92
18.13
14.62
11.58
9.04
6.94
5.15
3.52
1.92
0.26
-1.48
-3.32
-5.14
-6.79
-8.10
-8.92
-9.24
-9.18
-8.96
-8.74
-8.59
-8.45
-8.19
-7.74
-7.15
-6.58
-6.21
-6.14
-6.32
-6.63
-6.92
-7.17
-7.44
-7.91
-8.72
-9.88
-11.29
-12.73
-13.96
-14.84
-15.34
-15.60
-15.80
-16.14
-16.72
-17.49
-18.34
-19.12
-19.73
-20.17
-20.51
-20.87
-21.26
-21.60
-21.71
-21.37
-20.44
-18.87
-16.74
-14.19
-11.39
-8.47
-5.54
-2.76
-0.32
1.59
2.89
3.71
4.39
5.39
7.04
9.49
12.56
15.89
18.99
21.46
23.02
23.62
23.42
22.77
22.21
22.23
23.08
24.64
26.44
27.79
28.09
27.07
24.86
21.95
19.02
16.79
15.97
17.05
20.17
24.95
30.40
35.12
37.56
36.54
31.64
23.37
13.09
2.62
-6.21
-12.12
-14.64
-14.18
-11.88
-9.10
-6.94
-6.08
-6.66
-8.37
-10.67
-13.03
-15.09
-16.73
-17.95
-18.73
-19.07
-19.00
-18.50
-17.52
-15.92
-13.62
-10.70
-7.44
-4.06
-0.95
1.37
2.68
3.11
3.12
3.21
3.27
2.83
1.80
-0.10
-3.13
-6.96
-10.79
-13.75
-15.37
-16.51
-18.44
-21.23
-24.97
-29.90
-35.52
-40.88
-44.95
-47.13
-48.47
-50.40
-52.35
-54.18
-56.65
-59.95
-63.67
-66.71
-67.49
-65.61
-60.80
-51.02
-36.60
-21.12
-8.90
-3.50
-6.45
-7.62
1.54
11.65
19.34
28.56
39.12
49.68
58.88
65.94
70.81
72.48
70.28
66.37
62.15
57.47
52.57
48.04
44.77
43.57
43.74
44.10
45.19
46.78
47.72
47.54
46.59
45.87
46.62
49.28
53.95
61.60
72.27
84.77
97.73
109.91
120.41
128.84
134.85
138.40
140.21
140.92
140.85
140.45
139.91
138.92
136.26
129.84
117.36
97.43
70.11
37.01
1.02
-34.58
-67.05
-94.66
-116.73
-133.37
-145.33
-154.06
-161.72
-170.73
-182.91
-198.39
-215.05
-228.94
-235.69
-232.40
-219.00
-198.43
-175.48
-154.88
-139.54
-129.80
-123.75
-118.58
-111.87
-102.56
-90.98
-78.28
-65.74
-54.37
-44.94
-37.96
-33.53
-30.80
-27.72
-21.56
-10.18
6.43
25.49
42.20
51.77
51.64
42.66
28.49
13.72
1.75
-6.23
-10.99
-13.88
-15.78
-16.63
-15.93
-13.56
-10.07
-6.62
-4.30
-3.55
-3.90
-4.24
-3.48
-1.03
2.82
7.05
10.38
11.81
11.03
8.55
5.41
2.77
1.47
1.72
3.11
4.83
5.96
5.86
4.37
1.80
-1.17
-3.88
-5.90
-7.21
-8.23
-9.50
-11.45
-14.17
-17.37
-20.44
-22.69
-23.49
-22.54
-20.01
-16.58
-13.40
-11.73
-12.54
-16.05
-21.72
-28.39
-34.82
-40.28
-44.75
-48.67
-52.55
-56.58
-60.50
-63.69
-65.40
-64.82
-61.00
-52.96
-40.28
-23.68
-5.42
11.16
22.73
27.54
26.28
21.89
18.33
19.05
25.76
38.06
53.92
70.55
85.21
95.98
102.02
103.74
102.51
100.18
98.34
97.78
98.22
98.79
98.55
96.97
94.07
90.17
85.61
80.50
74.82
68.72
62.49
56.60
51.47
47.31
43.93
40.88
37.70
34.13
30.22
26.28
22.74
19.86
17.69
16.18
15.28
15.13
15.97
18.03
21.28
25.44
30.06
34.72
39.22
43.51
47.64
51.53
54.93
57.51
59.06
59.57
59.25
58.41
57.27
55.86
54.06
51.72
48.82
45.46
41.88
38.29
34.86
31.66
28.71
26.10
23.91
22.17
20.77
19.34
17.28
13.90
8.76
1.93
-5.73
-12.72
-17.25
-17.85
-13.94
-5.99
4.73
16.70
28.83
40.81
53.01
66.02
80.14
95.05
109.82
123.02
132.90
137.59
135.52
125.89
109.30
87.86
64.76
43.15
25.14
11.22
0.46
-8.51
-16.68
-24.20
-30.64
-35.54
-38.93
-41.35
-43.54
-45.97
-48.75
-51.71
-54.71
-57.74
-61.01
-64.78
-69.23
-74.46
-80.48
-87.32
-94.99
-103.45
-112.54
-122.02
-131.56
-140.75
-149.13
-156.14
-161.19
-163.68
-163.18
-159.55
-153.04
-144.32
-134.32
-124.11
-114.66
-106.68
-100.50
-96.03
-92.91
-90.64
-88.89
-87.52
-86.73
-86.81
-87.95
-90.07
-92.76
-95.40
-97.24
-97.62
-95.99
-91.94
-85.18
-75.56
-63.07
-47.93
-30.62
-11.89
7.29
25.86
42.90
57.81
70.34
80.63
88.98
95.81
101.57
106.69
111.70
117.02
122.87
129.02
134.80
139.32
141.82
142.02
140.15
136.93
133.23
129.92
127.67
126.62
126.24
125.12
121.21
112.23
96.43
73.21
43.49
9.60
-25.18
-57.31
-83.60
-101.75
-110.75
-110.96
-104.01
-92.31
-78.44
-64.64
-52.49
-42.90
-36.36
-33.11
-33.03
-35.60
-39.71
-43.91
-46.74
-47.19
-44.94
-40.40
-34.47
-28.17
-22.35
-17.49
-13.68
-10.62
-7.65
-3.90
1.66
9.94
21.53
36.39
53.62
71.41
87.30
98.78
104.06
102.62
95.31
83.85
69.89
54.40
37.58
19.36
0.13
-18.72
-35.10
-46.88
-52.92
-53.51
-50.28
-45.47
-41.03
-38.12
-36.98
-37.19
-38.07
-39.06
-39.78
-40.13
-40.07
-39.66
-38.89
-37.70
-36.04
-33.88
-31.41
-28.94
-26.89
-25.63
-25.19
-25.22
-25.09
-24.19
-22.22
-19.38
-16.22
-13.20
-10.40
-7.42
-3.61
1.44
7.51
13.74
18.96
22.16
22.91
21.53
18.85
15.97
13.89
13.30
14.46
17.18
20.79
24.27
26.47
26.40
23.58
18.34
11.79
5.60
1.36
0.08
1.72
5.27
9.08
11.46
11.25
8.01
1.98
-6.17
-15.59
-25.45
-34.95
-43.32
-49.93
-54.42
-56.72
-57.07
-55.82
-53.32
-49.80
-45.43
-40.34
-34.71
-28.73
-22.62
-16.62
-11.02
-6.14
-2.26
0.48
2.21
3.31
4.29
5.55
7.22
9.15
10.99
12.37
13.11
13.20
12.79
12.07
11.19
10.22
9.15
7.89
6.39
4.60
2.58
0.44
-1.63
-3.45
-4.92
-6.06
-6.99
-7.95
-9.13
-10.69
-12.61
-14.67
-16.49
-17.58
-17.44
-15.75
-12.40
-7.54
-1.58
4.91
11.36
17.22
22.11
25.79
28.28
29.74
30.47
30.78
30.91
30.99
30.99
30.75
30.10
28.93
27.27
25.36
23.53
22.07
21.09
20.52
20.09
19.49
18.55
17.25
15.70
14.00
12.20
10.20
7.88
5.15
2.00
-1.46
-5.15
-8.90
-12.49
-15.61
-17.89
-18.96
-18.59
-16.81
-13.85
-10.12
-6.04
-2.02
1.68
4.83
7.30
9.02
9.97
10.31
10.27
10.16
10.29
10.87
11.97
13.52
15.33
17.16
18.81
20.17
21.28
22.29
23.40
24.74
26.26
27.75
28.82
29.19
28.82
28.06
27.61
28.33
30.96
35.80
42.47
49.81
56.15
59.64
58.83
53.08
42.90
29.69
15.37
1.77
-9.84
-18.88
-25.39
-29.71
-32.21
-33.18
-32.90
-31.69
-29.95
-28.12
-26.51
-25.21
-24.11
-22.86
-21.14
-18.75
-15.74
-12.34
-8.93
-5.81
-3.18
-1.08
0.58
1.87
2.80
3.35
3.47
3.14
2.44
1.42
0.10
-1.65
-4.11
-7.59
-12.29
-18.09
-24.45
-30.47
-35.07
-37.35
-36.75
-33.24
-27.17
-19.17
-10.02
-0.43
8.99
17.83
26.00
33.72
41.48
49.79
59.02
69.18
79.89
90.46
100.01
107.75
113.13
116.07
117.02
116.99
117.32
119.36
124.01
131.29
140.27
149.17
155.87
158.37
155.24
145.78
130.12
109.04
83.85
56.23
28.03
1.10
-22.96
-43.04
-58.57
-69.53
-76.27
-79.17
-78.53
-74.45
-66.90
-55.88
-41.58
-24.56
-5.77
13.46
31.55
46.90
58.22
64.92
67.28
66.58
64.79
64.07
66.16
71.90
81.16
93.04
106.38
120.28
134.36
148.76
163.81
179.78
196.73
214.49
232.19
249.02
264.38
277.71
288.34
295.62
299.33
299.72
297.27
291.62
282.09
268.09
249.62
227.45
203.13
178.55
155.30
134.10
113.39
91.75
69.09
46.85
26.95
10.82
-1.18
-9.78
-16.53
-26.90
-44.25
-67.85
-93.62
-117.14
-135.80
-149.22
-158.87
-167.36
-185.24
-219.09
-267.82
-324.16
-380.48
-432.57
-479.74
-523.54
-566.46
-623.10
-702.21
-801.80
-911.54
-1020.48
-1120.87
-1206.61
-1271.11
-1307.81
-1328.18
-1341.26
-1348.06
-1343.27
-1323.24
-1289.59
-1246.69
-1198.83
-1050.75
-768.93
-395.63
-19.84
289.95
513.48
662.42
757.95
818.74
857.51
865.99
839.91
787.09
725.31
671.15
633.12
612.20
605.19
607.33
602.14
579.55
541.32
498.56
462.71
439.86
430.90
433.41
443.18
447.45
436.43
407.32
363.86
311.60
254.95
197.34
141.80
90.73
44.81
5.60
-24.19
-42.00
-47.82
-44.88
-38.09
-31.98
-29.13
-30.71
-35.52
-40.19
-40.64
-34.24
-21.03
-3.74
12.89
23.22
22.08
5.87
-25.75
-68.86
-115.56
-155.84
-180.65
-185.07
-169.95
-141.28
-107.92
-78.10
-56.56
-43.54
-35.97
-29.89
-22.75
-14.38
-6.03
0.58
4.59
6.58
8.41
12.04
18.24
26.14
33.74
40.01
44.97
49.61
55.42
63.85
75.76
90.78
107.26
122.88
136.72
148.10
155.81
158.01
153.14
140.92
122.85
102.06
82.90
71.70
73.47
89.51
116.81
149.41
180.45
203.87
215.65
203.97
165.33
107.79
47.34
-2.34
-36.15
-56.14
-67.01
-72.88
-76.10
-76.17
-72.44
-65.89
-59.00
-53.95
-51.30
-50.08
-48.68
-45.72
-39.56
-29.59
-16.95
-4.12
6.53
13.87
17.94
19.29
18.55
16.49
13.78
10.25
4.95
-2.94
-13.50
-26.17
-40.20
-52.91
-63.63
-71.69
-76.68
-78.98
-79.19
-78.01
-76.20
-74.61
-73.64
-73.37
-73.13
-71.90
-69.15
-64.82
-59.45
-54.10
-50.13
-48.11
-48.08
-50.39
-52.64
-53.75
-53.52
-52.87
-51.75
-52.48
-55.98
-62.49
-71.69
-82.75
-94.37
-103.90
-107.56
-101.60
-84.32
-57.14
-24.96
5.67
29.34
43.50
49.24
49.87
48.90
48.22
48.34
49.11
50.69
54.91
64.08
79.98
102.07
126.82
148.01
158.56
153.74
133.28
102.17
68.33
40.88
24.72
19.30
19.59
19.04
13.28
0.98
-16.86
-38.78
-63.69
-90.83
-118.11
-140.46
-152.78
-151.13
-135.24
-109.36
-80.86
-56.87
-41.60
-34.91
-33.43
-33.06
-30.94
-26.15
-19.32
-11.48
-3.14
5.63
14.79
23.89
31.82
37.57
40.36
40.18
37.72
34.09
30.39
27.29
24.92
22.77
20.15
16.60
11.97
6.58
1.09
-3.68
-7.06
-8.75
-8.94
-8.28
-7.37
-6.93
-7.49
-9.09
-11.28
-13.18
-13.82
-12.58
-9.58
-5.30
-0.94
2.19
3.33
2.82
2.08
3.13
7.75
16.56
29.37
44.73
60.67
75.94
90.69
106.72
127.35
156.93
195.64
244.16
301.08
361.91
418.91
462.42
483.23
475.66
440.16
383.91
319.75
261.34
218.77
195.34
186.98
184.56
177.92
159.75
127.58
83.94
33.64
-18.81
-70.80
-121.72
-172.13
-222.23
-271.51
-319.38
-365.99
-413.40
-464.10
-518.82
-574.03
-622.25
-654.61
-665.01
-653.43
-625.92
-592.01
-559.54
-531.38
-504.54
-473.61
-434.28
-385.91
-331.01
-272.81
-213.47
-152.88
-90.02
-23.61
46.27
119.19
194.58
272.61
354.63
437.98
515.10
576.20
614.60
627.69
615.79
578.80
517.39
436.35
345.15
261.18
190.80
135.06
89.94
49.42
7.13
-39.99
-89.10
-133.56
-166.35
-175.97
-157.28
-122.41
-82.04
-42.00
-8.40
15.44
28.75
32.97
30.24
22.83
12.60
2.09
-7.77
-17.54
-27.58
-37.78
-47.41
-55.92
-63.37
-70.15
-75.52
-78.83
-79.62
-77.03
-70.62
-60.81
-49.19
-38.16
-29.74
-24.28
-21.35
-20.12
-19.48
-18.49
-16.71
-14.18
-11.23
-8.07
-4.45
-0.40
3.44
6.05
6.41
3.92
-1.17
-7.84
-14.59
-20.10
-23.92
-26.70
-29.65
-33.92
-40.08
-48.06
-57.33
-67.28
-77.26
-86.50
-93.96
-98.40
-98.74
-94.32
-85.21
-71.85
-54.78
-34.25
-10.36
16.47
44.90
72.36
95.46
110.68
115.65
109.90
95.23
75.37
54.95
38.14
27.59
23.72
24.92
28.31
30.85
30.24
25.54
17.17
6.56
-4.36
-13.68
-20.00
-22.57
-21.44
-17.25
-11.02
-3.89
3.07
8.91
12.94
14.73
14.29
12.13
9.18
6.56
5.17
5.39
7.03
9.48
12.12
14.58
16.87
19.28
22.16
25.82
30.42
35.99
42.32
48.98
55.26
60.27
63.19
63.43
60.88
55.82
48.83
40.68
32.09
23.77
16.25
9.94
5.08
1.67
-0.54
-2.04
-3.51
-5.67
-9.04
-13.77
-19.56
-25.86
-32.10
-38.07
-43.95
-50.29
-57.58
-65.86
-74.46
-82.07
-87.08
-88.18
-84.91
-77.72
-67.90
-57.05
-46.69
-38.16
-32.74
-31.77
-36.47
-47.57
-64.72
-86.30
-109.67
-131.79
-150.05
-162.78
-169.18
-169.00
-162.02
-147.76
-125.71
-95.71
-58.52
-16.09
28.54
71.72
109.96
140.79
163.16
177.49
185.22
188.17
187.85
185.25
180.90
174.99
167.75
159.51
150.64
141.46
132.14
122.72
113.23
103.80
94.59
85.80
77.50
69.52
61.53
53.23
44.51
35.62
27.05
19.38
12.95
7.67
3.10
-1.37
-6.10
-11.03
-15.57
-18.88
-20.20
-19.14
-15.81
-10.82
-5.01
0.75
5.78
9.78
12.93
15.74
18.92
23.09
28.37
34.23
39.56
43.00
43.50
40.60
34.70
26.81
18.22
10.14
3.42
-1.52
-4.69
-6.50
-7.64
-8.91
-10.95
-13.90
-17.23
-19.88
-20.63
-18.64
-13.82
-6.80
1.42
9.96
18.32
26.39
34.13
41.22
47.04
50.84
52.20
51.25
48.69
45.49
42.49
40.08
38.22
36.67
35.29
34.17
33.43
32.95
32.11
29.79
24.78
16.33
4.67
-8.80
-21.71
-31.35
-35.48
-33.02
-24.42
-11.59
2.60
15.03
23.09
25.24
21.35
12.81
2.30
-6.60
-10.31
-6.23
6.29
25.53
47.86
69.03
85.71
96.58
102.31
104.60
104.80
103.05
98.37
89.71
77.10
62.20
47.85
36.80
30.50
28.48
28.82
29.20
28.07
25.29
22.00
19.80
19.88
22.49
26.95
32.16
37.19
41.55
44.85
46.25
44.11
36.22
20.71
-2.76
-32.39
-64.42
-94.29
-118.20
-134.15
-142.23
-144.04
-141.79
-137.56
-133.04
-129.55
-127.99
-128.73
-131.23
-134.06
-135.34
-133.55
-128.29
-120.57
-112.36
-105.67
-101.63
-100.08
-99.94
-99.89
-99.05
-97.31
-95.05
-92.63
-90.02
-86.69
-82.00
-75.53
-67.48
-58.56
-49.74
-41.93
-35.64
-30.94
-27.57
-25.21
-23.70
-23.08
-23.57
-25.25
-27.94
-31.12
-34.05
-36.10
-36.97
-36.82
-36.18
-35.67
-35.74
-36.50
-37.70
-38.95
-39.91
-40.39
-40.41
-40.09
-39.50
-38.61
-37.29
-35.37
-32.78
-29.60
-26.06
-22.48
-19.08
-15.90
-12.66
-8.89
-4.03
2.36
10.44
20.00
30.49
41.18
51.27
60.13
67.39
72.93
76.88
79.41
80.72
80.92
80.03
77.98
74.76
70.41
65.14
59.26
53.18
47.31
41.95
37.32
33.52
30.59
28.49
27.12
26.24
25.50
24.47
22.77
20.20
16.78
12.76
8.52
4.47
1.02
-1.53
-3.00
-3.42
-3.03
-2.23
-1.46
-1.03
-0.97
-1.06
-0.89
-0.08
1.50
3.63
5.77
7.26
7.52
6.20
3.32
-0.79
-5.62
-10.58
-15.13
-18.85
-21.52
-23.17
-23.99
-24.33
-24.51
-24.74
-25.04
-25.31
-25.38
-25.14
-24.53
-23.56
-22.25
-20.58
-18.53
-16.16
-13.59
-11.03
-8.69
-6.72
-5.21
-4.16
-3.61
-3.64
-4.37
-5.91
-8.28
-11.32
-14.71
-18.07
-21.05
-23.42
-25.14
-26.31
-27.12
-27.77
-28.35
-28.84
-29.09
-28.84
-27.83
-25.95
-23.28
-20.17
-17.13
-14.63
-12.97
-12.15
-11.90
-11.80
-11.43
-10.55
-9.13
-7.37
-5.60
-4.12
-3.13
-2.69
-2.77
-3.29
-4.20
-5.48
-7.12
-9.10
-11.39
-14.01
-16.98
-20.28
-23.70
-26.81
-28.92
-29.34
-27.62
-23.76
-18.22
-11.78
-5.25
0.72
5.73
9.64
12.47
14.38
15.59
16.41
17.07
17.70
18.29
18.70
18.81
18.59
18.13
17.63
17.26
17.09
17.07
17.14
17.14
17.00
16.64
15.99
14.97
13.47
11.37
8.57
5.06
0.92
-3.62
-8.19
-12.38
-15.77
-18.03
-18.97
-18.57
-16.95
-14.38
-11.21
-7.81
-4.55
-1.70
0.53
1.92
2.24
1.24
-1.23
-5.12
-10.09
-15.47
-20.53
-24.69
-27.74
-29.85
-31.40
-32.75
-34.08
-35.34
-36.27
-36.40
-34.96
-31.10
-24.22
-14.45
-2.97
8.15
16.72
21.29
21.84
19.58
16.17
12.68
9.06
4.32
-2.65
-12.07
-22.92
-33.17
-40.36
-42.35
-37.63
-25.39
-5.64
20.64
51.18
82.60
111.19
134.05
150.08
160.18
166.52
171.23
175.39
178.74
180.28
179.25
175.63
170.10
163.29
155.24
145.44
133.42
119.35
104.21
89.08
74.42
59.68
43.83
26.50
8.94
-5.88
-14.38
-13.96
-4.37
12.00
31.13
48.83
62.14
69.75
71.84
69.26
62.94
53.69
42.27
29.55
16.56
4.27
-6.77
-16.56
-25.67
-34.81
-44.57
-55.00
-65.58
-75.41
-83.55
-89.39
-92.79
-94.09
-93.87
-92.68
-90.77
-88.08
-84.31
-79.25
-72.95
-65.85
-58.70
-52.29
-47.13
-43.35
-40.66
-38.61
-36.76
-34.94
-33.15
-31.52
-30.14
-29.01
-28.01
-26.96
-25.71
-24.04
-21.71
-18.36
-13.61
-7.21
0.81
10.09
19.94
29.46
37.84
44.47
49.11
51.82
52.84
52.47
51.01
48.73
45.88
42.74
39.60
36.69
34.14
31.99
30.12
28.35
26.47
24.29
21.69
18.65
15.23
11.62
8.05
4.68
1.60
-1.24
-3.96
-6.62
-9.28
-11.95
-14.63
-17.42
-20.37
-23.37
-26.03
-27.69
-27.63
-25.44
-21.22
-15.66
-9.77
-4.52
-0.52
2.13
3.65
4.37
4.55
4.28
3.63
2.77
2.00
1.65
1.95
2.86
4.07
5.11
5.57
5.19
3.93
1.90
-0.83
-4.29
-8.55
-13.62
-19.33
-25.24
-30.75
-35.26
-38.38
-40.06
-40.56
-40.34
-39.91
-39.71
-39.97
-40.68
-41.53
-42.00
-41.48
-39.51
-35.87
-30.72
-24.51
-17.87
-11.45
-5.74
-1.13
2.17
4.11
4.79
4.53
3.77
3.06
2.80
3.28
4.52
6.38
8.61
10.89
12.96
14.56
15.53
15.80
15.44
14.58
13.35
11.81
9.93
7.60
4.79
1.51
-2.08
-5.74
-9.30
-12.61
-15.67
-18.55
-21.39
-24.37
-27.58
-30.96
-34.25
-36.91
-38.29
-37.81
-35.23
-30.77
-25.04
-18.87
-12.99
-7.86
-3.61
-0.16
2.60
4.69
6.09
6.80
6.91
6.69
6.42
6.34
6.49
6.73
6.74
6.18
4.73
2.29
-1.07
-4.99
-8.97
-12.55
-15.45
-17.76
-19.90
-22.48
-25.99
-30.55
-35.71
-40.69
-44.59
-46.88
-47.62
-47.59
-47.97
-49.93
-54.10
-60.18
-66.99
-72.78
-75.94
-75.61
-71.97
-66.00
-58.89
-51.42
-43.59
-34.85
-24.59
-12.39
2.23
19.95
41.27
65.52
89.95
109.84
120.16
118.09
104.79
85.27
66.09
52.18
44.81
41.69
39.22
35.02
29.18
23.60
20.05
18.73
18.11
16.12
11.71
5.47
-0.70
-4.70
-5.30
-2.61
2.05
6.93
10.57
12.24
11.95
10.26
7.71
4.54
0.60
-4.37
-10.44
-17.10
-23.30
-27.78
-29.51
-28.15
-24.16
-18.61
-12.73
-7.50
-3.36
-0.28
2.08
4.10
6.03
7.89
9.64
11.18
12.53
13.79
15.10
16.58
18.20
19.80
21.11
21.89
22.05
21.66
20.90
20.00
19.06
18.07
16.87
15.33
13.43
11.20
8.75
6.12
3.32
0.28
-3.01
-6.54
-10.24
-14.08
-18.08
-22.24
-26.44
-30.27
-33.14
-34.47
-33.87
-31.39
-27.48
-22.79
-17.94
-13.34
-9.11
-5.24
-1.76
1.23
3.49
4.86
5.40
5.44
5.44
5.89
7.02
8.71
10.58
12.15
13.04
13.17
12.69
11.87
10.94
9.97
8.90
7.59
5.95
3.99
1.82
-0.44
-2.65
-4.69
-6.48
-7.94
-9.01
-9.73
-10.20
-10.59
-11.11
-11.82
-12.62
-13.17
-13.01
-11.68
-8.98
-5.03
-0.26
4.72
9.33
13.19
16.13
18.16
19.35
19.75
19.43
18.50
17.15
15.64
14.19
12.95
11.92
10.97
9.99
8.92
7.79
6.71
5.78
5.02
4.35
3.56
2.50
1.09
-0.61
-2.43
-4.14
-5.52
-6.50
-7.11
-7.54
-8.07
-8.95
-10.39
-12.38
-14.74
-17.08
-18.95
-19.93
-19.83
-18.78
-17.12
-15.36
-13.93
-13.12
-13.01
-13.49
-14.37
-15.42
-16.47
-17.37
-18.12
-18.71
-19.24
-19.81
-20.45
-21.10
-21.57
-21.65
-21.16
-20.11
-18.68
-17.18
-15.96
-15.19
-14.82
-14.57
-14.06
-13.00
-11.29
-9.07
-6.68
-4.38
-2.37
-0.65
0.84
2.20
3.52
4.90
6.52
8.62
11.44
15.12
19.61
24.64
29.83
34.80
39.24
43.08
46.39
49.37
52.30
55.43
58.96
63.02
67.67
72.93
78.80
85.14
91.69
98.04
103.67
108.10
111.02
112.36
112.30
111.16
109.16
106.34
102.53
97.42
90.81
82.78
73.66
64.04
54.42
45.09
36.02
26.93
17.47
7.38
-3.31
-14.34
-25.24
-35.46
-44.44
-51.65
-56.60
-58.89
-58.34
-55.24
-50.46
-45.39
-41.57
-40.22
-41.83
-45.97
-51.62
-57.67
-63.33
-68.38
-72.92
-77.08
-80.63
-83.02
-83.61
-82.01
-78.42
-73.51
-68.19
-63.23
-58.96
-55.26
-51.64
-47.65
-43.14
-38.38
-33.98
-30.55
-28.44
-27.54
-27.32
-27.13
-26.46
-25.04
-22.79
-19.61
-15.28
-9.60
-2.60
5.21
12.86
19.26
23.56
25.46
25.27
23.66
21.29
18.74
16.35
14.40
13.18
12.92
13.73
15.58
18.27
21.53
25.12
28.76
32.15
34.95
36.87
37.73
37.59
36.74
35.54
34.29
33.13
32.09
31.20
30.57
30.39
30.73
31.48
32.24
32.45
31.64
29.61
26.60
23.20
20.12
17.99
17.16
17.57
18.84
20.32
21.31
21.17
19.53
16.34
11.87
6.67
1.33
-3.59
-7.68
-10.72
-12.72
-13.90
-14.65
-15.47
-16.86
-19.13
-22.35
-26.37
-30.90
-35.64
-40.40
-45.08
-49.61
-53.90
-57.85
-61.40
-64.58
-67.52
-70.36
-73.27
-76.32
-79.48
-82.64
-85.60
-88.08
-89.80
-90.50
-89.96
-88.02
-84.51
-79.30
-72.31
-63.61
-53.47
-42.33
-30.77
-19.36
-8.56
1.29
9.95
17.21
22.86
26.75
28.86
29.34
28.42
26.33
23.21
19.20
14.54
9.70
5.36
2.24
0.83
1.10
2.48
4.10
5.18
5.48
5.37
5.60
7.01
10.01
14.59
20.39
26.99
34.15
41.86
50.23
59.25
68.66
77.93
86.46
93.73
99.52
103.91
107.33
110.31
113.47
117.26
121.69
126.09
129.14
129.13
124.62
114.96
100.72
83.58
65.79
49.49
36.16
26.24
19.19
13.84
8.70
2.51
-5.53
-15.45
-26.64
-38.00
-48.42
-57.07
-63.62
-68.21
-71.17
-72.91
-73.60
-73.10
-70.85
-66.01
-57.86
-46.06
-31.06
-14.13
2.92
18.28
30.65
39.55
45.24
48.34
49.49
49.08
47.27
44.06
39.37
33.06
24.95
14.84
2.77
-10.81
-24.87
-37.92
-48.36
-55.07
-57.83
-57.54
-55.95
-54.98
-56.10
-59.70
-65.12
-70.89
-75.33
-77.19
-76.02
-72.18
-66.58
-60.29
-54.23
-48.95
-44.73
-41.58
-39.43
-38.09
-37.26
-36.56
-35.51
-33.67
-30.67
-26.31
-20.63
-13.88
-6.58
0.65
7.12
12.36
16.19
18.88
21.03
23.36
26.44
30.46
35.09
39.62
43.14
44.84
44.26
41.42
36.81
31.16
25.24
19.65
14.71
10.54
7.15
4.51
2.64
1.51
0.99
0.82
0.61
0.01
-1.16
-2.76
-4.35
-5.35
-5.27
-3.91
-1.40
1.87
5.42
8.90
12.13
15.05
17.70
20.04
22.02
23.57
24.62
25.12
25.05
24.39
23.13
21.25
18.67
15.32
11.16
6.33
1.21
-3.58
-7.32
-9.44
-9.84
-8.86
-7.29
-5.94
-5.38
-5.71
-6.59
-7.54
-8.17
-8.36
-8.24
-8.06
-7.95
-7.82
-7.42
-6.49
-4.94
-2.96
-0.91
0.87
2.22
3.26
4.23
5.39
6.73
8.04
8.96
9.23
8.77
7.78
6.54
5.28
4.05
2.75
1.23
-0.56
-2.52
-4.43
-6.10
-7.43
-8.41
-9.12
-9.56
-9.65
-9.24
-8.24
-6.73
-4.92
-3.13
-1.60
-0.34
0.82
2.12
3.69
5.43
7.06
8.29
8.99
9.30
9.49
9.85
10.44
11.09
11.51
11.46
10.89
9.88
8.64
7.25
5.74
4.01
2.00
-0.29
-2.69
-4.99
-6.90
-8.20
-8.69
-8.29
-7.01
-5.04
-2.68
-0.35
1.52
2.57
2.61
1.69
0.07
-1.86
-3.77
-5.52
-7.22
-9.17
-11.70
-14.95
-18.67
-22.29
-25.02
-26.18
-25.47
-23.02
-19.33
-15.11
-11.04
-7.69
-5.51
-4.77
-5.56
-7.67
-10.58
-13.56
-15.85
-16.98
-16.84
-15.76
-14.26
-12.84
-11.93
-11.79
-12.56
-14.23
-16.49
-18.70
-20.02
-19.82
-18.02
-15.32
-12.83
-11.53
-11.70
-12.66
-13.20
-12.21
-9.31
-5.00
-0.32
3.75
6.75
8.82
10.42
11.94
13.39
14.49
14.89
14.41
13.24
11.81
10.68
10.19
10.47
11.36
12.54
13.69
14.65
15.47
16.44
17.91
20.15
23.23
26.96
30.98
34.89
38.40
41.48
44.31
47.19
50.33
53.73
57.16
60.25
62.61
64.04
64.56
64.37
63.75
62.92
61.94
60.75
59.19
57.11
54.50
51.45
48.18
44.90
41.77
38.84
36.06
33.27
30.24
26.72
22.47
17.35
11.47
5.26
-0.60
-5.34
-8.44
-9.84
-10.05
-9.88
-10.17
-11.35
-13.36
-15.73
-17.87
-19.44
-20.51
-21.54
-23.06
-25.45
-28.69
-32.37
-35.92
-38.85
-40.90
-42.11
-42.63
-42.66
-42.30
-41.61
-40.62
-39.28
-37.33
-34.28
-29.44
-22.22
-12.34
-0.08
13.73
27.99
41.60
53.68
63.68
71.30
76.52
79.52
80.73
80.66
79.72
78.10
75.72
72.36
67.89
62.49
56.52
50.44
44.57
39.08
34.11
29.93
26.97
25.54
25.57
26.39
26.91
26.09
23.38
18.94
13.47
7.78
2.41
-2.54
-7.24
-11.87
-16.43
-20.74
-24.59
-27.86
-30.53
-32.63
-34.12
-34.94
-35.16
-35.04
-35.13
-36.02
-38.20
-41.74
-46.19
-50.79
-54.75
-57.68
-59.81
-61.86
-64.71
-68.81
-73.88
-78.94
-82.73
-84.24
-83.11
-79.65
-74.55
-68.49
-61.87
-54.86
-47.56
-40.21
-33.24
-27.13
-22.26
-18.81
-16.85
-16.45
-17.82
-21.06
-26.01
-31.86
-37.15
-40.04
-38.90
-32.88
-22.31
-8.54
6.55
21.28
34.53
45.81
54.93
61.66
65.71
66.90
65.47
62.08
57.62
52.77
47.74
42.43
36.81
31.26
26.57
23.57
22.51
22.81
23.31
22.85
20.90
17.88
14.91
13.19
13.41
15.33
17.74
18.81
16.67
9.90
-1.90
-17.96
-36.38
-54.57
-69.90
-80.42
-85.31
-84.92
-80.49
-73.57
-65.68
-58.07
-51.87
-48.18
-47.98
-51.88
-59.59
-69.78
-80.23
-88.52
-92.79
-92.32
-87.53
-79.56
-69.66
-58.83
-47.77
-37.04
-27.36
-19.47
-13.92
-10.67
-9.01
-7.58
-4.91
0.10
7.82
17.71
28.50
38.57
46.44
51.29
53.20
53.08
52.33
52.25
53.60
56.39
60.07
63.90
67.30
69.94
71.62
72.06
70.76
67.21
61.23
53.26
44.45
36.41
30.69
28.26
29.22
32.86
37.97
43.34
48.19
52.37
56.30
60.84
67.00
75.62
87.19
101.57
117.89
134.56
149.43
160.22
164.91
162.26
152.06
135.10
112.96
87.50
60.44
33.16
6.69
-18.06
-40.14
-58.48
-72.24
-81.04
-85.35
-86.42
-85.92
-85.41
-86.00
-88.20
-92.18
-98.01
-105.77
-115.42
-126.37
-137.33
-146.40
-151.66
-151.86
-147.10
-138.84
-129.54
-121.85
-117.60
-117.14
-118.96
-120.03
-116.94
-107.37
-91.28
-71.14
-50.89
-34.22
-22.89
-16.06
-10.93
-4.33
5.56
18.30
31.37
41.41
45.72
43.38
35.46
24.49
13.27
3.88
-3.06
-8.30
-13.31
-19.19
-26.00
-32.73
-37.91
-40.43
-39.97
-36.85
-31.53
-24.26
-14.96
-3.72
8.81
21.14
31.16
36.76
36.56
30.50
19.89
7.13
-5.06
-14.47
-20.19
-22.82
-24.25
-26.73
-31.95
-40.09
-49.77
-58.63
-64.40
-65.74
-62.61
-55.90
-46.82
-36.43
-25.31
-13.74
-1.93
9.88
21.60
33.41
45.70
58.74
72.03
84.50
94.83
102.06
106.15
108.00
109.02
110.58
113.00
114.94
114.28
109.03
98.03
81.48
60.81
38.25
16.45
-2.83
-20.12
-36.99
-55.36
-76.53
-100.46
-125.67
-149.70
-169.55
-183.73
-194.32
-204.55
-217.51
-234.63
-255.05
-276.21
-295.00
-307.98
-313.95
-315.31
-314.77
-314.00
-313.19
-311.77
-309.93
-309.25
-311.07
-301.19
-269.13
-209.26
-124.74
-27.51
66.91
145.75
197.00
226.66
244.68
258.84
274.39
293.55
315.66
339.26
360.90
375.77
381.08
374.18
354.77
321.44
273.91
215.22
151.32
90.70
40.34
3.53
-22.87
-46.62
-75.20
-112.26
-156.22
-201.02
-238.34
-260.11
-259.99
-236.21
-191.84
-132.53
-64.78
5.78
74.79
138.96
195.23
240.54
271.60
286.47
287.28
279.75
271.18
267.32
269.94
276.53
281.80
280.31
262.26
224.66
172.43
116.58
68.25
33.05
10.13
-4.76
-15.68
-24.36
-29.58
-29.89
-25.22
-17.44
-9.52
-3.88
-1.46
-1.62
-2.82
-2.69
0.21
6.03
13.60
21.06
26.86
30.34
31.51
30.78
28.95
26.36
22.71
17.29
9.38
-1.34
-14.69
-30.06
-46.76
-62.43
-76.54
-88.72
-98.72
-106.51
-111.91
-114.70
-114.73
-112.06
-107.29
-102.16
-99.01
-99.93
-105.09
-111.64
-113.81
-105.13
-81.66
-44.47
0.27
44.13
79.78
103.12
113.43
111.64
98.44
74.31
40.54
0.68
-39.06
-71.96
-93.77
-104.72
-108.79
-110.61
-112.11
-111.40
-103.94
-85.86
-57.01
-21.72
12.93
40.30
56.53
61.97
59.66
53.22
45.31
37.13
28.95
21.21
15.23
12.91
15.54
22.14
29.07
30.71
21.51
-1.06
-34.96
-73.64
-108.45
-132.06
-141.31
-137.76
-126.09
-111.41
-96.92
-82.83
-67.36
-48.28
-24.69
2.16
29.24
52.94
70.39
80.39
83.71
82.36
78.61
74.23
70.28
67.43
66.56
68.51
73.40
79.65
83.67
80.43
65.27
36.36
-3.31
-45.89
-80.41
-96.39
-87.99
-56.81
-11.59
35.11
71.89
93.10
100.07
99.21
97.87
100.57
107.27
114.72
119.21
119.14
116.23
114.53
118.53
131.05
152.01
178.06
203.49
221.62
226.67
215.43
187.90
146.95
97.29
44.71
-4.55
-42.74
-63.17
-62.81
-44.13
-14.62
15.92
39.33
52.04
55.41
53.64
50.58
47.63
43.99
38.40
30.93
23.71
19.78
21.16
27.43
35.50
40.90
39.68
30.06
13.31
-6.55
-24.32
-35.84
-39.86
-38.68
-36.72
-38.12
-44.65
-55.26
-67.16
-77.75
-86.20
-93.62
-102.15
-113.50
-127.78
-143.71
-159.46
-174.07
-187.99
-202.93
-221.18
-244.91
-275.57
-313.48
-357.45
-404.51
-449.65
-486.58
-509.13
-512.99
-497.35
-465.01
-421.02
-370.69
-318.13
-266.57
-219.65
-182.26
-159.71
-155.18
-167.07
-188.23
-208.27
-217.72
-212.05
-193.03
-167.04
-141.33
-120.40
-104.93
-92.91
-81.96
-71.06
-60.73
-52.09
-45.65
-40.83
-36.39
-30.93
-23.66
-14.72
-4.77
5.40
15.35
25.22
35.53
46.89
59.67
73.74
88.62
103.68
118.52
133.00
147.18
161.19
174.95
188.18
200.43
211.40
221.17
230.46
240.58
253.12
269.20
288.80
310.23
330.18
344.49
349.39
342.82
325.09
298.86
268.28
237.67
210.42
188.34
171.77
160.18
152.90
149.66
150.57
155.62
164.11
174.24
183.28
188.57
188.55
183.67
176.19
169.16
164.79
163.10
161.75
156.80
144.28
121.48
87.60
43.80
-7.10
-60.85
-112.23
-155.73
-186.64
-202.24
-202.57
-190.66
-171.63
-151.23
-134.23
-123.37
-119.01
-119.87
-124.11
-130.11
-136.80
-142.99
-146.64
-144.38
-132.27
-107.53
-70.43
-25.01
21.90
63.28
94.66
115.40
128.06
136.25
142.39
146.60
147.22
142.48
131.99
117.36
101.52
87.40
76.54
68.55
61.42
52.56
39.90
22.66
1.50
-21.95
-45.72
-67.97
-87.14
-101.87
-110.75
-112.49
-106.40
-92.83
-73.69
-52.13
-31.70
-15.03
-3.00
5.40
12.35
20.08
30.18
43.24
59.12
77.24
96.59
115.55
132.04
143.90
149.79
150.06
146.91
143.72
143.66
148.25
156.78
166.66
174.56
177.80
175.18
167.01
154.42
138.44
119.32
96.57
69.66
38.32
2.59
-37.56
-82.32
-131.46
-182.97
-232.10
-271.57
-293.05
-290.86
-264.46
-219.12
-164.13
-109.74
-64.24
-32.45
-15.57
-10.54
-12.28
-14.77
-12.41
-1.30
19.79
49.45
84.29
120.06
154.84
187.48
217.44
244.28
267.66
287.77
306.15
325.36
347.71
376.32
411.29
449.79
487.15
518.92
542.65
559.28
572.45
570.28
544.59
490.09
407.73
305.84
197.34
94.75
6.90
-62.59
-114.64
-150.11
-171.29
-180.64
-180.72
-173.05
-161.69
-150.11
-140.79
-135.38
-132.44
-130.46
-127.74
-123.14
-116.61
-109.34
-102.93
-99.18
-100.90
-105.74
-112.40
-119.72
-126.99
-134.21
-142.22
-151.84
-163.56
-178.96
-198.02
-220.91
-247.03
-275.24
-304.40
-333.50
-361.21
-385.73
-407.29
-424.83
-438.18
-446.96
-450.85
-450.13
-445.99
-440.01
-433.69
-431.42
-436.25
-451.89
-480.83
-524.09
-581.54
-652.43
-735.79
-809.41
-856.37
-864.48
-831.91
-763.75
-667.10
-548.64
-415.08
-274.83
-138.07
-25.79
57.84
113.91
147.76
166.84
178.05
185.87
192.50
199.08
204.53
209.04
211.54
211.39
208.51
203.17
195.71
186.98
178.53
170.83
165.37
162.18
160.80
160.55
160.46
159.47
156.81
152.26
145.51
137.25
127.59
116.61
104.53
91.55
77.89
63.86
49.96
36.49
24.09
12.85
2.71
-6.51
-14.96
-22.86
-30.29
-37.21
-43.41
-48.56
-52.46
-54.96
-55.99
-55.48
-53.42
-49.78
-44.59
-37.95
-30.02
-21.08
-11.46
-1.59
8.08
17.04
24.80
30.97
35.28
37.64
38.12
36.97
34.51
31.06
26.93
22.33
17.41
12.30
7.12
2.05
-2.74
-7.10
-10.95
-14.37
-17.60
-20.93
-24.56
-28.49
-32.50
-36.21
-39.19
-41.17
-42.10
-42.12
-41.39
-39.83
-36.95
-31.79
-23.19
-10.13
7.76
30.02
55.38
82.17
108.89
134.66
159.45
183.84
208.50
233.66
258.76
282.72
304.34
323.01
339.01
353.50
368.20
385.05
406.07
433.14
467.30
507.76
550.94
590.45
618.40
627.91
615.72
583.41
536.81
483.67
430.95
383.08
341.68
306.39
276.02
249.24
224.56
200.14
173.92
144.27
110.50
73.32
34.40
-4.29
-41.41
-76.89
-112.30
-150.64
-195.33
-248.53
-309.09
-371.48
-426.39
-463.39
-474.56
-457.44
-415.83
-358.11
-294.04
-231.52
-175.06
-126.07
-84.32
-49.42
-21.34
-0.11
14.84
24.97
32.30
38.70
45.21
51.91
57.94
62.31
64.52
65.05
65.12
66.09
68.62
72.16
75.26
76.27
74.35
69.82
63.95
58.08
52.91
48.24
43.40
37.89
31.79
25.67
20.08
15.03
9.95
4.12
-2.70
-10.04
-16.85
-22.14
-25.55
-27.59
-29.42
-32.27
-36.89
-43.33
-50.96
-58.77
-65.75
-71.12
-74.45
-75.68
-74.98
-72.65
-68.99
-64.26
-58.68
-52.47
-45.89
-39.23
-32.71
-26.50
-20.72
-15.47
-10.94
-7.33
-4.87
-3.76
-4.11
-6.00
-9.38
-14.05
-19.59
-25.30
-30.35
-34.03
-36.02
-36.61
-36.64
-37.15
-38.93
-42.16
-46.27
-50.20
-52.78
-53.23
-51.32
-47.44
-42.35
-36.83
-31.46
-26.47
-21.79
-17.25
-12.71
-8.26
-4.11
-0.43
2.77
5.64
8.38
11.11
13.72
16.03
17.92
19.42
20.66
21.74
22.55
22.90
22.61
21.79
20.76
19.93
19.45
19.13
18.49
17.04
14.57
11.31
7.87
5.05
3.61
4.07
6.50
10.56
15.52
20.54
25.01
28.90
32.73
37.34
43.30
50.50
58.08
64.87
70.07
73.82
77.15
81.27
86.67
92.55
97.08
98.36
95.39
88.44
78.41
66.02
51.16
33.33
12.54
-9.95
-32.02
-51.97
-69.70
-87.05
-106.40
-128.61
-151.64
-171.02
-182.24
-183.43
-176.87
-167.83
-161.69
-160.85
-163.40
-164.36
-158.48
-142.87
-118.04
-86.95
-53.12
-19.22
13.22
43.07
68.66
87.66
97.68
97.39
87.19
69.11
46.36
22.48
0.81
-15.96
-26.11
-29.21
-26.28
-19.62
-12.20
-7.00
-6.33
-11.43
-22.16
-36.82
-52.32
-64.84
-70.96
-68.92
-59.33
-44.95
-29.70
-17.21
-9.77
-8.13
-11.83
-19.86
-31.10
-44.51
-59.23
-74.67
-90.74
-107.88
-126.54
-146.44
-166.14
-183.15
-194.67
-198.50
-193.60
-180.25
-159.81
-134.47
-106.94
-80.21
-56.92
-38.74
-25.88
-17.16
-10.81
-5.49
-0.98
1.88
1.83
-1.91
-9.21
-19.18
-30.71
-42.90
-55.14
-66.82
-77.06
-84.48
-87.45
-84.57
-75.36
-60.86
-43.90
-28.72
-19.94
-20.93
-32.35
-51.49
-72.69
-89.07
-94.85
-87.29
-67.61
-40.31
-11.39
13.90
32.87
46.06
56.78
69.77
89.59
119.14
158.55
204.89
252.44
294.05
322.92
334.61
328.27
306.75
275.40
240.27
206.36
176.75
152.70
134.21
120.57
110.59
102.45
93.83
82.30
66.10
44.79
19.55
-7.18
-32.32
-52.75
-65.86
-69.77
-63.76
-48.56
-26.66
-2.02
20.78
37.81
47.02
48.76
45.28
39.54
33.94
29.58
26.43
24.00
22.12
21.15
21.67
23.85
27.03
29.92
31.23
30.30
27.53
24.12
21.48
20.48
21.07
22.26
22.60
20.80
16.22
9.16
0.70
-7.67
-14.55
-19.03
-20.82
-20.18
-17.72
-14.10
-9.93
-5.64
-1.52
2.24
5.42
7.79
9.16
9.38
8.51
6.76
4.48
2.05
-0.20
-2.09
-3.60
-4.80
-5.74
-6.42
-6.70
-6.40
-5.36
-3.56
-1.22
1.22
3.20
4.20
3.96
2.55
0.32
-2.18
-4.48
-6.27
-7.50
-8.32
-8.94
-9.51
-10.07
-10.52
-10.76
-10.69
-10.31
-9.68
-8.87
-7.92
-6.86
-5.68
-4.44
-3.19
-1.99
-0.86
0.22
1.30
2.41
3.50
4.41
4.92
4.85
4.13
2.85
1.20
-0.60
-2.35
-3.92
-5.17
-5.89
-5.81
-4.66
-2.38
0.76
4.14
6.92
8.33
7.99
6.02
2.98
-0.36
-3.31
-5.42
-6.63
-7.16
-7.32
-7.36
-7.31
-6.88
-5.67
-3.25
0.58
5.67
11.57
17.66
23.29
27.88
30.92
31.95
30.61
26.79
20.75
13.23
5.27
-2.09
-8.10
-12.43
-15.08
-16.19
-15.79
-13.77
-10.07
-4.96
0.77
5.85
8.89
8.76
5.06
-1.79
-10.61
-19.78
-27.63
-32.65
-33.80
-30.54
-22.98
-11.98
0.80
12.99
21.90
25.07
21.00
9.64
-7.42
-27.15
-45.79
-59.52
-65.30
-61.56
-48.53
-28.37
-4.85
17.38
33.84
41.29
38.55
26.76
9.01
-10.45
-27.20
-37.66
-39.86
-33.78
-21.43
-6.24
7.80
17.32
20.50
17.44
9.95
0.72
-7.61
-13.29
-15.84
-15.92
-14.87
-14.13
-14.68
-16.69
-19.49
-21.84
-22.41
-20.22
-14.98
-7.16
2.24
11.91
20.63
27.43
31.67
33.16
32.04
28.85
24.33
19.32
14.58
10.64
7.72
5.73
4.34
3.10
1.61
-0.45
-3.14
-6.29
-9.54
-12.44
-14.60
-15.87
-16.38
-16.49
-16.62
-17.12
-18.21
-19.91
-22.13
-24.63
-27.14
-29.33
-30.94
-31.77
-31.74
-30.84
-29.15
-26.75
-23.84
-20.76
-18.01
-16.13
-15.58
-16.51
-18.74
-21.79
-25.17
-28.46
-31.48
-34.20
-36.65
-38.89
-40.95
-42.84
-44.53
-45.79
-46.14
-44.81
-41.03
-34.33
-24.93
-13.71
-1.94
9.23
19.26
28.26
36.73
45.08
53.20
60.45
65.87
68.73
68.82
66.69
63.63
61.49
62.39
68.23
80.13
97.92
120.07
143.99
166.72
185.66
199.02
206.00
206.49
200.98
190.41
176.22
160.18
144.03
129.01
115.39
102.46
88.89
73.41
55.28
34.64
12.33
-10.48
-32.72
-53.78
-73.62
-92.79
-112.59
-134.90
-161.70
-194.22
-231.78
-271.09
-306.37
-330.77
-338.55
-327.17
-298.21
-256.71
-209.32
-162.09
-119.23
-82.89
-53.80
-32.06
-17.34
-8.67
-4.31
-2.10
-0.03
2.95
6.67
10.14
12.38
13.11
12.90
12.62
12.86
13.59
14.26
14.33
13.83
13.44
14.42
18.11
25.62
37.57
53.85
73.47
94.57
114.59
130.70
140.40
141.97
134.65
118.73
95.55
67.58
38.43
12.55
-6.01
-14.76
-13.79
-5.91
4.72
14.46
21.99
28.78
38.11
53.03
74.50
100.57
126.98
148.87
162.45
166.11
160.57
148.26
132.64
117.41
105.61
98.92
96.95
96.90
94.17
83.65
61.38
26.11
-20.34
-73.42
-127.20
-175.65
-213.93
-238.81
-248.88
-244.18
-225.90
-195.76
-155.51
-106.79
-51.27
8.38
67.98
122.05
164.77
191.44
199.58
189.59
163.87
126.21
80.14
28.81
-24.48
-75.45
-118.87
-150.08
-166.03
-167.06
-155.89
-137.36
-116.30
-95.89
-77.31
-60.50
-46.17
-34.90
-27.49
-22.31
-16.50
-6.46
11.00
37.24
71.48
110.48
152.48
197.28
247.99
306.69
372.07
438.45
496.83
538.49
557.15
554.22
521.72
458.93
369.68
261.84
145.76
31.36
-64.73
-141.62
-201.76
-248.23
-282.06
-304.93
-320.10
-329.71
-335.41
-337.00
-334.74
-327.31
-314.16
-294.66
-269.87
-242.05
-213.58
-186.51
-161.92
-141.07
-123.40
-108.07
-93.69
-79.74
-66.65
-54.93
-44.98
-36.60
-29.74
-23.68
-17.92
-12.32
-7.82
-6.11
-8.81
-16.73
-29.43
-45.70
-64.00
-82.98
-101.92
-119.31
-135.59
-151.41
-167.39
-183.94
-200.88
-217.14
-229.63
-233.52
-223.81
-198.14
-158.24
-110.31
-64.17
-25.92
0.93
16.68
24.52
28.06
29.22
28.09
24.00
16.94
8.60
1.23
-3.22
-4.06
-2.51
-1.11
-2.31
-7.04
-14.25
-21.16
-24.87
-23.48
-16.64
-5.96
5.95
16.67
25.30
32.89
42.21
56.82
78.31
108.39
147.93
196.24
250.24
303.99
349.33
378.07
384.68
368.22
333.04
286.65
236.71
188.56
144.25
103.41
65.01
28.73
-5.19
-36.29
-64.86
-92.00
-118.94
-146.14
-172.88
-197.41
-215.44
-222.96
-217.67
-200.45
-174.95
-145.94
-117.42
-91.68
-69.23
-49.50
-31.97
-16.49
-3.35
7.08
14.65
19.69
22.87
25.16
27.60
30.66
34.34
38.31
42.20
45.75
48.94
51.79
54.52
57.41
60.49
63.54
66.26
68.46
69.77
69.79
67.96
63.60
56.31
45.90
32.56
16.87
-0.18
-17.79
-34.33
-49.79
-64.23
-77.64
-89.83
-100.29
-108.31
-113.03
-114.43
-113.11
-110.65
-108.40
-107.25
-107.32
-107.80
-108.82
-108.11
-104.68
-98.70
-91.71
-85.21
-80.54
-79.14
-82.44
-91.37
-105.26
-121.55
-133.45
-136.01
-125.58
-102.30
-71.11
-39.97
-16.37
-4.08
-2.33
-6.54
-11.23
-12.26
-7.31
3.56
19.13
38.17
60.08
84.16
109.55
134.86
157.59
176.69
191.95
204.13
214.46
223.54
229.96
230.16
219.58
195.26
158.29
113.88
69.93
33.92
10.10
-1.71
-4.91
-3.78
-1.23
2.00
6.02
10.51
14.02
14.59
10.87
3.09
-7.02
-17.31
-26.22
-33.85
-41.85
-52.46
-67.57
-88.12
-113.80
-142.41
-170.94
-194.84
-208.98
-209.37
-194.99
-168.80
-137.30
-108.10
-86.92
-75.65
-72.06
-71.74
-70.63
-66.84
-60.29
-51.84
-41.90
-29.79
-14.47
4.50
26.20
48.41
67.87
82.58
91.85
96.36
97.60
97.21
96.30
95.15
93.33
90.59
86.28
80.46
73.82
67.35
61.89
57.80
54.92
52.64
50.28
47.41
43.97
40.25
36.69
33.70
31.45
29.82
28.57
27.42
26.13
24.72
23.28
22.00
21.01
20.38
20.05
19.98
20.10
20.25
20.38
20.39
20.15
19.51
18.62
17.06
14.70
11.51
7.46
2.64
-2.86
-8.85
-15.09
-21.25
-27.04
-32.11
-36.19
-39.16
-41.02
-41.90
-41.97
-41.50
-40.74
-39.96
-39.24
-38.66
-38.34
-38.32
-38.67
-39.26
-39.82
-39.93
-39.19
-37.00
-33.03
-27.35
-20.40
-12.85
-5.49
1.13
6.83
11.72
16.34
20.97
25.59
29.84
33.12
34.85
34.83
33.55
31.99
31.54
33.06
36.83
42.55
49.43
56.50
63.07
69.05
74.90
81.68
90.35
102.23
118.44
139.04
162.14
183.99
200.14
201.14
181.45
140.09
81.43
13.70
-54.13
-115.38
-167.14
-209.68
-238.86
-250.24
-242.86
-220.18
-188.27
-153.36
-120.44
-92.67
-71.08
-54.93
-42.65
-32.93
-24.87
-17.97
-12.14
-7.55
-4.32
-2.09
-0.11
2.12
4.66
7.38
10.18
12.87
15.22
17.08
18.51
19.90
21.41
22.99
24.57
26.17
27.80
29.44
31.02
32.52
34.14
35.91
37.75
39.56
41.30
42.86
44.02
44.45
43.57
41.29
37.43
31.96
25.05
17.05
8.38
-0.64
-9.12
-17.29
-24.94
-31.85
-37.61
-41.77
-44.03
-44.43
-43.41
-41.77
-40.49
-40.10
-40.75
-41.99
-43.04
-43.11
-41.91
-39.79
-37.67
-36.72
-37.60
-40.32
-44.05
-47.45
-49.48
-49.63
-48.31
-46.56
-45.89
-46.90
-50.17
-56.04
-64.29
-73.53
-80.82
-82.07
-73.51
-53.69
-24.73
7.79
37.01
57.51
67.46
68.68
65.09
60.31
56.16
52.53
48.52
43.74
38.89
35.24
33.66
33.95
34.94
35.18
33.55
29.98
25.33
20.92
17.90
16.74
17.05
17.88
18.15
17.19
14.94
12.00
9.21
7.27
6.46
6.54
6.93
7.04
6.50
5.33
3.88
2.55
1.67
1.30
1.26
1.27
1.10
0.68
0.12
-0.39
-0.71
-0.83
-0.90
-1.11
-1.59
-2.30
-3.01
-3.45
-3.44
-2.99
-2.38
-2.02
-2.30
-3.35
-4.93
-6.56
-7.66
-7.87
-7.22
-6.18
-5.45
-5.70
-7.20
-9.70
-12.49
-14.63
-15.22
-13.68
-9.94
-4.61
1.06
5.42
7.02
5.17
0.37
-5.79
-11.16
-13.99
-13.61
-10.66
-6.74
-3.57
-2.18
-2.56
-3.64
-3.84
-1.61
3.86
12.41
22.86
33.31
41.69
46.43
46.84
43.32
37.07
29.61
22.39
16.39
12.18
9.97
9.71
11.19
13.83
16.72
18.73
18.69
15.76
9.80
1.58
-7.32
-14.97
-19.75
-20.96
-19.06
-15.48
-11.93
-9.60
-8.58
-7.84
-5.78
-1.22
6.02
14.92
23.82
31.22
36.41
39.57
41.30
41.85
40.45
35.34
24.29
5.34
-22.35
-58.28
-100.32
-144.87
-187.48
-223.73
-250.05
-264.61
-267.57
-260.37
-244.84
-222.23
-193.14
-158.35
-120.03
-82.28
-50.40
-28.76
-18.26
-15.17
-12.04
-0.75
24.03
62.81
111.37
162.87
210.47
249.33
277.18
293.82
300.28
298.07
288.81
274.08
255.24
233.24
208.58
181.37
151.69
119.82
86.21
51.56
16.78
-16.81
-47.28
-72.10
-88.69
-95.08
-90.67
-76.65
-55.78
-31.78
-8.36
11.59
26.68
37.04
44.05
49.59
55.34
62.13
69.84
77.68
84.66
90.05
93.63
95.57
95.93
94.19
89.02
78.48
60.55
33.74
-2.39
-46.87
-96.98
-148.08
-193.82
-227.09
-241.75
-234.49
-206.27
-162.33
-110.78
-60.29
-17.62
13.57
32.83
41.95
43.79
41.40
37.67
35.09
35.43
39.37
46.16
53.80
59.62
60.98
56.06
44.20
26.13
3.84
-19.70
-41.08
-57.33
-66.72
-69.37
-67.06
-62.36
-57.44
-53.22
-49.33
-44.78
-39.01
-32.54
-26.89
-23.73
-24.05
-27.60
-32.96
-38.08
-40.92
-39.95
-34.37
-24.24
-10.52
4.92
19.52
30.61
36.18
35.62
29.92
21.42
12.97
7.00
4.77
6.19
10.04
14.52
18.06
19.78
19.83
19.05
18.41
18.32
18.28
17.20
14.04
8.61
1.86
-4.58
-9.27
-11.77
-12.89
-14.28
-17.52
-23.41
-31.70
-41.35
-50.99
-59.34
-65.31
-68.07
-67.04
-62.04
-53.48
-42.35
-30.06
-18.20
-8.16
-0.88
3.27
4.49
3.50
1.34
-0.84
-2.16
-2.24
-1.48
-0.97
-2.09
-5.97
-13.02
-22.83
-34.53
-47.38
-61.13
-75.95
-91.74
-107.44
-121.03
-130.45
-135.06
-136.54
-138.34
-143.55
-152.77
-162.86
-167.83
-161.76
-141.35
-106.98
-61.64
-8.77
48.84
108.10
163.53
206.35
226.69
218.40
183.66
134.40
88.55
63.13
67.76
102.35
159.35
228.66
301.74
372.56
435.98
485.84
515.06
518.05
493.85
447.55
388.75
328.17
273.73
228.77
192.54
161.95
133.79
105.93
77.50
48.41
18.93
-10.64
-40.17
-69.78
-99.78
-130.59
-162.73
-196.75
-233.43
-274.03
-319.99
-371.72
-427.19
-481.20
-526.29
-555.14
-563.50
-551.75
-524.37
-487.32
-445.07
-398.86
-347.20
-288.03
-221.02
-148.39
-74.03
-1.65
66.48
129.47
186.62
236.26
275.82
303.07
317.47
320.74
315.98
305.61
289.85
266.72
233.95
191.60
143.49
96.54
58.06
32.73
20.80
18.77
21.40
23.93
23.28
18.04
7.90
-6.38
-22.68
-37.40
-46.19
-45.44
-33.89
-13.45
11.49
35.63
54.56
65.85
69.25
66.16
58.94
50.35
42.95
38.54
37.30
37.57
36.17
29.48
14.81
-8.58
-39.58
-76.04
-115.57
-155.70
-193.30
-223.86
-241.79
-241.93
-221.71
-182.52
-129.55
-69.83
-10.07
44.82
91.46
127.01
148.23
151.75
135.53
100.52
51.58
-3.19
-54.37
-93.56
-115.39
-118.67
-106.60
-85.61
-63.28
-46.05
-37.45
-37.38
-42.99
-50.32
-55.93
-57.89
-55.89
-50.75
-43.96
-37.25
-32.35
-30.72
-33.21
-39.74
-49.10
-59.19
-67.58
-72.11
-71.53
-65.72
-55.65
-43.12
-30.16
-18.53
-9.35
-3.01
0.83
2.92
4.14
5.22
6.55
8.22
10.02
11.67
12.97
13.89
14.56
15.20
15.97
16.90
17.92
18.91
19.76
20.44
21.01
21.51
22.00
22.49
22.94
23.30
23.49
23.47
23.23
22.81
22.29
21.74
21.23
20.79
20.43
20.13
19.90
19.71
19.53
19.28
18.84
18.13
17.15
15.98
14.74
13.50
12.22
10.76
8.97
6.82
4.46
2.14
0.17
-1.25
-2.10
-2.50
-2.66
-2.73
-2.78
-2.79
-2.68
-2.37
-1.83
-1.02
0.04
1.32
2.75
4.24
5.64
6.81
7.63
8.02
8.03
7.77
7.36
6.93
6.55
6.21
5.89
5.53
5.10
4.58
3.99
3.39
2.86
2.50
2.38
2.55
3.00
3.62
4.28
4.88
5.35
5.76
6.24
6.92
7.87
9.05
10.25
11.25
11.77
11.67
10.96
9.74
8.26
6.75
5.40
4.38
3.73
3.42
3.33
3.28
3.10
2.69
2.05
1.24
0.43
-0.22
-0.53
-0.37
0.30
1.38
2.66
3.82
4.57
4.76
4.46
3.89
3.35
3.04
3.03
3.21
3.45
3.66
3.81
3.94
4.06
4.17
4.21
4.12
3.86
3.50
3.09
2.73
2.42
2.13
1.79
1.33
0.80
0.33
0.14
0.42
1.25
2.53
4.07
5.64
7.11
8.49
9.87
11.26
12.55
13.55
14.11
14.22
13.99
13.60
13.12
12.45
11.43
9.89
7.90
5.67
3.52
1.72
0.35
-0.57
-1.16
-1.49
-1.61
-1.55
-1.35
-1.07
-0.72
-0.25
0.46
1.48
2.74
3.94
4.67
4.51
3.29
1.19
-1.26
-3.45
-4.82
-5.17
-4.62
-3.53
-2.29
-1.18
-0.29
0.43
1.06
1.67
2.28
2.86
3.44
4.15
5.10
6.39
7.97
9.58
10.83
11.31
10.71
8.93
6.19
2.87
-0.47
-3.32
-5.30
-6.28
-6.49
-6.42
-6.68
-7.73
-9.73
-12.40
-15.18
-17.46
-18.85
-19.32
-19.15
-18.83
-18.77
-19.14
-19.82
-20.47
-20.64
-19.98
-18.30
-15.59
-11.99
-7.67
-2.83
2.30
7.47
12.29
16.33
19.09
20.25
19.70
17.66
14.60
11.14
7.87
5.23
3.38
2.28
1.75
1.59
1.75
2.22
3.02
4.02
4.85
5.08
4.33
2.52
-0.07
-2.83
-5.11
-6.43
-6.60
-5.75
-4.18
-2.25
-0.28
1.45
2.71
3.34
3.31
2.78
2.00
1.30
0.92
1.00
1.57
2.56
3.90
5.48
7.18
8.88
10.45
11.81
12.92
13.68
13.89
13.27
11.58
8.78
5.14
1.19
-2.43
-5.28
-7.21
-8.37
-9.06
-9.54
-9.85
-9.87
-9.45
-8.59
-7.49
-6.51
-6.01
-6.18
-6.98
-8.18
-9.47
-10.59
-11.49
-12.24
-12.96
-13.75
-14.56
-15.24
-15.58
-15.38
-14.52
-12.92
-10.60
-7.67
-4.27
-0.64
2.95
6.26
9.07
11.24
12.74
13.59
13.86
13.62
12.96
11.96
10.75
9.41
8.06
6.78
5.61
4.57
3.65
2.86
2.24
1.90
1.97
2.49
3.43
4.65
5.91
6.97
7.68
7.96
7.87
7.49
6.94
6.31
5.60
4.83
3.96
3.00
1.96
0.87
-0.23
-1.31
-2.32
-3.22
-3.98
-4.54
-4.89
-4.98
-4.80
-4.36
-3.71
-2.94
-2.20
-1.64
-1.37
-1.38
-1.58
-1.80
-1.83
-1.54
-0.86
0.18
1.45
2.77
3.93
4.75
5.08
4.92
4.40
3.72
3.15
2.86
2.90
3.18
3.53
3.75
3.71
3.38
2.81
2.13
1.48
0.97
0.65
0.45
0.23
-0.18
-0.90
-1.86
-2.88
-3.64
-3.89
-3.53
-2.68
-1.57
-0.45
0.55
1.41
2.22
2.98
3.60
3.90
3.77
3.21
2.42
1.71
1.32
1.36
1.73
2.18
2.51
2.62
2.55
2.45
2.44
2.54
2.65
2.65
2.47
2.17
1.88
1.72
1.73
1.81
1.79
1.49
0.84
-0.08
-1.11
-2.06
-2.82
-3.38
-3.83
-4.28
-4.84
-5.55
-6.39
-7.30
-8.15
-8.82
-9.17
-9.05
-8.38
-7.16
-5.52
-3.68
-1.91
-0.41
0.74
1.61
2.33
3.01
3.66
4.22
4.59
4.74
4.74
4.73
4.82
5.05
5.41
5.89
6.49
7.24
8.16
9.15
10.02
10.56
10.61
10.14
9.28
8.19
7.07
6.01
5.07
4.22
3.45
2.73
2.04
1.39
0.76
0.13
-0.51
-1.16
-1.78
-2.31
-2.67
-2.85
-2.84
-2.71
-2.51
-2.26
-1.96
-1.61
-1.21
-0.81
-0.45
-0.13
0.17
0.51
0.88
1.24
1.50
1.65
1.75
1.91
2.25
2.81
3.53
4.28
4.95
5.47
5.81
5.96
5.89
5.58
5.04
4.41
3.84
3.45
3.28
3.15
2.80
1.97
0.51
-1.54
-3.99
-6.53
-8.84
-10.64
-11.70
-11.87
-11.08
-9.40
-7.08
-4.48
-1.99
0.05
1.51
2.44
3.01
3.47
3.98
4.62
5.36
6.08
6.65
6.95
6.95
6.66
6.18
5.58
4.95
4.35
3.84
3.48
3.32
3.40
3.69
4.11
4.57
4.97
5.30
5.56
5.77
5.88
5.80
5.43
4.77
3.86
2.84
1.84
0.89
-0.02
-0.96
-1.94
-2.91
-3.77
-4.45
-4.94
-5.30
-5.62
-5.96
-6.34
-6.71
-7.04
-7.32
-7.55
-7.70
-7.75
-7.62
-7.29
-6.78
-6.23
-5.81
-5.66
-5.86
-6.37
-7.02
-7.63
-8.02
-8.10
-7.90
-7.52
-7.11
-6.74
-6.43
-6.08
-5.59
-4.93
-4.17
-3.46
-2.97
-2.79
-2.88
-3.07
-3.20
-3.18
-3.01
-2.77
-2.52
-2.29
-2.07
-1.84
-1.63
-1.48
-1.46
-1.58
-1.80
-2.02
-2.15
-2.19
-2.18
-2.19
-2.23
-2.23
-2.05
-1.55
-0.69
0.45
1.67
2.78
3.69
4.34
4.73
4.87
4.70
4.20
3.44
2.63
2.05
1.96
2.50
3.62
5.10
6.68
8.11
9.19
9.83
10.03
9.84
9.37
8.74
8.03
7.25
6.36
5.34
4.16
2.90
1.64
0.45
-0.62
-1.58
-2.45
-3.22
-3.84
-4.27
-4.47
-4.51
-4.49
-4.53
-4.75
-5.18
-5.71
-6.18
-6.37
-6.13
-5.45
-4.42
-3.22
-2.05
-1.03
-0.20
0.46
0.98
1.40
1.72
1.95
2.11
2.26
2.45
2.74
3.17
3.71
4.29
4.81
5.14
5.26
5.19
4.97
4.66
4.26
3.75
3.11
2.36
1.54
0.70
-0.15
-1.06
-2.10
-3.31
-4.64
-5.99
-7.21
-8.16
-8.77
-8.98
-8.78
-8.22
-7.34
-6.25
-5.04
-3.79
-2.56
-1.36
-0.18
0.97
2.04
2.97
3.68
4.16
4.43
4.53
4.52
4.41
4.25
4.07
3.95
3.97
4.19
4.60
5.18
5.86
6.59
7.34
8.06
8.68
9.13
9.37
9.42
9.36
9.23
9.06
8.76
8.25
7.46
6.43
5.26
4.08
2.94
1.87
0.86
-0.15
-1.17
-2.23
-3.32
-4.45
-5.57
-6.60
-7.36
-7.69
-7.43
-6.55
-5.17
-3.47
-1.74
-0.21
0.94
1.62
1.85
1.71
1.35
0.92
0.57
0.37
0.32
0.29
0.16
-0.22
-0.87
-1.70
-2.59
-3.39
-4.02
-4.48
-4.85
-5.20
-5.62
-6.09
-6.59
-7.04
-7.39
-7.61
-7.69
-7.63
-7.46
-7.12
-6.60
-5.89
-5.03
-4.14
-3.35
-2.77
-2.41
-2.19
-1.98
-1.65
-1.16
-0.55
0.06
0.49
0.69
0.64
0.45
0.26
0.22
0.43
0.91
1.60
2.38
3.10
3.58
3.71
3.44
2.86
2.15
1.54
1.19
1.16
1.36
1.63
1.87
2.03
2.15
2.28
2.43
2.53
2.51
2.28
1.85
1.28
0.61
-0.16
-1.04
-2.06
-3.17
-4.25
-5.14
-5.72
-5.95
-5.88
-5.59
-5.12
-4.46
-3.57
-2.45
-1.20
-0.01
0.96
1.63
2.06
2.41
2.79
3.26
3.75
4.19
4.51
4.74
4.92
5.07
5.20
5.26
5.23
5.18
5.19
5.36
5.72
6.18
6.58
6.72
6.45
5.74
4.67
3.41
2.13
0.97
0.01
-0.76
-1.34
-1.78
-2.12
-2.39
-2.63
-2.85
-3.06
-3.26
-3.42
-3.53
-3.57
-3.50
-3.27
-2.82
-2.12
-1.23
-0.27
0.61
1.29
1.73
2.03
2.27
2.56
2.93
3.36
3.78
4.09
4.27
4.30
4.22
4.10
4.02
4.03
4.16
4.42
4.75
5.07
5.31
5.48
5.63
5.89
6.27
6.70
6.94
6.75
5.99
4.72
3.24
1.96
1.24
1.17
1.59
2.12
2.34
2.05
1.32
0.57
0.39
1.24
3.31
6.26
9.29
11.44
11.98
10.81
8.58
6.61
6.40
9.17
15.25
23.88
33.19
40.70
44.07
42.09
35.15
25.18
14.83
6.39
0.99
-1.51
-1.94
-0.91
1.81
7.43
17.63
33.77
56.14
83.32
111.91
136.84
152.16
152.81
136.74
106.66
70.40
39.27
24.54
33.40
66.23
116.35
172.10
220.85
252.75
263.18
252.81
226.00
188.43
145.55
102.09
62.47
30.94
10.90
3.43
6.14
13.22
17.21
11.85
-5.57
-33.53
-67.52
-102.38
-134.37
-161.74
-184.16
-201.62
-213.75
-220.01
-220.32
-215.43
-206.95
-196.81
-186.73
-177.92
-171.11
-166.64
-164.54
-164.32
-164.86
-164.48
-161.25
-153.29
-139.22
-118.32
-90.74
-57.51
-20.38
18.47
56.87
92.97
125.50
153.59
176.67
194.18
205.59
210.58
209.30
202.43
190.99
175.95
158.05
137.76
115.64
92.62
70.14
49.78
32.79
19.64
9.81
2.17
-4.66
-11.83
-19.95
-29.08
-38.64
-47.67
-55.16
-60.54
-64.20
-67.47
-72.29
-80.37
-92.38
-107.65
-124.52
-141.10
-156.12
-169.22
-180.59
-190.34
-197.87
-201.93
-201.21
-195.15
-184.48
-171.02
-156.95
-143.98
-132.70
-122.62
-112.76
-102.34
-91.33
-80.55
-71.20
-64.38
-60.50
-59.04
-58.66
-57.58
-54.18
-47.62
-38.17
-27.27
-16.91
-8.88
-3.99
-1.78
-0.92
0.12
2.27
5.61
9.60
13.60
17.40
21.31
25.87
31.41
37.72
44.10
49.70
53.96
56.96
59.39
62.26
66.32
71.71
77.87
83.79
88.43
91.19
91.97
91.07
88.90
85.78
81.97
77.71
73.34
69.23
65.67
62.66
60.02
57.52
55.04
52.62
50.36
48.17
45.82
42.99
39.52
35.56
31.44
27.49
23.82
20.32
16.86
13.52
10.64
8.66
7.78
7.75
7.92
7.52
6.10
3.86
1.53
0.17
0.75
3.93
9.86
18.24
28.39
39.24
49.63
58.46
65.02
69.03
70.73
70.65
69.45
67.72
65.96
64.60
63.98
64.26
65.31
66.63
67.40
66.60
63.32
56.93
47.30
34.85
20.42
4.98
-10.77
-26.65
-42.99
-60.32
-78.84
-98.08
-116.82
-133.42
-146.42
-154.98
-159.16
-159.84
-158.34
-156.11
-154.29
-153.51
-153.69
-153.99
-152.98
-148.96
-140.65
-127.61
-110.49
-90.82
-70.47
-51.08
-33.58
-18.16
-4.42
8.37
20.99
34.08
47.99
62.56
77.11
90.54
101.65
109.53
113.82
114.80
113.14
109.60
104.78
99.03
92.54
85.36
77.51
69.03
60.06
50.91
42.04
33.92
26.84
20.66
14.83
8.58
1.36
-6.90
-15.78
-24.57
-32.59
-39.40
-44.86
-49.01
-51.92
-53.76
-54.75
-55.21
-55.40
-55.33
-54.74
-53.09
-49.79
-44.50
-37.33
-29.03
-20.79
-13.98
-9.72
-8.45
-9.73
-12.24
-14.16
-13.69
-9.68
-2.01
8.39
19.79
30.27
38.20
42.65
43.58
41.71
38.16
34.09
30.24
26.87
23.80
20.61
16.85
12.20
6.48
-0.20
-7.47
-14.59
-20.66
-24.78
-26.40
-25.36
-21.93
-16.53
-9.54
-1.34
7.40
15.49
21.24
22.89
19.45
11.36
0.54
-10.22
-18.29
-22.13
-21.69
-18.11
-13.09
-8.15
-4.24
-1.63
-0.08
0.98
2.15
3.73
5.45
6.38
5.22
0.91
-6.79
-16.94
-27.63
-36.64
-42.12
-43.00
-39.11
-30.91
-19.18
-5.09
9.81
23.77
35.21
43.27
48.05
50.01
49.11
44.16
33.17
14.66
-10.79
-39.73
-66.60
-85.85
-94.25
-92.19
-83.24
-72.35
-63.62
-58.88
-57.65
-58.13
-58.55
-58.11
-57.23
-57.20
-59.39
-64.38
-71.47
-78.62
-83.15
-82.76
-76.63
-65.80
-52.96
-41.59
-35.11
-36.09
-45.88
-64.22
-89.07
-116.76
-142.47
-161.42
-169.99
-166.69
-152.22
-129.02
-100.23
-68.84
-37.27
-7.20
20.40
45.48
69.04
93.25
121.24
156.22
200.21
252.57
309.16
362.70
404.61
427.71
428.71
409.34
375.27
333.78
291.05
250.58
213.19
178.40
145.85
116.04
89.84
67.58
48.47
30.95
13.60
-3.85
-20.29
-33.68
-42.04
-44.50
-41.58
-34.94
-26.63
-18.37
-11.15
-5.25
-0.53
3.22
6.05
7.86
8.38
7.31
4.50
0.32
-4.32
-8.12
-9.94
-9.40
-7.17
-4.81
-3.94
-5.31
-8.28
-10.94
-10.92
-6.56
2.33
14.42
27.57
39.93
50.75
60.48
70.24
80.96
92.69
104.51
114.75
121.55
123.14
118.21
106.14
87.50
64.58
41.33
22.69
13.14
15.11
27.92
47.91
69.78
88.74
102.41
111.48
118.91
127.78
139.23
151.59
161.15
164.28
159.56
148.85
136.49
127.20
123.81
126.12
131.50
136.46
138.55
137.20
133.31
128.14
122.13
114.39
102.93
85.57
60.92
29.14
-7.95
-47.44
-86.36
-122.83
-156.68
-189.36
-223.14
-259.92
-300.48
-344.66
-392.03
-442.37
-495.22
-548.52
-597.53
-635.39
-655.76
-656.12
-639.79
-614.81
-590.05
-570.70
-555.74
-539.23
-514.21
-476.99
-429.00
-375.43
-321.75
-270.60
-221.16
-171.09
-119.63
-69.22
-24.86
8.56
29.25
40.05
47.46
59.07
80.73
114.64
159.35
211.07
265.19
317.21
362.71
397.06
415.41
413.45
388.72
341.97
277.59
203.04
127.35
58.81
2.92
-38.73
-68.03
-88.54
-103.21
-112.69
-115.32
-108.53
-91.09
-64.56
-33.26
-2.77
22.28
39.94
51.13
58.62
65.28
72.55
79.73
84.55
84.55
78.66
68.14
56.41
47.73
45.19
49.26
57.50
65.84
70.63
70.52
66.91
62.97
61.78
64.82
71.44
79.67
87.41
93.29
96.86
98.16
97.34
94.72
91.13
88.11
87.46
90.25
95.93
102.29
106.53
106.78
103.26
98.23
94.83
95.40
100.43
108.54
117.38
124.74
129.18
130.01
126.84
119.31
107.18
90.69
70.69
48.54
25.40
1.82
-22.41
-47.72
-74.09
-100.51
-125.11
-145.97
-162.16
-174.39
-184.83
-195.98
-209.22
-223.79
-236.91
-245.15
-246.09
-239.50
-227.21
-211.89
-195.68
-179.62
-164.19
-150.47
-140.61
-137.04
-140.62
-149.02
-156.73
-156.94
-144.69
-119.25
-84.56
-47.25
-13.75
12.20
30.21
42.15
50.31
56.03
59.46
60.32
58.82
56.21
54.46
55.35
59.45
65.57
70.90
71.82
65.19
49.59
26.08
-1.74
-28.55
-48.76
-58.01
-54.37
-38.75
-14.34
14.52
43.72
70.17
92.10
108.64
119.36
124.01
122.56
115.36
103.36
87.95
70.82
53.68
38.16
25.69
17.24
12.98
12.20
13.47
15.27
16.84
18.54
21.69
27.78
37.41
49.74
62.61
73.21
79.12
79.12
73.70
64.81
55.20
47.42
43.07
42.30
44.01
46.41
47.71
46.61
42.55
35.64
26.66
16.91
8.01
1.44
-1.91
-2.14
-0.28
2.24
4.34
5.76
7.01
8.83
11.54
14.84
18.03
20.55
22.26
23.37
23.98
23.70
21.71
17.12
9.57
-0.48
-11.67
-22.09
-29.86
-33.45
-32.06
-25.85
-15.95
-4.34
6.54
14.54
18.47
18.54
16.26
13.76
12.92
14.51
17.88
21.33
23.01
21.85
18.12
13.28
9.15
6.98
6.70
6.99
5.81
1.41
-6.86
-18.14
-30.35
-40.89
-47.68
-49.91
-48.42
-45.24
-42.66
-42.15
-43.80
-46.39
-48.21
-47.95
-45.15
-39.92
-32.33
-22.12
-8.89
7.10
24.29
39.99
51.38
57.13
58.20
57.59
58.83
64.25
73.92
85.86
97.16
105.31
108.84
107.32
100.85
89.94
75.49
59.09
42.79
28.52
17.30
8.81
1.84
-4.84
-11.58
-17.75
-22.45
-25.50
-27.89
-31.42
-37.57
-46.47
-56.51
-64.98
-69.42
-68.73
-63.78
-56.98
-51.21
-48.62
-49.79
-53.53
-57.57
-59.63
-58.57
-54.85
-50.35
-47.34
-47.32
-50.30
-54.91
-59.41
-62.88
-65.79
-69.66
-75.82
-84.25
-93.04
-99.01
-99.06
-91.60
-77.25
-58.59
-39.14
-22.27
-10.27
-4.02
-3.09
-6.03
-10.83
-15.33
-17.64
-16.69
-12.37
-5.45
2.79
11.06
18.46
24.55
29.20
32.34
33.86
33.70
32.12
29.86
27.88
26.98
27.09
27.17
25.51
20.75
12.84
3.40
-4.85
-9.49
-9.72
-6.98
-4.24
-4.29
-8.12
-14.25
-19.57
-21.16
-17.89
-10.83
-2.42
5.11
10.82
14.98
18.33
21.11
22.81
22.67
20.62
17.47
14.55
12.77
11.95
10.97
8.65
4.62
-0.38
-4.89
-7.61
-8.18
-7.35
-6.58
-7.53
-11.29
-18.03
-26.84
-35.84
-42.78
-45.78
-44.13
-38.67
-31.58
-25.47
-22.29
-22.57
-25.29
-28.50
-30.32
-29.84
-27.36
-24.05
-21.17
-19.40
-18.65
-18.41
-18.24
-18.12
-18.27
-18.65
-18.50
-16.42
-11.20
-2.76
7.33
16.22
21.12
20.71
15.82
9.04
3.41
1.13
2.90
8.00
14.97
22.13
27.90
30.91
30.31
26.25
20.22
14.76
12.34
13.95
18.31
22.34
22.71
17.85
9.00
-0.27
-5.77
-4.63
3.53
16.84
32.40
47.47
60.15
69.35
74.55
75.69
73.46
69.54
66.47
66.90
72.63
83.67
98.04
112.37
123.11
127.97
126.88
122.17
117.60
116.87
122.26
133.89
150.12
168.61
187.34
205.15
221.49
235.85
247.60
256.38
262.73
268.32
275.27
284.80
296.10
306.15
310.92
307.12
293.75
272.39
246.49
219.85
195.26
173.99
156.03
140.75
127.65
116.53
107.37
100.06
94.18
89.06
84.03
78.67
72.95
67.18
61.82
57.21
53.41
50.21
47.21
44.05
40.54
36.78
33.03
29.64
26.85
24.71
23.07
21.65
20.17
18.43
16.39
14.17
12.01
10.19
8.92
8.30
8.22
8.36
8.29
7.57
5.95
3.41
0.30
-2.91
-5.76
-8.15
-10.39
-13.22
-17.48
-23.72
-31.85
-41.07
-50.11
-57.77
-63.51
-67.73
-71.70
-77.02
-84.87
-95.34
-107.37
-119.22
-129.22
-136.61
-142.00
-146.98
-153.60
-163.60
-178.02
-196.91
-219.08
-241.77
-260.61
-270.47
-267.13
-249.36
-220.19
-186.41
-156.34
-136.72
-130.41
-136.04
-149.58
-166.86
-185.45
-205.20
-227.37
-252.99
-281.76
-311.45
-338.30
-358.25
-368.08
-366.72
-355.58
-337.65
-316.11
-292.87
-268.05
-240.94
-211.42
-181.06
-153.09
-130.65
-115.03
-104.80
-96.32
-85.75
-70.93
-52.20
-32.03
-13.63
0.52
9.49
13.99
15.94
17.78
21.68
28.88
39.26
51.11
61.68
68.02
68.11
61.83
51.29
40.12
32.50
31.57
38.19
50.37
63.71
72.75
73.04
62.86
44.07
21.71
1.91
-10.35
-13.30
-8.93
-2.34
0.03
-7.38
-27.12
-57.39
-91.98
-121.89
-138.16
-135.20
-113.12
-77.59
-37.94
-3.50
19.54
29.76
29.63
23.06
12.77
-0.74
-18.44
-40.79
-66.08
-89.86
-106.39
-110.80
-101.15
-79.38
-50.32
-19.99
6.42
25.71
37.01
40.98
39.25
33.72
26.05
17.42
8.23
-1.95
-13.54
-26.13
-37.98
-45.99
-46.75
-38.17
-20.55
2.94
27.01
45.77
54.56
51.24
36.22
11.91
-18.60
-52.09
-85.24
-114.11
-133.84
-139.43
-127.13
-96.40
-50.70
2.72
54.86
97.48
125.19
136.23
131.72
114.54
88.05
55.75
21.33
-11.10
-37.25
-53.17
-56.31
-46.44
-25.84
1.07
28.77
51.92
66.51
70.82
65.33
52.52
35.88
18.98
4.51
-6.17
-12.95
-16.53
-17.81
-17.48
-16.10
-14.34
-13.18
-13.94
-17.77
-25.02
-34.98
-45.97
-56.06
-63.92
-69.22
-72.51
-74.56
-75.37
-73.99
-68.76
-58.28
-42.41
-22.67
-1.71
17.56
33.24
44.90
53.37
59.88
65.08
68.55
69.06
65.47
57.62
46.79
35.42
25.97
20.01
17.51
17.19
17.15
15.98
13.14
8.98
4.31
-0.16
-3.94
-6.69
-7.97
-7.22
-4.24
0.58
5.98
10.15
11.34
8.65
2.41
-6.09
-15.05
-22.85
-28.35
-31.08
-31.30
-29.83
-27.94
-27.03
-28.08
-31.15
-35.09
-37.97
-37.96
-34.01
-26.37
-16.48
-6.30
2.32
8.26
11.26
11.73
10.50
8.49
