1679985709.00
64.000000
-0.00
-0.00
-0.00
-0.00
-0.00
-0.00
-0.00
-0.00
-0.00
-0.00
0.00
0.01
0.01
-0.00
-0.03
-0.05
-0.05
0.00
0.13
0.36
0.66
1.01
1.37
1.72
2.06
2.40
2.79
3.24
3.80
4.42
5.06
5.66
6.20
6.68
7.15
7.68
8.31
9.14
10.09
11.04
11.88
12.56
13.14
13.76
14.65
15.96
17.91
20.32
22.90
25.38
27.58
29.57
31.68
34.32
37.81
42.54
48.15
54.10
59.83
64.97
69.58
74.14
79.34
85.71
93.76
103.00
112.62
121.73
129.77
136.75
143.30
150.75
157.77
166.64
177.95
191.79
206.97
220.57
228.25
225.36
208.53
176.87
132.76
80.05
23.07
-34.94
-92.44
-149.16
-205.23
-260.37
-313.74
-363.87
-409.83
-450.91
-486.50
-515.74
-537.23
-549.22
-549.96
-538.37
-514.21
-478.67
-433.88
-382.45
-327.02
-269.84
-212.63
-156.66
-102.95
-52.37
-5.90
35.58
71.43
101.35
125.50
144.38
158.69
169.15
176.37
180.75
182.57
182.07
179.51
175.23
169.65
163.18
156.15
148.81
141.30
133.69
126.02
118.33
110.69
103.16
95.80
88.68
81.83
75.25
68.95
62.95
57.25
51.86
46.78
42.03
37.59
33.45
29.61
26.07
22.81
19.83
17.13
14.69
12.51
10.54
8.79
7.23
5.88
4.71
3.75
2.96
2.32
1.80
1.35
0.94
0.58
0.27
0.03
-0.14
-0.23
-0.28
-0.32
-0.41
-0.56
-0.76
-0.97
-1.12
-1.17
-1.12
-1.02
-0.97
-1.08
-1.39
-1.87
-2.41
-2.83
-3.02
-2.96
-2.77
-2.66
-2.87
-3.50
-4.47
-5.55
-6.42
-6.83
-6.76
-6.42
-6.20
-6.47
-7.42
-8.92
-10.58
-11.91
-12.60
-12.57
-12.10
-11.63
-11.57
-12.22
-13.71
-16.03
-18.94
-21.77
-23.39
-22.39
-17.71
-9.17
2.10
13.99
24.21
31.16
34.58
35.41
35.13
34.89
35.04
35.25
34.94
33.88
32.36
30.96
30.18
30.01
29.90
29.03
26.67
22.67
17.51
12.15
7.39
3.75
1.20
-0.62
-2.15
-3.61
-4.90
-5.75
-6.00
-5.73
-5.27
-5.00
-5.26
-6.08
-7.31
-8.62
-9.70
-10.37
-10.54
-10.21
-9.49
-8.66
-8.13
-8.42
-9.86
-12.42
-15.55
-18.35
-19.84
-19.57
-17.85
-15.67
-14.22
-14.27
-15.83
-18.23
-20.59
-22.11
-22.63
-22.50
-22.28
-22.43
-23.31
-25.31
-28.98
-34.75
-42.20
-50.00
-55.99
-57.98
-54.70
-46.48
-35.14
-23.12
-12.36
-3.21
5.02
13.36
22.30
31.40
39.60
45.93
50.25
51.19
49.04
44.67
39.17
33.44
28.18
23.81
20.57
18.38
16.90
15.96
15.20
14.27
12.81
10.50
7.05
2.27
-3.90
-11.30
-19.26
-27.09
-34.09
-39.63
-42.99
-43.22
-39.18
-29.85
-15.09
3.88
23.99
40.86
50.07
48.78
37.01
17.95
-2.88
-19.51
-27.38
-24.90
-13.73
2.17
18.15
30.52
37.47
39.11
36.77
32.13
26.55
20.96
16.13
12.91
12.24
14.72
20.16
27.35
34.32
39.04
40.23
37.87
33.21
28.20
24.69
23.71
25.22
28.43
32.39
36.60
41.36
47.61
56.34
68.07
82.47
98.25
113.49
126.02
133.86
135.72
131.39
121.84
109.16
96.04
85.01
77.73
74.57
74.65
76.26
77.34
75.90
70.11
58.33
39.18
11.95
-22.91
-63.33
-105.75
-145.77
-179.29
-203.73
-218.61
-225.42
-226.65
-224.55
-220.23
-213.48
-203.49
-189.74
-172.70
-153.85
-134.99
-117.37
-101.22
-85.88
-70.43
-54.43
-38.29
-23.12
-10.15
-0.19
6.76
11.50
15.38
20.05
27.07
37.70
52.53
71.31
92.84
115.18
136.02
153.18
164.93
169.99
167.51
156.98
138.36
112.42
80.93
46.52
12.17
-19.58
-47.10
-69.71
-87.18
-99.29
-105.58
-105.71
-100.15
-90.47
-79.19
-68.94
-61.45
-56.94
-54.32
-52.00
-49.08
-45.91
-43.99
-45.02
-49.77
-57.44
-65.89
-72.64
-76.16
-76.65
-75.84
-76.01
-78.78
-84.28
-91.16
-97.35
-100.74
-99.65
-92.79
-79.03
-57.62
-28.93
4.76
39.11
68.61
88.40
95.97
92.08
80.18
64.84
49.84
37.18
27.04
18.74
11.76
6.20
2.60
1.34
2.13
4.08
6.10
7.58
8.65
10.08
12.80
17.34
23.51
30.44
36.96
42.08
45.31
46.75
46.93
46.50
45.90
45.24
44.25
42.46
39.48
35.13
29.69
23.81
18.31
14.01
11.40
10.58
11.31
13.08
15.37
17.71
19.79
21.39
22.42
22.78
22.52
21.72
20.59
19.41
18.47
17.97
17.98
18.45
19.18
19.89
20.29
20.18
19.48
18.29
16.86
15.39
14.05
12.78
11.44
9.90
8.13
6.28
4.57
3.19
2.17
1.35
0.49
-0.66
-2.23
-4.18
-6.30
-8.29
-9.82
-10.59
-10.45
-9.38
-7.49
-4.99
-2.15
0.77
3.52
5.91
7.82
9.21
10.09
10.57
10.74
10.72
10.54
10.23
9.79
9.31
8.91
8.74
8.86
9.22
9.66
9.97
9.97
9.56
8.71
7.49
5.95
4.19
2.36
0.64
-0.79
-1.88
-2.71
-3.53
-4.58
-5.99
-7.69
-9.40
-10.78
-11.54
-11.55
-10.83
-9.47
-7.60
-5.29
-2.59
0.42
3.63
6.83
9.74
12.01
13.21
12.87
10.60
6.26
0.18
-6.86
-13.76
-19.45
-23.22
-24.93
-24.96
-23.89
-22.22
-20.22
-17.97
-15.51
-13.04
-10.89
-9.36
-8.56
-8.39
-8.55
-8.72
-8.73
-8.57
-8.40
-8.40
-8.70
-9.35
-10.38
-11.80
-13.59
-15.66
-17.83
-19.77
-21.03
-21.22
-20.09
-17.66
-14.20
-10.18
-6.11
-2.42
0.59
2.83
4.31
5.14
5.45
5.38
5.11
4.79
4.55
4.42
4.37
4.33
4.24
4.09
3.94
3.89
3.99
4.24
4.55
4.77
4.78
4.43
3.72
2.67
1.44
0.17
-1.00
-2.07
-3.13
-4.32
-5.77
-7.46
-9.31
-11.17
-12.94
-14.54
-15.92
-17.00
-17.64
-17.70
-17.09
-15.82
-13.96
-11.59
-8.76
-5.55
-2.11
1.29
4.30
6.64
8.27
9.47
10.71
12.48
15.07
18.44
22.30
26.18
29.56
31.91
32.75
31.68
28.55
23.58
17.38
10.81
4.77
-0.15
-3.81
-6.42
-8.43
-10.25
-12.10
-13.94
-15.56
-16.75
-17.35
-17.37
-16.98
-16.41
-15.86
-15.48
-15.29
-15.28
-15.47
-15.85
-16.40
-16.94
-17.18
-16.73
-15.25
-12.66
-9.10
-4.95
-0.60
3.58
7.38
10.68
13.42
15.58
17.15
18.15
18.64
18.70
18.43
17.96
17.44
16.98
16.63
16.41
16.24
16.05
15.83
15.60
15.38
15.14
14.72
13.91
12.52
10.58
8.35
6.22
4.57
3.58
3.18
3.03
2.80
2.23
1.28
0.07
-1.27
-2.63
-4.02
-5.48
-7.05
-8.69
-10.29
-11.71
-12.84
-13.54
-13.71
-13.24
-12.02
-10.10
-7.62
-4.85
-2.06
0.53
2.80
4.76
6.40
7.71
8.66
9.22
9.40
9.30
9.02
8.71
8.47
8.36
8.42
8.66
9.03
9.42
9.73
9.86
9.76
9.42
8.86
8.07
7.00
5.62
3.96
2.11
0.30
-1.29
-2.56
-3.54
-4.41
-5.38
-6.65
-8.31
-10.29
-12.43
-14.49
-16.15
-17.10
-17.14
-16.19
-14.33
-11.81
-8.93
-6.00
-3.29
-1.00
0.75
1.90
2.50
2.68
2.57
2.36
2.15
1.98
1.90
1.97
2.26
2.87
3.77
4.82
5.85
6.67
7.24
7.65
8.04
8.45
8.84
9.00
8.75
7.99
6.77
5.23
3.53
1.77
-0.03
-1.88
-3.80
-5.74
-7.66
-9.49
-11.17
-12.61
-13.68
-14.22
-14.07
-13.09
-11.25
-8.66
-5.55
-2.24
0.94
3.78
6.15
8.02
9.39
10.16
10.20
9.38
7.76
5.59
3.29
1.32
0.00
-0.59
-0.62
-0.37
-0.15
-0.09
-0.21
-0.39
-0.50
-0.51
-0.49
-0.59
-0.99
-1.76
-2.88
-4.24
-5.68
-7.10
-8.45
-9.73
-10.98
-12.26
-13.67
-15.31
-17.17
-19.10
-20.74
-21.66
-21.45
-19.92
-17.08
-13.23
-8.81
-4.28
-0.07
3.50
6.26
8.19
9.42
10.12
10.50
10.75
10.98
11.29
11.76
12.44
13.29
14.19
14.98
15.54
15.85
16.06
16.35
16.80
17.35
17.71
17.51
16.43
14.30
11.20
7.41
3.35
-0.54
-3.91
-6.59
-8.69
-10.46
-12.27
-14.37
-16.82
-19.44
-21.88
-23.77
-24.79
-24.74
-23.61
-21.55
-18.92
-16.24
-13.94
-12.28
-11.17
-10.26
-9.09
-7.38
-5.16
-2.76
-0.60
1.05
2.17
2.94
3.55
4.11
4.54
4.67
4.38
3.62
2.49
1.09
-0.49
-2.26
-4.28
-6.64
-9.48
-12.85
-16.67
-20.61
-24.14
-26.59
-27.46
-26.72
-24.92
-23.13
-22.48
-23.77
-26.95
-30.93
-33.85
-33.51
-28.05
-16.62
0.10
19.73
38.54
52.35
57.76
53.26
39.80
20.58
0.11
-17.13
-27.90
-30.90
-26.91
-18.16
-7.60
2.12
9.23
13.12
14.11
13.09
11.03
8.82
7.09
6.43
7.30
9.89
13.97
18.77
23.31
26.74
28.74
29.57
29.84
30.08
30.47
30.76
30.68
30.31
30.45
32.53
38.23
48.79
64.42
84.00
105.33
125.74
142.96
155.66
163.76
168.06
169.73
169.81
168.88
167.06
164.23
160.10
154.34
146.53
136.14
122.73
105.99
85.93
62.76
36.79
8.34
-22.25
-54.40
-87.03
-118.48
-146.63
-169.44
-185.52
-194.54
-197.32
-195.48
-190.99
-185.68
-180.91
-177.51
-175.82
-175.75
-176.78
-178.05
-178.33
-176.25
-170.54
-160.50
-146.23
-128.75
-109.68
-90.77
-73.32
-57.83
-44.09
-31.50
-19.68
-8.71
0.75
7.88
12.10
13.44
12.58
10.60
8.57
7.16
6.60
6.68
7.01
7.28
7.35
7.35
7.58
8.41
10.10
12.68
15.98
19.55
22.76
24.85
25.05
23.02
19.24
15.57
15.24
22.02
38.85
66.25
101.46
138.82
171.38
192.88
199.47
190.19
166.62
131.82
89.39
42.84
-4.69
-50.56
-92.73
-129.83
-161.09
-186.20
-204.97
-217.15
-222.35
-220.15
-210.36
-193.31
-170.10
-142.65
-113.49
-85.28
-60.18
-39.30
-22.62
-9.16
2.43
13.43
24.70
36.51
48.58
60.06
69.73
76.26
78.61
76.43
70.28
61.54
52.02
43.34
36.46
31.51
27.86
24.60
20.92
16.52
11.69
7.40
5.12
6.54
13.07
25.31
42.50
62.44
81.85
97.22
105.79
106.27
99.08
86.05
69.66
52.39
36.13
21.99
10.35
1.15
-5.95
-11.33
-15.36
-18.36
-20.63
-22.37
-23.64
-24.32
-24.16
-22.87
-20.32
-16.57
-11.94
-6.86
-1.81
2.85
6.86
10.15
12.71
14.59
15.86
16.62
17.03
17.25
17.51
18.01
18.83
19.87
20.83
21.31
20.97
19.74
17.88
15.91
14.42
13.80
14.12
15.20
16.70
18.33
19.96
21.55
23.12
24.61
25.92
26.90
27.45
27.52
27.08
26.16
24.76
22.99
20.99
18.97
17.09
15.51
14.29
13.47
13.05
12.96
13.02
12.99
12.59
11.66
10.20
8.34
6.32
4.31
2.38
0.52
-1.35
-3.29
-5.35
-7.50
-9.72
-11.94
-14.06
-15.95
-17.51
-18.63
-19.20
-19.08
-18.16
-16.37
-13.80
-10.72
-7.54
-4.64
-2.31
-0.63
0.44
1.02
1.25
1.19
0.88
0.36
-0.26
-0.85
-1.27
-1.42
-1.32
-1.11
-1.01
-1.21
-1.79
-2.63
-3.51
-4.20
-4.59
-4.78
-5.01
-5.52
-6.45
-7.81
-9.47
-11.32
-13.30
-15.41
-17.67
-20.02
-22.37
-24.50
-26.24
-27.37
-27.73
-27.17
-25.61
-23.10
-19.80
-16.06
-12.28
-8.86
-6.07
-4.01
-2.69
-2.01
-1.90
-2.26
-2.99
-4.01
-5.19
-6.45
-7.69
-8.74
-9.38
-9.35
-8.42
-6.53
-3.82
-0.57
2.93
6.48
10.01
13.50
16.90
20.01
22.43
23.52
22.43
18.25
10.28
-1.64
-16.88
-34.00
-50.96
-65.59
-76.08
-81.31
-80.96
-75.43
-65.58
-52.61
-37.84
-22.57
-7.98
5.05
15.99
24.69
31.30
36.19
39.79
42.45
44.34
45.40
45.55
44.75
43.18
41.20
39.29
37.83
36.94
36.42
35.95
35.16
33.82
31.92
29.59
27.08
24.66
22.48
20.64
19.07
17.61
16.00
14.06
11.64
8.80
5.72
2.74
0.26
-1.44
-2.33
-2.87
-3.91
-6.44
-11.16
-18.01
-26.05
-33.70
-39.32
-41.76
-40.76
-36.87
-31.10
-24.42
-17.58
-11.03
-5.08
-0.04
3.84
6.41
7.80
8.37
8.60
8.90
9.49
10.35
11.26
11.96
12.28
12.15
11.65
10.88
9.92
8.78
7.41
5.79
3.94
1.98
0.03
-1.79
-3.43
-4.88
-6.14
-7.23
-8.22
-9.23
-10.41
-11.90
-13.64
-15.41
-16.82
-17.47
-17.10
-15.68
-13.37
-10.45
-7.23
-3.97
-0.87
1.92
4.29
6.18
7.57
8.49
8.97
9.05
8.83
8.43
8.03
7.82
7.93
8.40
9.11
9.88
10.52
10.87
10.90
10.69
10.32
9.89
9.40
8.76
7.88
6.64
5.03
3.11
0.96
-1.33
-3.67
-6.00
-8.25
-10.34
-12.23
-13.95
-15.57
-17.11
-18.46
-19.38
-19.52
-18.58
-16.43
-13.22
-9.30
-5.18
-1.28
2.09
4.90
7.27
9.42
11.49
13.49
15.29
16.68
17.51
17.73
17.50
17.04
16.61
16.32
16.18
16.07
15.92
15.67
15.35
14.98
14.56
13.93
12.90
11.26
8.92
5.96
2.66
-0.64
-3.66
-6.29
-8.64
-10.87
-13.13
-15.40
-17.54
-19.34
-20.66
-21.50
-21.92
-22.00
-21.67
-20.75
-19.02
-16.38
-12.91
-8.92
-4.83
-1.01
2.29
4.98
7.04
8.53
9.54
10.20
10.68
11.13
11.64
12.20
12.76
13.24
13.63
14.09
14.85
16.21
18.32
21.11
24.15
26.76
28.17
27.75
25.23
20.75
14.76
7.88
0.67
-6.47
-13.28
-19.66
-25.64
-31.30
-36.78
-42.13
-47.21
-51.58
-54.50
-55.18
-53.02
-47.86
-40.08
-30.52
-20.26
-10.32
-1.53
5.62
10.86
14.09
15.33
14.66
12.30
8.70
4.49
0.41
-2.89
-5.05
-6.15
-6.64
-7.12
-8.06
-9.56
-11.32
-12.84
-13.67
-13.67
-13.05
-12.25
-11.74
-11.80
-12.46
-13.53
-14.74
-15.83
-16.65
-17.11
-17.29
-17.34
-17.59
-18.44
-20.32
-23.44
-27.63
-32.25
-36.30
-38.81
-39.23
-37.73
-35.14
-32.54
-30.72
-29.85
-29.47
-28.88
-27.61
-25.75
-23.77
-22.15
-20.87
-19.45
-17.17
-13.51
-8.57
-2.92
2.82
8.34
13.94
20.28
27.99
37.38
48.22
59.89
71.48
81.73
89.05
91.68
88.19
78.21
62.81
44.37
25.85
9.85
-2.21
-10.11
-14.49
-16.19
-15.86
-13.91
-10.79
-7.13
-3.67
-1.01
0.70
1.83
3.04
5.01
8.13
12.34
17.24
22.18
26.54
29.98
32.41
34.09
35.46
37.02
39.24
42.49
47.05
52.98
60.02
67.46
74.23
79.16
81.41
80.93
78.54
75.67
73.86
74.20
77.17
82.92
91.63
103.71
119.37
137.88
157.04
173.43
183.44
184.64
176.62
160.76
139.25
113.80
85.18
53.38
18.52
-18.57
-56.36
-93.20
-127.95
-160.03
-188.97
-213.74
-232.51
-243.06
-243.75
-234.45
-217.03
-195.06
-172.80
-153.82
-140.01
-131.17
-125.45
-120.36
-113.81
-104.83
-93.65
-81.30
-69.09
-58.15
-49.33
-43.21
-40.10
-39.86
-41.78
-44.52
-46.43
-46.08
-42.80
-36.99
-29.96
-23.49
-19.10
-17.36
-17.57
-17.83
-15.46
-7.65
7.66
31.11
61.23
94.47
125.67
149.23
160.47
156.81
138.25
106.95
66.29
19.92
-28.67
-76.14
-118.89
-153.13
-175.41
-183.66
-178.14
-161.72
-139.12
-115.51
-94.89
-79.09
-67.78
-59.27
-51.78
-44.38
-37.34
-31.72
-28.60
-28.48
-30.90
-34.49
-37.15
-36.37
-29.62
-14.95
8.16
38.12
71.23
102.41
126.71
140.89
144.25
138.59
127.11
113.06
98.81
85.56
73.82
63.91
56.29
51.44
49.49
49.93
51.73
53.62
54.59
54.20
52.62
50.44
48.21
46.21
44.32
42.16
39.36
35.82
31.85
28.02
24.95
23.00
22.10
21.77
21.30
20.01
17.45
13.59
8.80
3.70
-1.03
-4.92
-7.80
-9.91
-11.71
-13.74
-16.25
-19.23
-22.27
-24.87
-26.60
-27.35
-27.31
-26.86
-26.33
-25.82
-25.15
-23.90
-21.67
-18.27
-13.83
-8.77
-3.66
0.99
4.88
7.92
10.19
11.77
12.71
12.97
12.57
11.57
10.17
8.67
7.32
6.27
5.57
5.18
5.05
5.18
5.56
6.18
6.95
7.71
8.32
8.68
8.78
8.67
8.40
7.95
7.22
6.06
4.36
2.09
-0.63
-3.61
-6.60
-9.40
-11.91
-14.06
-15.84
-17.13
-17.71
-17.35
-15.82
-13.04
-9.21
-4.73
-0.13
4.12
7.76
10.73
13.13
15.08
16.59
17.55
17.82
17.34
16.21
14.70
13.17
11.93
11.14
10.73
10.50
10.20
9.69
9.02
8.36
7.90
7.71
7.67
7.51
6.99
5.93
4.34
2.38
0.17
-2.21
-4.82
-7.74
-11.00
-14.46
-17.83
-20.76
-22.95
-24.26
-24.67
-24.22
-22.91
-20.69
-17.52
-13.48
-8.86
-4.14
0.18
3.69
6.24
7.89
8.84
9.26
9.29
9.02
8.56
8.13
7.91
8.02
8.42
8.89
9.19
9.21
9.00
8.76
8.74
9.03
9.54
10.00
10.12
9.66
8.48
6.64
4.27
1.58
-1.18
-3.80
-6.10
-8.03
-9.71
-11.32
-13.08
-15.09
-17.27
-19.35
-20.95
-21.64
-21.08
-19.12
-15.83
-11.53
-6.75
-2.08
1.97
5.04
7.04
8.08
8.36
8.11
7.52
6.73
5.79
4.75
3.60
2.31
0.88
-0.62
-2.08
-3.35
-4.34
-5.06
-5.64
-6.28
-7.18
-8.50
-10.32
-12.60
-15.24
-17.99
-20.58
-22.74
-24.28
-25.16
-25.45
-25.19
-24.33
-22.70
-20.09
-16.40
-11.73
-6.36
-0.62
5.22
11.05
17.00
23.31
30.25
38.00
46.50
55.52
64.65
73.37
81.10
87.16
90.82
91.39
88.34
81.64
71.81
59.94
47.37
35.28
24.37
14.78
6.33
-1.18
-7.70
-12.92
-16.47
-18.15
-18.16
-17.06
-15.64
-14.59
-14.33
-14.89
-15.95
-17.16
-18.31
-19.52
-21.14
-23.55
-26.89
-30.93
-35.07
-38.61
-40.98
-41.96
-41.67
-40.41
-38.53
-36.24
-33.68
-30.91
-28.03
-25.21
-22.72
-20.94
-20.27
-20.98
-23.08
-26.25
-29.83
-33.09
-35.41
-36.51
-36.53
-35.88
-35.03
-34.31
-33.79
-33.37
-32.89
-32.28
-31.59
-30.97
-30.59
-30.51
-30.66
-30.86
-30.93
-30.67
-30.01
-28.92
-27.36
-25.31
-22.74
-19.68
-16.27
-12.75
-9.40
-6.44
-3.93
-1.78
0.23
2.31
4.63
7.22
9.94
12.57
14.87
16.60
17.61
17.89
17.50
16.63
15.51
14.44
13.71
13.54
14.09
15.36
17.21
19.37
21.56
23.51
25.02
25.99
26.41
26.31
25.73
24.70
23.23
21.30
18.93
16.16
13.14
10.06
7.15
4.56
2.28
0.21
-1.84
-4.00
-6.26
-8.48
-10.37
-11.65
-12.03
-11.35
-9.57
-6.80
-3.30
0.53
4.26
7.50
10.03
11.77
12.80
13.23
13.20
12.79
12.10
11.20
10.23
9.32
8.58
8.10
7.90
7.96
8.24
8.64
9.10
9.57
9.99
10.35
10.59
10.68
10.59
10.31
9.83
9.18
8.40
7.56
6.71
5.85
4.93
3.80
2.28
0.27
-2.22
-5.02
-7.83
-10.28
-12.03
-12.81
-12.48
-10.97
-8.37
-4.83
-0.64
3.84
8.19
12.07
15.22
17.58
19.23
20.33
21.06
21.48
21.61
21.45
21.03
20.50
20.07
19.96
20.25
20.86
21.60
22.23
22.64
22.80
22.78
22.66
22.41
21.99
21.31
20.28
18.84
16.93
14.44
11.26
7.34
2.71
-2.43
-7.73
-12.86
-17.50
-21.46
-24.64
-27.05
-28.71
-29.59
-29.62
-28.67
-26.65
-23.54
-19.50
-14.83
-9.95
-5.31
-1.24
2.02
4.44
6.10
7.17
7.89
8.44
9.02
9.78
10.82
12.20
13.88
15.75
17.66
19.47
21.08
22.49
23.72
24.79
25.63
26.08
25.95
25.09
23.45
21.10
18.11
14.52
10.35
5.56
0.12
-5.97
-12.80
-20.47
-29.04
-38.38
-48.06
-57.33
-65.35
-71.37
-75.02
-76.35
-75.71
-73.59
-70.41
-66.49
-62.12
-57.59
-53.21
-49.24
-45.79
-42.76
-39.96
-37.10
-33.99
-30.54
-26.81
-22.96
-19.28
-16.08
-13.58
-11.84
-10.65
-9.64
-8.34
-6.38
-3.65
-0.34
3.09
6.02
7.91
8.49
7.87
6.53
5.14
4.34
4.51
5.69
7.66
10.09
12.84
15.94
19.65
24.16
29.47
35.19
40.60
44.86
47.30
47.66
46.18
43.46
40.21
37.00
34.13
31.73
29.80
28.34
27.37
26.81
26.51
26.26
25.96
25.63
25.50
25.77
26.57
27.79
29.21
30.59
31.78
32.76
33.60
34.34
35.02
35.63
36.20
36.78
37.40
38.05
38.67
39.27
40.03
41.43
44.11
48.71
55.42
63.79
72.69
80.61
86.17
88.56
87.78
84.53
79.79
74.46
68.94
63.14
56.62
48.84
39.36
28.07
15.15
1.17
-13.11
-26.82
-39.13
-49.48
-57.66
-63.86
-68.60
-72.65
-76.72
-81.27
-86.30
-91.38
-95.88
-99.25
-101.34
-102.44
-103.20
-104.20
-105.66
-107.24
-108.14
-107.39
-104.23
-98.41
-90.34
-80.97
-71.56
-63.17
-56.19
-49.99
-43.08
-33.59
-20.12
-2.46
18.25
39.87
59.94
76.40
87.93
93.82
93.76
87.65
75.72
58.85
38.66
17.31
-3.06
-20.90
-35.45
-46.69
-54.82
-59.96
-62.05
-60.94
-56.76
-50.02
-41.60
-32.52
-23.67
-15.79
-9.44
-5.06
-2.95
-3.18
-5.44
-9.10
-13.29
-17.22
-20.43
-22.80
-24.46
-25.63
-26.41
-26.85
-26.92
-26.50
-25.29
-22.72
-17.98
-10.34
0.48
13.87
28.32
41.73
52.12
58.23
59.84
57.66
52.91
46.89
40.63
34.85
29.99
26.31
23.95
22.87
22.90
23.65
24.67
25.52
25.92
25.81
25.35
24.80
24.40
24.29
24.32
24.24
23.71
22.49
20.57
18.19
15.73
13.56
11.89
10.77
10.06
9.51
8.87
7.92
6.48
4.40
1.58
-2.03
-6.38
-11.31
-16.55
-21.69
-26.34
-30.11
-32.77
-34.22
-34.53
-33.87
-32.48
-30.60
-28.47
-26.28
-24.12
-21.95
-19.65
-17.07
-14.15
-10.98
-7.76
-4.74
-2.07
0.21
2.13
3.70
4.91
5.70
6.05
6.00
5.58
4.78
3.56
1.81
-0.46
-3.11
-5.86
-8.32
-10.12
-11.03
-10.93
-9.89
-8.07
-5.76
-3.31
-1.03
0.85
2.32
3.57
4.91
6.66
8.98
11.89
15.19
18.55
21.64
24.21
26.20
27.68
28.81
29.73
30.46
30.91
30.94
30.49
29.68
28.87
28.44
28.68
29.57
30.89
32.31
33.49
34.26
34.62
34.74
34.83
35.01
35.22
35.19
34.43
32.20
27.74
20.64
11.04
-0.36
-12.54
-24.42
-35.14
-44.18
-51.61
-57.72
-62.72
-66.62
-69.37
-70.91
-71.04
-69.32
-65.00
-57.85
-47.88
-35.04
-19.19
-0.39
20.74
43.23
65.90
87.65
106.69
121.50
131.62
137.93
142.02
145.22
148.19
150.31
149.62
142.21
124.55
95.52
57.28
14.51
-27.86
-65.41
-95.77
-112.09
-109.22
-87.60
-54.39
-18.57
14.37
41.75
63.29
77.12
82.82
79.03
65.78
45.25
20.86
-4.41
-31.29
-57.14
-81.13
-104.75
-129.90
-156.31
-181.26
-201.04
-212.98
-217.83
-216.86
-195.52
-148.23
-81.59
-9.67
55.57
102.02
133.27
152.34
161.47
162.11
156.16
143.84
126.84
108.54
92.55
78.21
62.03
42.09
18.74
-8.16
-38.58
-71.15
-103.24
-132.43
-162.07
-197.61
-241.83
-293.97
-352.65
-417.03
-486.61
-560.73
-604.93
-595.73
-531.68
-430.97
-315.14
-199.31
-92.87
-2.38
68.37
119.50
150.01
161.79
160.81
153.59
145.05
137.70
132.23
129.00
128.53
127.29
121.97
111.75
96.10
73.79
45.73
14.19
-17.26
-44.95
-68.89
-90.44
-110.93
-129.66
-146.26
-159.67
-168.86
-172.84
-170.89
-163.83
-152.32
-139.35
-126.26
-113.40
-100.33
-86.55
-71.75
-55.93
-40.02
-25.27
-12.86
-3.10
4.37
10.63
16.88
24.18
33.09
43.54
54.90
66.16
76.74
86.46
95.84
105.61
116.39
128.29
140.76
152.70
162.85
170.44
175.38
178.33
180.58
183.68
189.29
198.81
212.88
230.77
250.06
266.73
276.18
274.90
261.99
239.75
212.88
186.64
164.76
148.46
136.60
126.95
117.69
108.14
98.67
89.91
82.11
74.84
67.41
59.25
50.22
40.61
30.74
20.75
10.66
0.65
-8.57
-15.74
-19.30
-17.95
-11.08
1.13
17.81
37.87
60.10
83.17
105.47
125.07
139.84
147.94
148.18
140.22
124.67
102.91
77.05
49.79
24.18
3.10
-11.38
-18.58
-19.34
-15.71
-10.17
-4.96
-1.64
-0.95
-2.99
-7.39
-13.52
-20.54
-27.59
-33.84
-38.60
-41.44
-42.25
-41.47
-40.08
-39.47
-40.87
-44.75
-50.34
-55.93
-59.70
-60.78
-59.91
-59.13
-60.77
-66.16
-75.02
-85.70
-96.14
-104.82
-111.20
-115.45
-117.89
-118.60
-117.45
-114.48
-110.07
-105.00
-100.13
-95.97
-92.50
-89.19
-85.24
-79.86
-72.58
-63.24
-51.97
-39.09
-24.87
-9.51
6.78
23.55
39.90
54.52
65.99
73.32
76.50
76.59
75.42
74.87
76.13
79.31
83.56
87.65
90.51
91.71
91.51
90.55
89.47
88.68
88.25
87.87
86.78
83.50
75.70
60.62
36.06
1.81
-39.44
-82.25
-119.89
-146.61
-159.51
-159.17
-148.85
-132.73
-114.40
-96.19
-79.41
-64.96
-53.66
-45.97
-41.46
-38.60
-35.25
-29.58
-21.04
-10.75
-1.00
5.64
7.44
4.21
-2.59
-10.27
-15.75
-16.59
-11.99
-3.36
5.95
11.67
10.30
0.66
-15.37
-33.30
-47.73
-54.33
-51.43
-40.30
-24.39
-7.69
6.58
16.72
22.45
24.33
23.29
20.31
16.44
12.78
10.55
10.82
14.22
20.64
29.10
37.95
45.40
50.01
51.20
49.32
45.38
40.60
35.97
32.09
29.26
27.66
27.43
28.58
30.77
33.27
35.15
35.52
33.87
30.12
24.50
17.42
9.35
0.75
-7.93
-16.24
-23.71
-29.88
-34.21
-36.19
-35.54
-32.37
-27.33
-21.42
-15.53
-10.01
-4.58
1.46
8.61
16.59
24.25
29.99
32.49
31.44
27.74
22.98
18.74
15.71
13.48
10.80
6.39
-0.42
-9.39
-19.54
-29.75
-39.17
-47.45
-54.53
-60.44
-65.05
-68.26
-70.04
-70.59
-70.20
-69.11
-67.36
-64.83
-61.25
-56.33
-49.74
-41.09
-30.05
-16.61
-1.35
14.41
28.89
40.38
47.98
51.88
53.27
53.69
54.32
55.43
56.47
56.55
55.12
52.43
49.44
47.34
46.85
47.89
49.69
51.26
52.00
52.04
52.14
53.13
55.42
58.58
61.46
62.49
60.41
54.68
45.78
35.12
24.58
15.99
10.63
9.02
10.90
15.25
20.26
23.34
21.59
12.47
-5.03
-29.58
-57.41
-83.39
-102.72
-112.58
-112.97
-106.19
-95.53
-83.76
-72.26
-60.90
-48.83
-35.41
-20.73
-5.88
7.50
17.83
24.21
26.70
26.16
23.68
20.02
15.37
9.46
2.15
-6.09
-14.03
-19.95
-22.29
-20.18
-13.74
-4.13
6.51
15.23
18.75
14.10
-0.38
-24.21
-54.64
-87.28
-117.29
-140.67
-155.06
-159.67
-154.89
-141.71
-121.53
-96.21
-68.22
-40.47
-15.86
3.37
16.08
22.43
23.64
21.58
18.25
15.41
14.25
15.29
18.51
23.47
29.61
36.42
43.37
49.95
55.55
59.67
62.18
63.43
64.14
65.06
66.54
68.45
70.19
71.09
70.74
69.14
66.54
63.28
59.60
55.49
50.77
45.07
37.86
28.51
16.50
1.83
-14.65
-31.13
-45.29
-54.96
-58.92
-57.36
-51.83
-44.63
-38.16
-34.20
-33.56
-35.84
-39.47
-41.79
-39.56
-29.86
-11.44
14.21
42.54
66.97
80.97
80.36
64.83
37.92
5.64
-25.67
-51.19
-68.55
-77.68
-80.07
-77.79
-72.84
-66.75
-60.63
-55.21
-50.96
-48.18
-47.00
-47.20
-48.18
-48.86
-47.99
-44.49
-37.68
-27.55
-14.66
0.06
15.45
30.21
42.91
52.19
57.23
58.56
58.61
61.53
71.80
92.27
122.45
158.08
192.38
218.65
232.70
234.10
225.66
211.54
195.09
177.64
158.69
137.20
112.88
86.78
60.83
36.87
15.75
-2.84
-19.72
-35.24
-48.80
-59.22
-65.78
-69.24
-72.17
-77.88
-88.69
-104.36
-121.70
-135.77
-142.12
-138.82
-127.21
-110.99
-94.33
-80.02
-68.66
-59.22
-50.23
-40.83
-31.12
-21.80
-13.63
-7.10
-2.81
-1.75
-5.10
-13.24
-24.32
-33.36
-32.94
-15.70
22.14
78.03
142.63
202.57
244.99
262.08
253.28
224.16
182.83
136.14
87.59
37.88
-12.81
-62.68
-107.86
-143.86
-167.88
-180.43
-185.17
-186.96
-189.46
-193.40
-196.45
-194.52
-184.03
-163.74
-135.50
-103.78
-74.15
-51.68
-39.65
-38.98
-48.05
-63.12
-79.00
-90.12
-91.91
-82.12
-61.57
-34.12
-5.48
18.57
33.85
38.92
35.03
25.24
13.02
0.81
-10.87
-23.30
-38.54
-57.90
-80.71
-104.08
-123.89
-136.33
-139.34
-133.12
-119.53
-101.26
-81.05
-61.34
-44.18
-31.26
-23.49
-20.75
-21.71
-24.30
-26.47
-26.82
-25.01
-21.62
-17.65
-14.18
-11.99
-11.49
-12.63
-15.02
-18.00
-20.86
-23.11
-24.46
-24.57
-22.64
-17.30
-6.87
9.67
31.75
56.78
80.63
99.08
109.48
111.73
108.21
102.53
98.02
96.66
98.91
104.22
111.59
119.80
127.38
132.53
133.40
128.82
118.83
105.02
90.08
76.91
67.67
62.92
61.31
59.88
54.88
43.11
23.18
-3.68
-33.76
-62.10
-84.11
-97.15
-101.03
-97.46
-88.78
-76.80
-62.27
-45.41
-26.66
-7.26
10.81
25.61
36.09
42.57
46.72
50.71
56.37
64.38
74.08
83.91
92.25
98.23
102.20
105.57
110.01
116.55
124.99
134.04
142.04
147.88
151.41
153.09
153.20
150.98
144.43
130.97
108.27
74.87
30.34
-24.73
-88.33
-156.17
-221.03
-273.41
-303.78
-306.08
-280.71
-235.18
-181.79
-133.28
-98.49
-80.11
-75.26
-78.20
-83.33
-87.09
-88.22
-86.92
-83.91
-79.93
-75.82
-72.65
-71.70
-74.02
-79.86
-88.30
-97.56
-105.79
-112.08
-117.14
-122.93
-131.42
-143.09
-155.80
-165.06
-165.44
-152.39
-123.58
-79.24
-21.88
44.09
112.45
175.38
224.32
251.83
253.98
232.11
192.86
146.16
102.06
67.77
46.26
36.55
35.16
37.90
41.12
42.38
40.49
35.37
27.77
18.88
9.92
1.89
-4.54
-9.01
-11.40
-11.71
-10.05
-6.71
-2.14
3.04
8.23
12.90
16.72
19.56
21.38
22.19
21.89
20.30
17.26
12.88
7.64
2.38
-1.99
-4.88
-6.36
-7.17
-8.37
-10.80
-14.53
-18.83
-22.39
-23.99
-22.97
-19.39
-13.92
-7.34
-0.30
6.85
13.90
20.56
26.44
31.09
34.16
35.62
35.69
34.75
33.15
31.17
28.95
26.63
24.40
22.52
21.24
20.68
20.70
20.94
20.90
20.19
18.64
16.44
13.98
11.68
9.73
8.02
6.21
3.92
0.97
-2.57
-6.41
-10.19
-13.74
-17.11
-20.56
-24.36
-28.59
-33.03
-37.15
-40.25
-41.69
-41.14
-38.71
-34.97
-30.80
-27.16
-24.83
-24.17
-25.15
-27.41
-30.48
-33.97
-37.65
-41.45
-45.37
-49.41
-53.57
-57.76
-61.77
-65.27
-67.78
-68.84
-68.15
-65.69
-61.71
-56.48
-49.99
-41.70
-30.58
-15.49
4.23
28.36
55.60
83.82
110.64
134.00
152.60
165.94
174.24
178.13
178.44
176.06
171.77
166.21
159.83
152.83
145.28
137.24
128.91
120.66
112.93
106.01
99.81
93.76
86.96
78.54
68.01
55.53
41.85
28.07
15.16
3.64
-6.58
-16.06
-25.53
-35.57
-46.49
-58.32
-70.84
-83.59
-95.78
-106.32
-113.97
-117.72
-117.19
-112.79
-105.64
-97.20
-88.82
-81.38
-75.15
-69.93
-65.33
-60.98
-56.66
-52.29
-47.90
-43.49
-39.13
-34.90
-31.02
-27.81
-25.64
-24.74
-25.15
-26.52
-28.28
-29.74
-30.33
-29.72
-27.84
-24.86
-20.92
-16.09
-10.37
-3.78
3.47
10.82
17.51
22.76
26.09
27.52
27.44
26.46
25.09
23.64
22.21
20.89
19.84
19.23
19.19
19.61
20.17
20.39
19.81
18.18
15.56
12.34
9.18
6.80
5.79
6.39
8.44
11.45
14.78
17.82
20.16
21.57
21.97
21.39
20.02
18.18
16.35
15.10
14.93
16.15
18.80
22.61
27.05
31.49
35.32
38.12
39.78
40.45
40.45
40.14
39.73
39.27
38.65
37.76
36.56
35.16
33.69
32.23
30.70
28.89
26.55
23.55
19.87
15.60
10.87
5.77
0.51
-4.54
-8.71
-11.22
-11.39
-8.91
-4.08
2.37
9.47
16.37
22.51
27.67
31.85
35.11
37.46
38.83
39.06
38.01
35.59
31.83
26.94
21.24
15.18
9.19
3.70
-0.96
-4.56
-6.95
-8.17
-8.38
-7.89
-7.08
-6.32
-5.88
-5.88
-6.34
-7.13
-8.08
-8.98
-9.67
-10.14
-10.57
-11.26
-12.59
-14.86
-18.15
-22.24
-26.68
-30.92
-34.44
-36.83
-37.81
-37.20
-34.88
-30.87
-25.43
-19.12
-12.78
-7.31
-3.38
-1.21
-0.47
-0.43
-0.32
0.35
1.58
3.04
4.28
5.01
5.35
5.69
6.54
8.25
10.87
14.14
17.56
20.60
22.77
23.70
23.18
21.19
17.91
13.69
9.04
4.47
0.38
-2.97
-5.50
-7.19
-8.06
-8.09
-7.27
-5.68
-3.58
-1.36
0.55
1.78
2.13
1.64
0.49
-1.03
-2.55
-3.71
-4.09
-3.45
-1.72
0.86
3.79
6.45
8.25
8.80
8.02
6.26
4.30
3.22
4.14
7.93
14.80
24.09
34.33
43.61
50.10
52.59
50.79
45.32
37.40
28.38
19.46
11.41
4.61
-0.96
-5.50
-9.37
-12.81
-15.89
-18.47
-20.23
-20.91
-20.47
-19.28
-18.00
-17.38
-18.00
-19.97
-22.86
-25.92
-28.27
-29.27
-28.75
-27.02
-24.84
-23.04
-22.35
-23.10
-25.22
-28.40
-32.22
-36.29
-40.26
-43.68
-46.03
-46.78
-45.62
-42.63
-38.33
-33.51
-28.86
-24.73
-20.99
-17.27
-13.18
-8.64
-3.86
0.77
4.89
8.33
11.17
13.51
15.48
17.16
18.60
19.87
21.03
22.00
22.62
22.62
21.82
20.27
18.22
16.10
14.28
12.96
12.05
11.08
9.37
6.12
0.75
-6.81
-15.88
-25.10
-32.83
-37.73
-39.36
-38.30
-35.95
-33.85
-33.18
-34.39
-37.23
-40.98
-44.70
-47.46
-48.41
-46.99
-43.09
-37.12
-29.98
-22.83
-16.72
-12.30
-9.74
-8.82
-9.10
-9.98
-10.80
-10.76
-9.15
-5.57
-0.18
6.21
12.32
16.87
19.04
18.72
16.53
13.42
10.26
7.50
5.10
2.72
0.06
-2.92
-5.92
-8.48
-10.23
-11.02
-10.99
-10.39
-9.50
-8.59
-7.97
-8.02
-9.03
-11.05
-13.70
-16.15
-17.38
-16.65
-13.78
-9.21
-3.76
1.68
6.50
10.39
13.22
14.90
15.35
14.57
12.82
10.64
8.69
7.52
7.27
7.59
7.77
6.99
4.65
0.51
-5.14
-11.54
-17.54
-21.83
-23.26
-21.19
-15.75
-7.84
1.08
9.51
16.23
20.59
22.49
22.28
20.64
18.33
16.12
14.44
13.28
12.12
10.23
7.14
2.99
-1.39
-4.86
-6.52
-6.13
-4.20
-1.55
0.99
2.97
4.20
4.63
4.17
2.67
0.06
-3.49
-7.65
-11.90
-15.76
-18.82
-20.75
-21.30
-20.31
-17.74
-13.72
-8.59
-2.78
3.16
8.66
13.21
16.48
18.41
19.26
19.50
19.56
19.63
19.59
19.20
18.41
17.60
17.45
18.55
20.94
23.87
26.03
26.18
23.78
19.36
14.21
9.82
7.17
6.39
6.88
7.75
8.27
8.11
7.25
5.85
4.06
1.93
-0.50
-3.23
-6.24
-9.54
-13.15
-16.99
-20.80
-24.15
-26.52
-27.50
-26.98
-25.34
-23.32
-21.93
-22.12
-24.45
-28.82
-34.36
-39.52
-42.49
-41.76
-36.71
-27.86
-16.83
-5.72
3.50
9.61
12.41
12.42
10.48
7.24
3.12
-1.41
-5.39
-7.08
-4.22
5.23
22.28
46.13
74.07
101.91
124.85
138.49
139.89
128.19
105.00
74.31
41.96
14.65
-1.32
-1.41
15.77
47.85
88.69
129.52
160.94
175.18
167.78
138.23
89.56
27.48
-40.60
-106.35
-161.68
-200.23
-219.10
-219.88
-208.09
-191.09
-175.17
-163.27
-154.66
-146.35
-135.55
-121.32
-104.79
-87.98
-72.44
-58.46
-45.51
-33.19
-21.89
-12.74
-7.01
-5.23
-6.84
-10.44
-14.44
-17.53
-18.82
-17.39
-11.94
-0.80
17.40
42.79
73.45
105.49
133.96
154.31
163.76
161.95
150.65
132.83
111.56
89.27
67.50
47.16
28.89
13.25
0.71
-8.49
-14.58
-18.21
-20.25
-21.44
-22.11
-22.17
-21.27
-19.15
-15.82
-11.60
-7.00
-2.49
1.47
4.40
5.64
4.43
0.12
-7.41
-17.51
-28.82
-39.60
-48.22
-53.54
-55.08
-52.77
-46.87
-37.83
-26.27
-13.12
0.40
12.92
23.14
30.12
33.48
33.39
30.22
24.08
14.55
0.83
-17.54
-39.82
-63.50
-84.59
-98.89
-103.55
-98.40
-86.10
-71.06
-57.61
-48.33
-43.40
-41.34
-40.27
-39.21
-38.55
-39.56
-43.33
-49.84
-57.70
-64.62
-68.49
-68.32
-64.53
-58.44
-51.43
-44.16
-36.45
-27.73
-17.82
-7.41
2.12
9.43
13.91
16.06
17.16
18.47
20.46
22.67
24.12
24.13
22.87
21.36
20.99
22.65
26.35
31.19
35.96
39.70
42.21
43.89
45.34
46.85
48.11
48.33
46.72
42.96
37.46
31.21
25.31
20.47
16.76
13.72
10.61
6.78
1.80
-4.58
-12.26
-20.73
-28.84
-34.81
-36.70
-33.24
-24.51
-12.21
0.94
12.30
20.34
25.15
27.99
30.44
33.48
37.17
40.90
43.95
45.98
47.18
47.99
48.79
49.65
50.33
50.46
49.72
48.07
45.70
42.96
40.25
37.81
35.65
33.59
31.45
29.20
27.13
25.83
25.97
28.09
32.32
38.28
45.15
51.88
57.47
61.24
63.00
62.97
61.62
59.36
56.40
52.74
48.36
43.35
37.82
31.55
23.78
13.27
-1.00
-18.92
-38.68
-56.99
-70.20
-75.82
-73.44
-64.73
-52.32
-38.43
-23.93
-8.37
9.21
29.20
50.80
72.05
90.46
103.74
110.40
109.97
102.98
90.79
75.43
59.39
45.19
34.63
28.00
23.67
18.47
8.96
-6.95
-28.80
-53.72
-77.72
-97.68
-112.72
-124.13
-134.03
-143.64
-152.29
-157.84
-158.18
-152.73
-143.01
-131.87
-122.01
-114.74
-109.58
-104.89
-98.95
-90.82
-80.58
-68.87
-56.29
-42.96
-28.59
-12.91
3.92
21.10
37.30
51.05
61.16
67.11
69.13
68.20
65.70
62.99
60.85
59.18
57.10
53.37
47.09
38.21
27.67
16.90
7.24
-0.74
-7.29
-13.28
-19.71
-27.31
-36.20
-45.71
-54.31
-59.65
-59.05
-50.30
-32.69
-7.65
21.26
49.33
72.14
86.77
92.43
90.22
82.32
71.09
58.54
46.23
35.35
26.88
21.46
19.26
19.79
21.95
24.41
26.12
26.73
26.64
26.69
27.53
29.07
30.39
29.99
26.66
20.11
11.23
1.75
-6.52
-12.46
-15.99
-17.94
-19.53
-21.76
-25.10
-29.48
-34.48
-39.65
-44.63
-49.16
-52.99
-55.82
-57.25
-56.96
-54.81
-51.02
-46.15
-40.98
-36.26
-32.46
-29.61
-27.37
-25.23
-22.76
-19.81
-16.43
-12.85
-9.21
-5.51
-1.71
2.15
5.83
8.76
10.28
9.75
6.88
2.09
-3.17
-6.34
-4.30
5.66
24.54
50.84
80.58
108.56
130.01
142.23
145.20
141.01
132.53
121.97
110.17
96.77
81.18
63.54
45.18
28.31
15.18
7.04
3.52
2.89
2.96
2.09
-0.34
-4.14
-9.17
-15.77
-24.67
-36.17
-49.33
-61.97
-71.53
-76.47
-77.15
-75.64
-74.57
-75.49
-78.09
-80.43
-80.19
-76.10
-68.52
-59.15
-49.98
-42.24
-35.85
-29.73
-22.56
-13.62
-3.33
6.92
15.30
20.32
21.45
19.30
15.33
11.28
8.50
7.61
8.42
10.18
11.95
12.81
12.01
8.98
3.44
-4.32
-13.25
-21.48
-26.78
-27.36
-22.69
-13.98
-3.85
4.52
8.51
6.95
0.29
-9.72
-20.76
-30.59
-37.50
-40.50
-39.31
-34.34
-26.49
-16.96
-6.96
2.50
10.79
17.67
23.14
27.39
30.66
33.25
35.49
37.64
39.80
41.83
43.41
44.23
44.18
43.43
42.33
41.16
39.90
38.16
35.34
30.94
24.81
17.25
8.95
0.70
-6.85
-13.28
-18.37
-21.98
-23.98
-24.25
-22.83
-19.99
-16.29
-12.39
-8.92
-6.26
-4.50
-3.49
-2.94
-2.60
-2.27
-1.83
-1.18
-0.27
0.85
2.02
2.98
3.48
3.35
2.69
1.74
0.87
0.35
0.26
0.46
0.64
0.49
-0.22
-1.53
-3.34
-5.44
-7.57
-9.44
-10.77
-11.36
-11.17
-10.35
-9.29
-8.44
-8.22
-8.80
-10.03
-11.48
-12.55
-12.72
-11.64
-9.30
-5.98
-2.15
1.64
4.90
7.32
8.75
9.26
9.00
8.21
7.11
5.88
4.66
3.52
2.51
1.64
0.85
0.05
-0.83
-1.84
-2.88
-3.80
-4.47
-4.91
-5.34
-6.11
-7.55
-9.77
-12.50
-15.19
-17.14
-17.85
-17.23
-15.65
-13.85
-12.60
-12.43
-13.45
-15.43
-17.96
-20.66
-23.33
-25.83
-27.96
-29.36
-29.57
-28.23
-25.36
-21.41
-17.21
-13.58
-11.06
-9.79
-9.52
-9.88
-10.48
-11.02
-11.21
-10.79
-9.54
-7.42
-4.66
-1.70
0.87
2.61
3.31
3.09
2.33
1.52
1.02
0.97
1.16
1.19
0.68
-0.50
-2.00
-3.10
-2.90
-0.86
2.98
7.78
12.25
15.12
15.65
13.96
10.98
8.07
6.56
7.28
10.32
15.19
21.09
27.30
33.49
39.81
46.84
55.42
66.23
79.28
93.33
105.52
111.79
107.87
90.97
61.13
21.75
-21.16
-60.78
-91.48
-110.33
-117.34
-114.64
-105.16
-91.60
-75.89
-59.41
-43.43
-29.24
-18.10
-10.72
-6.97
-5.71
-5.23
-3.92
-1.03
3.06
7.11
9.64
9.76
7.57
4.10
0.83
-1.07
-1.12
0.36
2.69
5.21
7.65
10.11
12.84
15.94
19.27
22.43
25.00
26.64
27.20
26.69
25.26
23.17
20.81
18.65
17.12
16.41
16.40
16.67
16.77
16.39
15.54
14.55
13.78
13.49
13.67
14.05
14.25
13.98
13.09
11.65
9.83
7.90
6.13
4.71
3.62
2.63
1.27
-0.90
-4.11
-8.14
-12.31
-15.70
-17.41
-16.91
-14.25
-9.96
-4.91
-0.03
3.90
6.42
7.48
7.37
6.54
5.39
4.18
2.90
1.42
-0.34
-2.31
-4.25
-5.88
-6.99
-7.56
-7.73
-7.73
-7.72
-7.81
-8.11
-8.73
-9.81
-11.43
-13.54
-15.86
-18.02
-19.67
-20.64
-20.95
-20.81
-20.42
-19.98
-19.58
-19.31
-19.36
-19.90
-21.05
-22.73
-24.57
-26.00
-26.36
-25.11
-21.95
-16.93
-10.43
-3.17
3.90
9.77
13.61
15.01
14.13
11.63
8.47
5.53
3.36
2.09
1.55
1.45
1.59
1.95
2.59
3.57
4.87
6.38
7.99
9.71
11.59
13.71
15.98
18.08
19.48
19.64
18.23
15.29
11.29
6.96
3.06
0.07
-1.89
-3.09
-4.00
-5.06
-6.57
-8.59
-10.97
-13.42
-15.62
-17.20
-17.79
-17.05
-14.70
-10.72
-5.39
0.67
6.59
11.54
15.01
16.94
17.75
18.08
18.49
19.21
20.10
20.81
21.04
20.79
20.34
20.10
20.36
21.15
22.24
23.32
24.16
24.74
25.14
25.45
25.64
25.62
25.25
24.46
23.30
21.85
20.19
18.36
16.36
14.21
12.00
9.82
7.74
5.76
3.70
1.24
-2.16
-7.17
-14.40
-24.09
-35.74
-48.02
-58.97
-66.65
-69.79
-68.32
-63.28
-56.36
-49.11
-42.49
-36.82
-32.14
-28.56
-26.44
-26.14
-27.64
-30.29
-32.97
-34.55
-34.31
-32.22
-28.78
-24.63
-20.29
-15.97
-11.70
-7.49
-3.47
0.11
2.93
4.73
5.34
4.76
3.19
1.07
-1.01
-2.47
-3.02
-2.86
-2.66
-3.37
-5.81
-10.26
-16.39
-23.29
-29.76
-34.60
-36.88
-36.07
-32.18
-25.83
-18.20
-10.90
-5.53
-3.01
-2.89
-3.08
-0.24
9.01
26.63
51.98
81.52
109.83
131.28
141.82
140.00
126.90
105.25
78.31
49.14
20.33
-5.86
-27.48
-43.15
-52.34
-55.71
-54.93
-52.17
-49.45
-48.01
-48.08
-49.12
-50.24
-50.76
-50.46
-49.63
-48.81
-48.49
-48.75
-49.20
-49.05
-47.38
-43.46
-37.08
-28.63
-19.06
-9.59
-1.17
6.01
12.80
20.98
32.48
48.46
68.42
90.14
110.28
125.65
134.36
136.40
133.33
127.37
120.31
113.01
105.44
97.31
88.62
79.95
72.15
65.89
61.18
57.27
53.05
47.54
40.45
32.22
23.93
16.73
11.42
8.15
6.44
5.42
4.11
1.64
-2.65
-9.16
-17.97
-28.79
-40.90
-53.18
-64.33
-73.08
-78.54
-80.42
-79.09
-75.44
-70.63
-65.68
-61.17
-57.14
-53.31
-49.40
-45.35
-41.51
-38.31
-36.08
-34.70
-33.68
-32.43
-30.59
-28.29
-26.09
-24.67
-24.46
-25.34
-26.67
-27.41
-26.57
-23.48
-18.08
-10.83
-2.59
5.70
13.20
19.22
23.28
25.02
24.34
21.45
16.98
11.84
7.07
3.46
1.33
0.54
0.62
1.09
1.69
2.52
3.83
5.90
8.74
12.13
15.62
18.77
21.25
22.88
23.59
23.34
22.08
19.83
16.73
13.05
9.23
5.71
2.90
1.07
0.34
0.70
2.01
4.04
6.52
9.13
11.58
13.60
14.95
15.48
15.11
13.93
12.09
9.80
7.14
4.06
0.43
-3.81
-8.55
-13.43
-18.01
-21.95
-25.17
-27.83
-30.23
-32.50
-34.54
-35.86
-35.89
-34.10
-30.40
-25.16
-19.14
-13.21
-8.01
-3.83
-0.53
2.20
4.67
6.93
8.82
10.03
10.30
9.56
7.93
5.65
2.97
0.09
-2.87
-5.80
-8.48
-10.52
-11.46
-10.86
-8.58
-4.88
-0.37
4.14
7.99
10.93
13.09
14.86
16.50
17.97
18.88
18.71
17.08
13.94
9.54
4.24
-1.61
-7.82
-14.25
-20.68
-26.64
-31.45
-34.43
-35.13
-33.63
-30.49
-26.60
-22.69
-19.04
-15.48
-11.56
-7.10
-2.43
1.57
3.91
3.96
1.94
-1.18
-4.10
-5.78
-5.91
-4.94
-3.77
-3.23
-3.64
-4.76
-5.92
-6.55
-6.43
-5.89
-5.53
-5.91
-7.17
-8.95
-10.64
-11.67
-11.77
-11.08
-10.01
-9.04
-8.60
-8.95
-10.16
-12.06
-14.19
-15.80
-16.08
-14.43
-10.77
-5.56
0.31
5.91
10.60
14.23
17.04
19.36
21.44
23.22
24.45
24.79
24.02
22.23
19.74
17.10
14.88
13.51
13.20
13.94
15.52
17.60
19.83
21.91
23.73
25.35
26.97
28.57
29.76
29.63
27.10
21.40
12.67
2.14
-8.09
-15.59
-18.18
-14.30
-3.41
13.84
35.41
57.92
77.23
89.36
91.79
84.28
68.97
49.63
30.28
13.93
1.86
-6.27
-11.88
-16.65
-21.98
-28.60
-36.64
-45.74
-55.23
-64.43
-72.64
-79.30
-84.06
-86.87
-87.95
-87.65
-86.24
-83.66
-79.42
-72.81
-63.29
-50.96
-36.79
-22.49
-10.03
-1.14
3.25
3.12
-0.68
-6.68
-12.98
-17.37
-17.57
-11.74
0.83
19.05
39.91
59.12
72.38
76.90
72.24
60.33
44.44
27.95
13.25
1.48
-7.28
-13.39
-17.29
-19.30
-19.83
-19.37
-18.51
-17.69
-17.05
-16.35
-15.14
-12.97
-9.64
-5.28
-0.26
4.94
9.91
14.34
18.10
21.17
23.58
25.36
26.54
27.14
27.20
26.76
25.90
24.76
23.51
22.30
21.16
20.00
18.62
16.76
14.35
11.46
8.38
5.42
2.77
0.41
-1.85
-4.23
-6.75
-9.17
-10.99
-11.67
-10.86
-8.53
-4.98
-0.72
3.75
8.03
11.85
15.07
17.57
19.25
20.06
20.04
19.42
18.55
17.79
17.39
17.42
17.75
18.21
18.72
19.32
20.18
21.39
22.92
24.48
25.74
26.41
26.39
25.75
24.65
23.20
21.47
19.49
17.37
15.29
13.41
11.74
10.09
8.17
5.70
2.64
-0.86
-4.45
-7.72
-10.37
-12.15
-12.95
-12.80
-11.86
-10.47
-9.03
-7.88
-7.13
-6.65
-6.18
-5.47
-4.46
-3.31
-2.30
-1.68
-1.53
-1.76
-2.08
-2.18
-1.83
-0.93
0.42
2.02
3.57
4.77
5.38
5.29
4.50
3.10
1.31
-0.66
-2.63
-4.43
-5.98
-7.21
-8.16
-8.94
-9.77
-10.92
-12.67
-15.17
-18.34
-21.91
-25.41
-28.36
-30.37
-31.22
-30.87
-29.41
-26.99
-23.84
-20.19
-16.33
-12.55
-9.11
-6.21
-4.01
-2.57
-1.86
-1.76
-2.08
-2.59
-3.11
-3.56
-3.92
-4.20
-4.39
-4.49
-4.49
-4.52
-4.77
-5.46
-6.69
-8.34
-10.11
-11.64
-12.67
-13.16
-13.27
-13.22
-13.20
-13.29
-13.50
-13.83
-14.38
-15.27
-16.58
-18.27
-20.13
-21.83
-22.93
-23.05
-21.90
-19.36
-15.53
-10.71
-5.35
0.08
5.15
9.61
13.34
16.31
18.53
19.94
20.58
20.53
20.02
19.35
18.79
18.47
18.30
18.06
17.44
16.24
14.43
12.17
9.74
7.49
5.65
4.31
3.29
2.30
0.96
-0.98
-3.54
-6.50
-9.54
-12.41
-14.99
-17.37
-19.66
-21.96
-24.24
-26.37
-28.16
-29.43
-29.98
-29.62
-28.17
-25.57
-21.96
-17.64
-13.09
-8.76
-4.99
-1.96
0.33
1.95
2.96
3.54
3.87
4.23
4.88
5.93
7.33
8.86
10.31
11.59
12.76
14.04
15.59
17.45
19.42
21.13
22.17
22.24
21.15
18.89
15.60
11.51
6.99
2.42
-1.86
-5.65
-8.93
-11.86
-14.66
-17.58
-20.77
-24.25
-27.84
-31.16
-33.64
-34.67
-33.86
-31.16
-26.95
-21.92
-16.80
-12.15
-8.17
-4.83
-1.90
0.84
3.57
6.41
9.43
12.65
15.99
19.27
22.23
24.65
26.40
27.44
27.88
27.79
27.28
26.47
25.54
24.71
24.18
24.08
24.33
24.76
25.19
25.56
26.01
26.79
28.14
30.13
32.55
34.96
36.82
37.61
36.92
34.55
30.56
25.31
19.40
13.59
8.66
5.14
3.19
2.59
2.82
3.23
3.26
2.61
1.32
-0.32
-1.80
-2.70
-2.77
-2.11
-1.03
0.03
0.81
1.29
1.66
2.15
2.85
3.61
4.18
4.32
4.05
3.60
3.29
3.33
3.65
3.97
3.90
3.22
1.94
0.34
-1.26
-2.57
-3.56
-4.38
-5.36
-6.82
-8.93
-11.70
-14.98
-18.47
-21.84
-24.68
-26.63
-27.34
-26.57
-24.23
-20.42
-15.44
-9.76
-3.94
1.47
6.05
9.53
11.87
13.21
13.80
13.90
13.73
13.45
13.15
12.93
12.92
13.27
14.05
15.21
16.57
17.84
18.79
19.30
19.37
19.11
18.59
17.87
16.92
15.69
14.20
12.49
10.71
8.97
7.35
5.86
4.40
2.87
1.13
-0.90
-3.27
-5.94
-8.84
-11.88
-14.89
-17.65
-19.85
-21.17
-21.30
-20.11
-17.64
-14.15
-10.12
-6.05
-2.44
0.37
2.28
3.36
3.87
4.10
4.29
4.57
4.93
5.36
5.88
6.54
7.47
8.68
10.08
11.42
12.42
12.84
12.63
11.91
10.90
9.76
8.51
6.99
4.96
2.25
-1.11
-4.92
-8.85
-12.65
-16.21
-19.61
-23.07
-26.76
-30.68
-34.70
-38.53
-41.87
-44.43
-46.00
-46.44
-45.70
-43.85
-41.08
-37.68
-34.03
-30.46
-27.23
-24.45
-22.16
-20.34
-18.90
-17.76
-16.80
-15.90
-14.97
-13.98
-12.94
-11.89
-10.84
-9.72
-8.39
-6.74
-4.65
-2.14
0.66
3.55
6.35
8.88
11.09
13.00
14.67
16.18
17.63
19.00
20.22
21.12
21.50
21.20
20.23
18.74
17.06
15.59
14.83
15.18
16.88
19.88
23.80
27.96
31.61
34.13
35.28
35.21
34.31
33.02
31.53
29.80
27.63
24.89
21.64
18.03
14.20
10.09
5.50
0.28
-5.52
-11.56
-17.35
-22.62
-27.40
-32.07
-37.15
-43.02
-49.61
-56.23
-61.44
-63.27
-59.72
-49.47
-32.47
-10.18
14.73
39.00
59.46
73.46
79.12
75.37
62.20
40.93
14.43
-13.17
-37.33
-54.25
-62.00
-60.97
-53.52
-43.06
-32.84
-25.09
-20.49
-18.39
-17.35
-15.90
-13.25
-9.52
-5.54
-2.28
-0.42
-0.00
-0.46
-1.05
-1.18
-0.64
0.41
1.55
2.32
2.19
0.57
-3.15
-9.21
-16.98
-24.52
-28.81
-26.64
-15.99
2.75
26.56
50.64
70.18
82.02
85.44
81.85
73.60
62.72
50.46
37.37
24.00
11.41
1.05
-5.74
-8.40
-7.40
-4.03
0.16
4.00
6.95
8.99
10.33
11.15
11.44
11.01
9.56
6.81
2.55
-3.16
-9.82
-16.49
-21.95
-25.11
-25.50
-23.44
-19.96
-16.31
-13.37
-11.41
-10.09
-8.84
-7.25
-5.32
-3.44
-2.21
-2.24
-4.04
-7.91
-13.84
-21.37
-29.61
-37.36
-43.44
-47.01
-47.89
-46.44
-43.33
-39.11
-33.91
-27.47
-19.40
-9.50
1.91
13.99
25.70
36.10
44.66
51.35
56.59
61.16
66.21
73.34
84.36
100.81
122.75
147.79
170.81
184.93
183.73
163.76
126.10
76.36
22.84
-26.17
-64.71
-90.35
-103.76
-107.59
-105.08
-99.04
-91.53
-83.67
-75.85
-67.87
-59.32
-50.12
-41.04
-33.98
-31.85
-37.86
-54.45
-82.13
-118.69
-159.22
-197.13
-225.77
-240.30
-239.10
-224.03
-199.61
-171.29
-143.75
-119.73
-99.98
-83.86
-70.23
-58.03
-46.36
-34.02
-19.34
-0.47
23.67
52.28
82.34
109.28
128.57
137.58
136.44
127.78
115.23
101.86
89.18
77.21
65.49
54.01
43.72
36.23
32.94
34.23
39.11
45.61
51.44
54.84
55.04
52.40
48.00
43.07
38.49
34.58
31.19
28.09
25.30
23.22
22.44
23.39
25.96
29.50
32.96
35.27
35.78
34.46
31.76
28.37
24.92
21.73
18.85
16.22
13.80
11.65
9.94
8.81
8.25
8.06
7.94
7.57
6.77
5.57
4.11
2.57
1.03
-0.55
-2.26
-4.17
-6.25
-8.42
-10.58
-12.75
-15.01
-17.49
-20.25
-23.25
-26.40
-29.55
-32.57
-35.28
-37.34
-38.27
-37.53
-34.78
-30.03
-23.83
-17.04
-10.59
-5.12
-0.82
2.53
5.28
7.64
9.59
10.91
11.42
11.13
10.34
9.45
8.79
8.48
8.41
8.37
8.21
7.96
7.77
7.77
7.98
8.25
8.32
7.91
6.90
5.32
3.41
1.45
-0.31
-1.78
-3.05
-4.37
-6.02
-8.22
-11.05
-14.35
-17.77
-20.78
-22.76
-23.17
-21.70
-18.36
-13.52
-7.83
-2.00
3.35
7.79
11.16
13.42
14.67
15.02
14.66
13.81
12.80
11.95
11.49
11.48
11.78
12.17
12.45
12.51
12.39
12.25
12.24
12.46
12.85
13.20
13.21
12.54
10.98
8.53
5.45
2.22
-0.67
-2.89
-4.42
-5.59
-6.86
-8.69
-11.28
-14.53
-18.02
-21.18
-23.37
-24.07
-22.99
-20.15
-15.92
-10.92
-5.82
-1.17
2.76
5.94
8.48
10.45
11.82
12.48
12.33
11.43
10.04
8.54
7.30
6.59
6.45
6.73
7.21
7.65
7.93
7.98
7.84
7.57
7.13
6.46
5.46
4.10
2.43
0.63
-1.09
-2.53
-3.65
-4.52
-5.38
-6.49
-8.08
-10.21
-12.79
-15.53
-18.05
-19.87
-20.56
-19.79
-17.43
-13.64
-8.88
-3.81
0.87
4.61
7.15
8.56
9.14
9.20
8.99
8.57
7.88
6.85
5.50
3.99
2.59
1.58
1.20
1.56
2.65
4.41
6.73
9.51
12.69
16.22
20.01
23.93
27.80
31.39
34.52
37.05
38.98
40.38
41.41
42.31
43.31
44.59
46.30
48.45
50.90
53.32
55.19
55.91
54.86
51.67
46.25
38.81
29.82
19.81
9.24
-1.48
-11.96
-21.73
-30.26
-37.03
-41.69
-44.16
-44.69
-43.71
-41.73
-39.23
-36.49
-33.73
-31.03
-28.40
-25.85
-23.34
-20.82
-18.26
-15.73
-13.42
-11.68
-10.97
-11.68
-13.99
-17.74
-22.44
-27.35
-31.79
-35.36
-37.98
-39.94
-41.59
-43.16
-44.65
-45.86
-46.45
-46.10
-44.58
-41.74
-37.56
-32.16
-25.88
-19.21
-12.71
-6.87
-1.98
1.92
4.95
7.27
9.02
10.28
11.08
11.48
11.59
11.55
11.46
11.40
11.40
11.47
11.62
11.86
12.20
12.61
12.98
13.09
12.68
11.50
9.51
6.89
4.08
1.55
-0.31
-1.46
-2.23
-3.19
-4.91
-7.69
-11.43
-15.63
-19.51
-22.28
-23.36
-22.56
-20.08
-16.45
-12.33
-8.31
-4.84
-2.16
-0.30
0.71
0.95
0.55
-0.24
-1.09
-1.69
-1.78
-1.31
-0.35
0.92
2.33
3.73
5.02
6.17
7.14
7.98
8.71
9.42
10.09
10.58
10.59
9.79
8.01
5.40
2.48
-0.07
-1.71
-2.31
-2.24
-2.22
-2.89
-4.59
-7.15
-10.11
-12.93
-15.23
-16.83
-17.64
-17.55
-16.42
-14.21
-11.03
-7.26
-3.43
-0.01
2.74
4.79
6.23
7.18
7.65
7.63
7.15
6.35
5.59
5.23
5.56
6.60
8.12
9.69
10.96
11.75
12.17
12.50
13.06
14.01
15.28
16.62
17.69
18.26
18.25
17.74
16.91
15.91
14.81
13.55
12.00
10.00
7.47
4.44
1.13
-2.06
-4.69
-6.31
-6.57
-5.32
-2.59
1.41
6.29
11.60
16.83
21.48
25.19
27.74
29.12
29.50
29.15
28.33
27.26
26.06
24.83
23.62
22.47
21.38
20.30
19.19
17.92
16.39
14.52
12.20
9.37
6.03
2.20
-1.99
-6.38
-10.78
-14.99
-18.81
-22.08
-24.67
-26.54
-27.71
-28.38
-28.81
-29.29
-30.04
-31.13
-32.40
-33.56
-34.24
-34.09
-32.87
-30.47
-26.95
-22.50
-17.51
-12.40
-7.63
-3.62
-0.61
1.32
2.31
2.56
2.33
1.79
1.04
0.16
-0.67
-1.25
-1.41
-1.17
-0.79
-0.68
-1.29
-2.82
-5.13
-7.80
-10.29
-12.24
-13.57
-14.48
-15.27
-16.20
-17.33
-18.54
-19.63
-20.40
-20.78
-20.90
-20.98
-21.31
-22.13
-23.58
-25.62
-28.07
-30.51
-32.35
-32.82
-31.12
-26.71
-19.53
-10.13
0.40
10.73
19.73
26.75
31.74
34.98
36.86
37.60
37.28
35.90
33.63
30.80
27.82
25.03
22.49
20.00
17.22
13.97
10.26
6.40
2.78
-0.30
-2.78
-4.83
-6.73
-8.68
-10.66
-12.46
-13.69
-14.03
-13.21
-11.21
-8.18
-4.39
-0.22
3.96
7.79
10.94
13.12
14.10
13.84
12.51
10.61
8.87
8.01
8.53
10.40
13.04
15.45
16.73
16.42
14.78
12.62
11.00
10.66
11.76
13.93
16.47
18.78
20.49
21.52
21.97
21.89
21.26
20.05
18.31
16.28
14.36
12.95
12.27
12.24
12.45
12.33
11.42
9.52
6.81
3.78
0.93
-1.37
-3.13
-4.58
-6.05
-7.83
-9.99
-12.40
-14.82
-16.94
-18.43
-19.05
-18.60
-17.05
-14.53
-11.31
-7.77
-4.33
-1.33
0.94
2.38
2.99
2.98
2.66
2.36
2.34
2.74
3.48
4.37
5.20
5.83
6.24
6.51
6.77
7.10
7.49
7.86
8.05
7.87
7.14
5.71
3.56
0.77
-2.41
-5.64
-8.57
-10.94
-12.68
-13.97
-15.18
-16.71
-18.78
-21.27
-23.73
-25.41
-25.67
-24.14
-20.88
-16.32
-11.00
-5.49
-0.23
4.37
8.05
10.72
12.55
14.07
15.97
18.84
22.85
27.61
32.30
36.01
38.11
38.47
37.36
35.30
32.75
30.04
27.40
24.98
22.87
21.13
19.67
18.30
16.77
14.90
12.69
10.28
7.87
5.51
3.11
0.35
-3.14
-7.71
-13.61
-20.84
-29.19
-38.15
-46.99
-54.84
-60.88
-64.51
-65.47
-63.93
-60.39
-55.56
-50.17
-44.81
-39.86
-35.49
-31.72
-28.54
-25.93
-23.88
-22.31
-21.02
-19.70
-18.11
-16.23
-14.27
-12.62
-11.53
-11.00
-10.71
-10.23
-9.28
-7.96
-6.68
-5.92
-5.90
-6.51
-7.37
-8.06
-8.38
-8.48
-8.67
-9.27
-10.38
-11.86
-13.30
-14.22
-14.15
-12.72
-9.78
-5.38
0.19
6.52
13.22
20.00
26.72
33.25
39.38
44.69
48.63
50.76
50.92
49.37
46.71
43.66
40.89
38.86
37.81
37.66
37.86
37.31
34.62
28.54
18.64
5.69
-8.35
-21.00
-30.12
-34.62
-34.72
-31.58
-26.67
-21.20
-15.92
-11.21
-7.31
-4.51
-3.06
-3.10
-4.46
-6.74
-9.33
-11.57
-12.94
-13.08
-11.90
-9.51
-6.17
-2.20
2.14
6.65
11.24
15.78
20.16
24.15
27.49
30.00
31.65
32.58
33.06
33.39
33.79
34.38
35.19
36.21
37.39
38.67
40.03
41.35
42.46
43.07
42.84
41.43
38.66
34.54
29.37
23.62
17.78
12.21
6.96
1.82
-3.50
-9.26
-15.60
-22.48
-29.76
-37.31
-44.87
-52.10
-58.44
-63.21
-65.72
-65.57
-62.74
-57.71
-51.27
-44.31
-37.58
-31.61
-26.71
-22.96
-20.37
-18.75
-17.80
-17.07
-16.13
-14.73
-12.91
-10.96
-9.21
-7.76
-6.31
-4.23
-0.87
4.12
10.56
17.75
24.79
30.89
35.65
39.11
41.59
43.49
45.11
46.65
48.25
49.98
51.78
53.36
54.24
53.87
51.96
48.75
45.03
41.79
39.81
39.17
39.24
38.87
36.90
32.62
25.93
17.26
7.35
-2.92
-12.73
-21.28
-27.89
-32.13
-33.95
-33.74
-32.22
-30.12
-27.97
-25.97
-24.10
-22.32
-20.77
-19.71
-19.44
-20.15
-21.79
-24.24
-27.37
-31.15
-35.64
-40.81
-46.46
-52.10
-57.05
-60.54
-61.99
-61.06
-57.81
-52.68
-46.41
-39.81
-33.50
-27.71
-22.24
-16.58
-10.27
-3.17
4.35
11.49
17.33
21.09
22.40
21.37
18.45
14.22
9.21
3.69
-2.28
-8.73
-15.59
-22.55
-29.10
-34.55
-38.17
-39.34
-37.76
-33.47
-26.95
-18.98
-10.47
-2.18
5.38
12.05
17.86
22.86
27.01
30.17
32.20
33.07
32.92
31.97
30.35
28.09
25.09
21.28
16.77
11.92
7.29
3.55
1.25
0.72
1.97
4.65
8.22
12.05
15.59
18.53
20.77
22.36
23.41
23.96
23.99
23.48
22.42
20.96
19.32
17.77
16.50
15.60
15.02
14.66
14.42
14.23
14.04
13.81
13.50
13.03
12.28
11.16
9.57
7.52
5.12
2.60
0.26
-1.63
-2.95
-3.79
-4.42
-5.22
-6.49
-8.34
-10.65
-13.09
-15.21
-16.59
-16.89
-15.91
-13.71
-10.49
-6.63
-2.54
1.44
5.09
8.29
10.92
12.88
14.04
14.37
13.94
12.98
11.81
10.68
9.72
8.92
8.21
7.54
6.96
6.56
6.36
6.34
6.40
6.42
6.32
6.05
5.58
4.87
3.89
2.63
1.17
-0.42
-1.98
-3.46
-4.83
-6.18
-7.63
-9.31
-11.30
-13.53
-15.83
-17.79
-18.99
-18.99
-17.61
-14.90
-11.20
-6.99
-2.72
1.27
4.76
7.68
9.95
11.47
12.16
12.03
11.19
9.88
8.42
7.06
5.94
5.09
4.47
4.00
3.63
3.38
3.24
3.22
3.26
3.29
3.16
2.75
1.92
0.61
-1.16
-3.29
-5.65
-8.05
-10.34
-12.40
-14.11
-15.50
-16.62
-17.62
-18.71
-20.02
-21.58
-23.18
-24.47
-24.96
-24.30
-22.28
-18.95
-14.66
-9.91
-5.29
-1.31
1.70
3.68
4.79
5.30
5.50
5.57
5.57
5.47
5.30
5.12
5.07
5.27
5.76
6.51
7.49
8.65
9.89
10.97
11.48
10.94
8.97
5.52
1.00
-3.81
-8.02
-10.88
-12.02
-11.46
-9.56
-6.84
-3.86
-1.12
1.03
2.43
3.17
3.47
3.70
4.21
5.25
6.89
8.97
11.06
12.62
13.11
12.20
9.92
6.61
2.79
-1.05
-4.59
-7.75
-10.52
-12.92
-14.82
-16.03
-16.39
-15.80
-14.32
-12.10
-9.38
-6.38
-3.39
-0.65
1.61
3.23
4.19
4.53
4.38
3.90
3.24
2.51
1.79
1.08
0.28
-0.78
-2.26
-4.28
-6.80
-9.58
-12.22
-14.17
-14.96
-14.26
-12.04
-8.62
-4.56
-0.50
3.03
5.74
7.61
8.82
9.53
9.85
9.76
9.23
8.28
7.03
5.71
4.56
3.72
3.22
2.98
2.84
2.71
2.60
2.62
2.87
3.39
4.02
4.50
4.52
3.89
2.62
0.94
-0.87
-2.57
-4.10
-5.52
-6.98
-8.58
-10.31
-12.11
-13.86
-15.46
-16.81
-17.78
-18.18
-17.77
-16.38
-13.99
-10.77
-7.06
-3.25
0.29
3.30
5.63
7.18
7.95
7.98
7.43
6.50
5.45
4.49
3.80
3.48
3.57
4.03
4.75
5.55
6.19
6.49
6.40
6.00
5.44
4.87
4.31
3.71
2.91
1.84
0.48
-1.07
-2.65
-4.14
-5.44
-6.53
-7.45
-8.34
-9.40
-10.80
-12.59
-14.65
-16.70
-18.30
-19.01
-18.54
-16.80
-13.97
-10.37
-6.45
-2.60
0.92
3.98
6.54
8.54
9.89
10.44
10.12
9.04
7.58
6.20
5.30
5.07
5.41
6.05
6.67
7.13
7.45
7.77
8.16
8.58
8.86
8.80
8.28
7.33
6.06
4.64
3.18
1.73
0.30
-1.11
-2.50
-3.88
-5.28
-6.73
-8.33
-10.16
-12.24
-14.52
-16.78
-18.64
-19.63
-19.32
-17.46
-14.19
-9.91
-5.24
-0.75
3.20
6.47
9.11
11.16
12.59
13.33
13.33
12.70
11.64
10.50
9.55
8.95
8.72
8.71
8.76
8.76
8.72
8.73
8.92
9.33
9.87
10.32
10.40
9.90
8.78
7.11
5.11
3.03
1.05
-0.72
-2.27
-3.61
-4.82
-6.02
-7.35
-8.98
-11.04
-13.54
-16.27
-18.76
-20.48
-20.91
-19.81
-17.34
-13.95
-10.28
-6.86
-4.01
-1.81
-0.24
0.71
0.97
0.44
-0.93
-3.01
-5.54
-8.16
-10.54
-12.42
-13.67
-14.28
-14.32
-13.94
-13.29
-12.57
-11.91
-11.36
-10.88
-10.33
-9.53
-8.32
-6.66
-4.63
-2.43
-0.28
1.70
3.50
5.21
6.79
8.08
8.75
8.50
7.23
5.19
3.00
1.41
1.00
2.02
4.30
7.36
10.65
13.68
16.13
17.83
18.68
18.72
18.00
16.67
14.90
12.85
10.65
8.31
5.84
3.22
0.48
-2.23
-4.69
-6.63
-7.82
-8.11
-7.49
-6.11
-4.26
-2.27
-0.47
0.90
1.70
1.88
1.47
0.50
-0.91
-2.60
-4.40
-6.20
-8.06
-10.17
-12.71
-15.59
-18.35
-20.18
-20.20
-17.96
-13.61
-7.90
-1.81
4.01
9.42
14.77
20.44
26.37
31.86
35.81
37.20
35.67
31.70
26.38
20.94
16.17
12.21
8.65
4.87
0.50
-4.38
-9.31
-13.74
-17.28
-19.93
-21.98
-23.78
-25.49
-27.03
-28.08
-28.27
-27.32
-25.16
-22.00
-18.31
-14.72
-11.92
-10.39
-10.23
-11.00
-11.93
-12.07
-10.73
-7.68
-3.25
1.90
7.02
11.52
15.14
17.86
19.81
21.10
21.80
21.95
21.63
21.03
20.37
19.87
19.64
19.60
19.55
19.27
18.60
17.59
16.48
15.55
15.09
15.23
15.87
16.71
17.24
16.91
15.22
11.97
7.36
2.02
-3.15
-7.25
-9.66
-10.33
-9.70
-8.59
-7.83
-7.98
-9.10
-10.79
-12.35
-13.05
-12.37
-10.11
-6.42
-1.72
3.44
8.52
13.10
16.87
19.65
21.37
22.03
21.73
20.66
19.12
17.47
16.01
14.95
14.30
13.94
13.67
13.27
12.64
11.74
10.64
9.44
8.23
7.06
5.90
4.65
3.15
1.24
-1.13
-3.91
-6.87
-9.70
-12.10
-13.87
-15.00
-15.64
-16.08
-16.63
-17.53
-18.93
-20.78
-22.82
-24.61
-25.58
-25.25
-23.34
-19.94
-15.43
-10.38
-5.34
-0.70
3.39
6.91
9.85
12.15
13.68
14.37
14.26
13.58
12.65
11.72
10.90
10.14
9.37
8.59
7.93
7.57
7.60
7.96
8.48
8.93
9.20
9.26
9.17
8.96
8.59
7.97
7.04
5.85
4.50
3.12
1.76
0.37
-1.16
-2.97
-5.12
-7.50
-9.85
-11.74
-12.77
-12.62
-11.26
-8.92
-5.99
-2.94
-0.12
2.30
4.26
5.76
6.81
7.38
7.46
7.13
6.57
6.02
5.64
5.56
5.76
6.14
6.59
6.99
7.23
7.18
6.75
5.84
4.45
2.62
0.45
-1.96
-4.49
-7.00
-9.36
-11.38
-12.91
-13.86
-14.31
-14.44
-14.56
-14.95
-15.75
-16.92
-18.19
-19.15
-19.42
-18.68
-16.86
-14.06
-10.57
-6.73
-2.85
0.79
4.01
6.64
8.56
9.69
10.05
9.76
9.04
8.18
7.40
6.84
6.54
6.50
6.74
7.23
7.98
8.89
9.83
10.54
10.80
10.42
9.33
7.57
5.33
2.88
0.47
-1.72
-3.67
-5.52
-7.46
-9.66
-12.16
-14.82
-17.40
-19.59
-21.11
-21.76
-21.35
-19.80
-17.12
-13.51
-9.32
-5.03
-1.10
2.10
4.38
5.71
6.15
5.77
4.68
2.95
0.73
-1.79
-4.33
-6.66
-8.53
-9.80
-10.33
-10.06
-9.03
-7.39
-5.40
-3.40
-1.70
-0.46
0.28
0.52
0.27
-0.54
-1.94
-3.89
-6.16
-8.41
-10.25
-11.33
-11.49
-10.70
-9.06
-6.76
-4.06
-1.22
1.53
4.07
6.38
8.50
10.44
12.08
13.17
13.41
12.57
10.62
7.76
4.40
1.00
-2.04
-4.46
-6.15
-7.15
-7.53
-7.40
-6.85
-6.02
-5.06
-4.15
-3.41
-2.85
-2.37
-1.79
-1.00
0.05
1.30
2.61
3.80
4.63
4.85
4.22
2.63
0.14
-2.87
-5.88
-8.31
-9.70
-9.90
-8.95
-7.08
-4.57
-1.73
1.18
3.90
6.19
7.91
8.94
9.27
8.95
8.09
6.87
5.51
4.31
3.47
3.11
3.19
3.53
3.96
4.33
4.52
4.50
4.16
3.42
2.23
0.58
-1.43
-3.65
-5.89
-8.03
-10.04
-11.99
-14.07
-16.45
-19.21
-22.25
-25.23
-27.60
-28.77
-28.28
-25.93
-21.90
-16.69
-11.01
-5.66
-1.30
1.58
2.77
2.37
0.73
-1.60
-3.99
-5.85
-6.73
-6.41
-4.94
-2.61
0.15
2.88
5.21
6.97
8.20
9.05
9.67
10.08
10.14
9.66
8.47
6.56
4.11
1.47
-1.00
-2.99
-4.40
-5.32
-6.04
-6.93
-8.30
-10.23
-12.50
-14.61
-15.96
-16.06
-14.74
-12.15
-8.67
-4.69
-0.45
3.91
8.28
12.40
15.86
18.26
19.41
19.47
18.90
18.27
17.94
18.01
18.25
18.35
18.08
17.39
16.42
15.39
14.53
13.93
13.56
13.26
12.81
11.96
10.57
8.55
6.00
3.12
0.16
-2.64
-5.10
-7.20
-9.10
-11.06
-13.40
-16.27
-19.56
-22.86
-25.57
-27.12
-27.12
-25.51
-22.51
-18.50
-13.87
-8.91
-3.87
1.08
5.74
9.87
13.26
15.81
17.51
18.51
19.02
19.23
19.23
19.03
18.59
17.91
17.05
16.17
15.38
14.75
14.22
13.62
12.72
11.38
9.63
7.59
5.51
3.58
1.89
0.38
-1.15
-2.92
-5.09
-7.67
-10.49
-13.26
-15.69
-17.66
-19.23
-20.66
-22.21
-23.91
-25.53
-26.54
-26.40
-24.71
-21.36
-16.52
-10.53
-3.77
3.32
10.22
16.34
21.15
24.48
26.62
28.32
30.45
33.58
37.67
42.07
45.85
48.19
48.73
47.59
45.19
41.97
38.24
34.22
30.06
25.98
22.24
19.02
16.32
13.96
11.62
8.99
5.97
2.68
-0.60
-3.54
-5.93
-7.78
-9.29
-10.80
-12.65
-15.05
-18.03
-21.39
-24.74
-27.55
-29.33
-29.70
-28.51
-25.88
-22.18
-17.93
-13.71
-9.97
-6.97
-4.74
-3.09
-1.85
-0.91
-0.34
-0.25
-0.70
-1.52
-2.32
-2.69
-2.32
-1.16
0.57
2.56
4.54
6.34
7.92
9.25
10.31
11.09
11.59
11.88
12.04
12.06
11.87
11.34
10.39
9.03
7.39
5.62
3.82
1.98
0.04
-2.07
-4.43
-7.02
-9.74
-12.42
-14.79
-16.55
-17.40
-17.11
-15.64
-13.10
-9.80
-6.07
-2.25
1.42
4.78
7.71
10.09
11.81
12.81
13.07
12.69
11.86
10.84
9.88
9.18
8.82
8.81
9.04
9.40
9.74
9.93
9.87
9.53
8.96
8.21
7.34
6.33
5.12
3.64
1.91
0.09
-1.57
-2.87
-3.73
-4.29
-4.79
-5.44
-6.37
-7.54
-8.81
-10.02
-10.93
-11.33
-11.00
-9.79
-7.73
-5.04
-2.08
0.75
3.17
5.04
6.32
7.00
7.07
6.50
5.34
3.76
2.06
0.50
-0.74
-1.62
-2.26
-2.78
-3.21
-3.49
-3.48
-3.09
-2.35
-1.43
-0.57
-0.04
0.02
-0.43
-1.30
-2.44
-3.71
-5.00
-6.27
-7.45
-8.53
-9.48
-10.31
-11.11
-11.94
-12.84
-13.68
-14.21
-14.09
-13.08
-11.14
-8.45
-5.34
-2.08
1.15
4.30
7.40
10.38
13.07
15.29
16.91
17.95
18.66
19.37
20.42
21.98
24.03
26.29
28.24
29.31
29.04
27.18
23.80
19.23
13.89
8.20
2.46
-3.11
-8.26
-12.74
-16.31
-18.94
-20.83
-22.42
-24.16
-26.38
-29.03
-31.84
-34.36
-36.19
-37.09
-36.93
-35.65
-33.26
-29.84
-25.57
-20.78
-15.87
-11.15
-6.83
-2.91
0.70
4.04
7.03
9.43
10.95
11.40
10.84
9.54
8.00
6.67
5.85
5.55
5.55
5.56
5.34
4.85
4.18
3.50
2.85
2.18
1.37
0.37
-0.74
-1.77
-2.54
-3.01
-3.37
-3.92
-4.95
-6.63
-8.90
-11.53
-14.25
-16.73
-18.67
-19.79
-19.84
-18.69
-16.40
-13.28
-9.81
-6.48
-3.65
-1.42
0.29
1.62
2.66
3.31
3.43
2.87
1.71
0.24
-1.08
-1.89
-2.03
-1.66
-1.08
-0.63
-0.42
-0.40
-0.34
-0.12
0.24
0.57
0.62
0.26
-0.53
-1.61
-2.78
-3.86
-4.74
-5.45
-6.11
-6.94
-8.13
-9.81
-11.92
-14.16
-16.06
-17.12
-16.97
-15.49
-12.85
-9.44
-5.72
-2.09
1.16
3.91
6.15
7.89
9.09
9.70
9.61
8.83
7.47
5.82
4.21
2.95
2.17
1.84
1.83
2.00
2.25
2.56
2.96
3.44
3.92
4.27
4.27
3.79
2.77
1.34
-0.29
-1.84
-3.16
-4.23
-5.21
-6.35
-7.85
-9.81
-12.14
-14.57
-16.74
-18.20
-18.61
-17.78
-15.78
-12.88
-9.50
-6.00
-2.64
0.43
3.17
5.43
7.02
7.73
7.46
6.31
4.57
2.64
0.84
-0.62
-1.69
-2.41
-2.89
-3.22
-3.45
-3.63
-3.83
-4.05
-4.33
-4.73
-5.31
-6.06
-6.93
-7.81
-8.55
-9.08
-9.43
-9.74
-10.15
-10.79
-11.68
-12.78
-14.01
-15.20
-16.16
-16.59
-16.21
-14.79
-12.27
-8.88
-5.06
-1.34
1.91
4.51
6.50
7.99
9.07
9.69
9.75
9.23
8.25
7.07
6.01
5.28
4.90
4.73
4.59
4.39
4.19
4.11
4.24
4.50
4.69
4.56
3.95
2.89
1.58
0.23
-1.00
-2.09
-3.14
-4.23
-5.46
-6.89
-8.61
-10.73
-13.33
-16.33
-19.39
-21.97
-23.44
-23.40
-21.73
-18.70
-14.81
-10.65
-6.65
-3.10
-0.13
2.20
3.85
4.78
4.99
4.57
3.70
2.58
1.35
0.11
-1.12
-2.33
-3.43
-4.28
-4.66
-4.47
-3.76
-2.80
-1.99
-1.69
-2.05
-2.97
-4.20
-5.47
-6.66
-7.88
-9.40
-11.46
-14.15
-17.34
-20.75
-23.98
-26.70
-28.63
-29.62
-29.61
-28.60
-26.61
-23.61
-19.53
-14.24
-7.73
-0.20
7.81
15.56
22.29
27.50
31.07
33.22
34.28
34.49
33.93
32.59
30.61
28.38
26.43
25.27
25.11
25.67
26.37
26.54
25.74
23.86
21.10
17.81
14.28
10.68
7.09
3.53
0.07
-3.18
-6.13
-8.72
-10.97
-12.94
-14.63
-15.97
-16.73
-16.64
-15.41
-12.91
-9.20
-4.59
0.41
5.26
9.49
12.82
15.20
16.80
17.82
18.52
19.01
19.38
19.61
19.65
19.43
18.79
17.67
16.15
14.72
14.16
15.28
18.49
23.33
28.43
31.89
32.07
28.36
21.63
13.95
7.84
5.19
6.28
9.51
11.89
10.20
2.27
-12.04
-30.77
-50.48
-67.37
-78.36
-81.72
-77.23
-65.89
-49.55
-30.49
-11.05
6.66
21.07
31.37
37.55
40.24
40.42
39.21
37.62
36.43
36.03
36.39
37.05
37.43
37.06
35.84
34.08
32.29
30.91
30.04
29.37
28.30
26.24
22.83
18.15
12.61
6.84
1.43
-3.23
-7.04
-10.15
-12.85
-15.43
-18.08
-20.86
-23.69
-26.37
-28.61
-30.05
-30.30
-29.03
-26.02
-21.36
-15.35
-8.57
-1.70
4.62
9.96
14.18
17.38
19.94
22.37
25.12
28.50
32.42
36.48
40.03
42.38
43.08
42.06
39.64
36.45
33.27
30.88
29.82
30.24
31.52
32.13
29.82
22.26
8.07
-12.42
-37.02
-62.23
-84.43
-100.90
-110.36
-112.87
-109.25
-100.58
-88.03
-72.98
-57.10
-42.21
-29.77
-20.43
-13.81
-8.78
-4.00
1.44
7.77
14.55
20.97
26.33
30.28
32.94
34.74
36.17
37.54
38.90
40.09
40.87
41.04
40.46
39.13
37.21
35.05
33.21
32.33
32.85
34.78
37.57
40.31
42.05
42.18
40.57
37.55
33.56
29.01
24.14
19.17
14.36
10.01
6.41
3.65
1.58
-0.11
-1.82
-3.75
-5.89
-7.95
-9.47
-10.01
-9.29
-7.28
-4.24
-0.61
3.07
6.33
8.88
10.62
11.60
11.95
11.78
11.16
10.10
8.65
6.93
5.15
3.54
2.34
1.68
1.57
1.90
2.48
3.09
3.55
3.74
3.58
3.02
2.01
0.55
-1.33
-3.51
-5.76
-7.86
-9.60
-10.90
-11.82
-12.54
-13.31
-14.31
-15.67
-17.37
-19.24
-20.95
-22.09
-22.26
-21.22
-18.98
-15.77
-12.02
-8.16
-4.60
-1.58
0.77
2.43
3.40
3.77
3.68
3.31
2.89
2.63
2.67
3.03
3.63
4.32
4.94
5.38
5.64
5.77
5.83
5.86
5.78
5.50
4.95
4.14
3.19
2.24
1.39
0.65
-0.06
-0.85
-1.82
-3.00
-4.38
-5.99
-7.87
-9.97
-12.16
-14.13
-15.40
-15.53
-14.24
-11.60
-8.00
-4.05
-0.33
2.78
5.17
6.96
8.32
9.38
10.05
10.21
9.71
8.57
6.99
5.25
3.64
2.34
1.36
0.67
0.17
-0.17
-0.33
-0.30
-0.07
0.25
0.51
0.53
0.16
-0.60
-1.71
-2.99
-4.27
-5.43
-6.40
-7.20
-7.92
-8.67
-9.57
-10.70
-12.07
-13.57
-14.96
-15.92
-16.11
-15.33
-13.58
-11.07
-8.14
-5.14
-2.33
0.12
2.11
3.58
4.45
4.67
4.27
3.42
2.37
1.39
0.69
0.34
0.27
0.34
0.45
0.57
0.71
0.88
1.06
1.16
1.05
0.67
-0.01
-0.91
-1.92
-2.92
-3.84
-4.69
-5.48
-6.21
-6.81
-7.17
-7.25
-7.13
-7.07
-7.40
-8.38
-10.07
-12.33
-14.83
-17.15
-18.93
-19.84
-19.70
-18.42
-16.04
-12.81
-9.13
-5.51
-2.43
-0.25
0.94
1.25
0.97
0.41
-0.11
-0.37
-0.25
0.31
1.28
2.66
4.38
6.32
8.26
9.97
11.23
11.93
12.13
11.97
11.62
11.14
10.54
9.69
8.49
6.91
5.04
3.09
1.29
-0.17
-1.21
-1.87
-2.32
-2.79
-3.53
-4.69
-6.28
-8.16
-10.01
-11.48
-12.15
-11.80
-10.37
-8.03
-5.15
-2.15
0.60
2.88
4.59
5.76
6.37
6.42
5.93
4.98
3.75
2.49
1.43
0.68
0.21
-0.12
-0.43
-0.75
-1.05
-1.23
-1.26
-1.16
-1.03
-0.96
-1.04
-1.25
-1.58
-2.04
-2.64
-3.40
-4.30
-5.23
-6.07
-6.71
-7.18
-7.59
-8.14
-8.95
-10.00
-11.08
-11.86
-11.97
-11.16
-9.39
-6.87
-3.91
-0.87
1.98
4.46
6.51
8.10
9.24
9.96
10.31
10.35
10.11
9.68
9.12
8.56
8.14
7.99
8.21
8.78
9.60
10.44
11.12
11.41
11.09
9.96
7.90
4.92
1.23
-2.73
-6.49
-9.63
-12.00
-13.70
-15.02
-16.31
-17.81
-19.56
-21.45
-23.26
-24.75
-25.75
-26.16
-25.90
-24.90
-23.13
-20.61
-17.47
-13.96
-10.35
-6.92
-3.89
-1.41
0.40
1.38
1.45
0.59
-1.04
-3.14
-5.37
-7.39
-9.00
-10.08
-10.62
-10.58
-9.98
-8.85
-7.29
-5.47
-3.60
-1.90
-0.53
0.43
0.96
1.14
1.12
1.05
1.07
1.22
1.49
1.75
1.82
1.48
0.59
-0.88
-2.78
-4.78
-6.43
-7.34
-7.27
-6.20
-4.32
-1.94
0.59
2.97
4.98
6.50
7.45
7.88
7.88
7.62
7.29
7.09
7.12
7.43
7.94
8.57
9.19
9.77
10.32
10.85
11.39
11.80
11.93
11.50
10.34
8.36
5.62
2.34
-1.19
-4.67
-7.89
-10.77
-13.43
-16.08
-18.94
-22.08
-25.38
-28.48
-30.88
-32.08
-31.74
-29.81
-26.51
-22.24
-17.53
-12.84
-8.56
-4.97
-2.21
-0.28
0.90
1.52
1.80
1.96
2.14
2.41
2.73
3.01
3.14
3.10
2.95
2.85
3.07
3.78
5.02
6.58
8.06
9.02
9.19
8.53
7.30
5.85
4.47
3.23
2.00
0.52
-1.48
-4.14
-7.44
-11.21
-15.18
-18.96
-22.11
-24.21
-24.97
-24.28
-22.26
-19.19
-15.42
-11.27
-6.98
-2.72
1.40
5.31
8.88
11.95
14.28
15.58
15.61
14.30
11.92
9.01
6.25
4.29
3.49
3.91
5.39
7.68
10.47
13.35
15.71
16.81
16.02
13.17
8.73
3.72
-0.71
-3.86
-5.77
-7.11
-8.78
-11.37
-14.87
-18.74
-22.22
-24.72
-26.00
-26.11
-25.23
-23.46
-20.82
-17.31
-12.96
-7.96
-2.59
2.79
7.78
12.02
15.27
17.43
18.56
18.91
18.82
18.55
18.30
18.15
18.14
18.28
18.63
19.24
20.17
21.42
23.09
25.31
28.26
32.00
36.32
40.70
44.33
46.34
46.10
43.33
38.21
31.18
22.81
13.57
3.84
-6.10
-15.87
-24.98
-32.75
-38.50
-41.70
-42.22
-40.33
-36.68
-32.10
-27.31
-22.73
-18.48
-14.57
-11.01
-8.03
-5.96
-5.09
-5.49
-6.95
-9.01
-11.12
-12.77
-13.68
-13.68
-12.79
-11.07
-8.61
-5.49
-1.80
2.32
6.70
11.12
15.30
19.04
22.22
24.93
27.37
29.81
32.41
35.10
37.56
39.31
39.88
39.08
37.03
34.15
30.95
27.80
24.76
21.64
18.19
14.35
10.31
6.53
3.44
1.26
-0.10
-0.95
-1.53
-1.89
-1.88
-1.24
0.20
2.37
4.96
7.55
9.79
11.49
12.69
13.61
14.51
15.53
16.62
17.54
17.95
17.62
16.49
14.67
12.43
10.00
7.55
5.18
2.96
0.93
-0.95
-2.81
-4.80
-7.05
-9.51
-11.92
-13.85
-14.87
-14.66
-13.19
-10.66
-7.44
-3.97
-0.65
2.18
4.34
5.73
6.37
6.36
5.87
5.06
4.13
3.29
2.69
2.47
2.72
3.43
4.44
5.37
5.57
4.37
1.24
-3.85
-10.39
-17.47
-24.05
-29.26
-32.58
-33.81
-32.97
-30.21
-25.90
-20.68
-15.48
-11.26
-8.73
-8.02
-8.62
-9.58
-9.88
-8.73
-5.77
-1.05
5.02
11.68
17.84
22.21
23.60
21.31
15.52
7.31
-1.61
-9.41
-14.66
-16.65
-15.37
-11.25
-5.08
2.06
8.75
13.31
14.31
11.14
4.35
-4.37
-12.86
-19.27
-22.70
-23.20
-21.50
-18.37
-14.31
-9.52
-4.13
1.48
6.62
10.48
12.44
12.32
10.49
7.68
4.75
2.43
1.20
1.26
2.55
4.93
8.15
11.92
15.87
19.55
22.56
24.63
25.68
25.85
25.36
24.34
22.80
20.72
18.19
15.52
13.26
12.00
12.19
13.87
16.66
19.89
22.79
24.79
25.59
25.25
24.00
22.19
20.08
17.80
15.39
12.85
10.27
7.81
5.69
4.07
2.95
2.11
1.21
-0.11
-2.00
-4.33
-6.66
-8.42
-9.07
-8.29
-6.01
-2.47
1.85
6.17
9.39
10.21
7.45
0.48
-10.27
-23.32
-36.36
-46.99
-53.45
-55.05
-52.19
-46.02
-37.84
-28.76
-19.61
-10.99
-3.42
2.67
7.00
9.56
10.60
10.58
9.99
9.24
8.53
7.85
6.98
5.65
3.61
0.74
-2.81
-6.72
-10.58
-14.07
-16.97
-19.23
-20.81
-21.53
-21.15
-19.42
-16.31
-12.12
-7.43
-2.95
0.78
3.51
5.32
6.45
7.15
7.52
7.59
7.36
6.94
6.52
6.29
6.31
6.51
6.68
6.65
6.40
6.02
5.72
5.64
5.78
5.94
5.89
5.39
4.42
3.07
1.63
0.32
-0.71
-1.44
-2.01
-2.61
-3.42
-4.57
-6.05
-7.78
-9.59
-11.25
-12.53
-13.19
-13.05
-12.03
-10.14
-7.54
-4.48
-1.29
1.63
3.96
5.48
6.17
6.18
5.73
5.03
4.22
3.38
2.49
1.63
0.85
0.25
-0.13
-0.30
-0.33
-0.29
-0.18
-0.04
0.11
0.16
0.03
-0.36
-0.95
-1.60
-2.14
-2.48
-2.63
-2.72
-2.88
-3.26
-3.92
-4.91
-6.29
-8.08
-10.18
-12.32
-14.07
-15.00
-14.80
-13.41
-11.05
-8.09
-4.89
-1.75
1.15
3.71
5.82
7.39
8.33
8.66
8.52
8.11
7.61
7.13
6.63
5.99
5.11
3.99
2.77
1.66
0.82
0.24
-0.24
-0.90
-1.96
-3.56
-5.60
-7.85
-9.98
-11.64
-12.50
-12.36
-11.26
-9.50
-7.67
-6.49
-6.58
-8.12
-10.73
-13.61
-15.74
-16.34
-15.04
-12.00
-7.71
-2.84
2.04
6.46
10.06
12.57
13.83
13.88
12.95
11.43
9.77
8.31
7.22
6.50
6.07
5.81
5.69
5.68
5.78
5.96
6.21
6.51
6.87
7.29
7.72
8.07
8.19
7.95
7.32
6.31
5.03
3.60
2.12
0.64
-0.80
-2.19
-3.49
-4.71
-5.91
-7.19
-8.69
-10.46
-12.39
-14.23
-15.62
-16.27
-15.97
-14.72
-12.68
-10.07
-7.17
-4.30
-1.74
0.23
1.44
1.84
1.53
0.73
-0.28
-1.24
-1.95
-2.29
-2.26
-1.91
-1.37
-0.78
-0.27
0.09
0.37
0.65
1.04
1.56
2.10
2.55
2.76
2.70
2.43
2.07
1.73
1.44
1.17
0.77
0.15
-0.74
-1.87
-3.15
-4.46
-5.61
-6.35
-6.39
-5.45
-3.40
-0.43
3.01
6.25
8.63
9.68
9.29
7.65
5.18
2.31
-0.61
-3.33
-5.71
-7.71
-9.29
-10.50
-11.35
-11.88
-12.07
-11.88
-11.31
-10.39
-9.23
-8.04
-6.97
-6.12
-5.47
-4.92
-4.39
-3.84
-3.36
-3.06
-3.04
-3.33
-3.91
-4.79
-6.01
-7.61
-9.46
-11.26
-12.52
-12.73
-11.63
-9.25
-5.94
-2.28
1.21
4.06
6.01
6.96
6.93
6.12
4.83
3.39
2.09
1.00
0.07
-0.85
-1.89
-3.03
-4.12
-4.95
-5.40
-5.39
-4.99
-4.31
-3.46
-2.58
-1.78
-1.22
-0.98
-1.12
-1.59
-2.29
-3.08
-3.85
-4.60
-5.44
-6.58
-8.26
-10.66
-13.70
-17.05
-20.16
-22.37
-23.13
-22.26
-19.90
-16.50
-12.61
-8.64
-4.85
-1.31
1.96
4.86
7.23
8.93
9.90
10.26
10.22
10.03
9.86
9.74
9.65
9.56
9.45
9.41
9.55
9.97
10.65
11.51
12.37
13.03
13.31
13.12
12.45
11.37
10.00
8.52
7.11
5.89
4.78
3.58
1.87
-0.70
-4.27
-8.64
-13.19
-17.14
-19.75
-20.62
-19.77
-17.57
-14.53
-11.01
-7.20
-3.15
1.06
5.24
8.98
11.82
13.48
13.96
13.57
12.82
12.22
12.14
12.77
14.19
16.24
18.43
19.95
19.78
17.05
11.54
3.87
-4.57
-12.19
-17.79
-20.93
-21.97
-21.64
-20.63
-19.24
-17.49
-15.38
-13.09
-11.11
-10.01
-10.22
-11.75
-14.14
-16.61
-18.28
-18.45
-16.84
-13.62
-9.30
-4.54
0.11
4.32
7.95
10.97
13.32
14.96
15.95
16.51
16.95
17.57
18.49
19.56
20.54
21.23
21.62
21.86
22.22
22.87
23.88
25.16
26.51
27.56
27.78
26.71
24.11
20.18
15.63
11.39
8.11
5.83
3.77
0.71
-4.58
-12.77
-23.67
-36.20
-48.73
-59.40
-66.63
-69.48
-67.83
-62.43
-54.53
-45.55
-36.61
-28.37
-21.06
-14.69
-9.27
-4.90
-1.66
0.53
1.96
3.05
4.28
5.95
8.15
10.75
13.46
15.95
17.97
19.41
20.28
20.73
20.80
20.51
19.78
18.61
17.11
15.65
14.59
14.16
14.32
14.70
14.84
14.39
13.22
11.50
9.51
7.45
5.36
3.20
0.96
-1.24
-3.09
-4.18
-4.17
-2.82
-0.10
3.84
8.71
14.13
19.64
24.79
29.20
32.58
34.77
35.69
35.36
33.87
31.45
28.52
25.70
23.64
22.84
23.43
25.14
27.37
29.42
30.74
31.07
30.44
29.03
27.05
24.73
22.22
19.67
17.17
14.76
12.39
9.95
7.30
4.37
1.07
-2.62
-6.69
-11.02
-15.32
-19.11
-21.82
-23.00
-22.52
-20.68
-18.03
-15.19
-12.60
-10.44
-8.72
-7.41
-6.52
-6.13
-6.26
-6.82
-7.55
-8.15
-8.37
-8.06
-7.28
-6.17
-5.00
-3.94
-3.07
-2.36
-1.69
-0.92
-0.07
0.72
1.17
1.03
0.23
-1.11
-2.68
-4.15
-5.33
-6.23
-7.01
-7.89
-9.06
-10.59
-12.42
-14.42
-16.38
-18.06
-19.18
-19.51
-18.86
-17.20
-14.68
-11.56
-8.12
-4.56
-0.96
2.68
6.38
9.93
12.86
14.49
14.15
11.51
6.91
1.26
-4.14
-8.12
-9.99
-9.75
-7.90
-5.13
-1.94
1.45
5.02
8.78
12.49
15.75
18.08
19.19
19.03
17.87
16.16
14.33
12.68
11.26
9.93
8.45
6.61
4.34
1.71
-1.11
-3.88
-6.40
-8.45
-9.86
-10.50
-10.28
-9.24
-7.51
-5.36
-3.03
-0.74
1.40
3.27
4.81
5.90
6.47
6.53
6.15
5.54
4.89
4.33
3.95
3.72
3.65
3.73
3.99
4.43
4.99
5.55
5.94
5.99
5.60
4.73
3.47
1.94
0.31
-1.32
-2.89
-4.42
-5.88
-7.22
-8.39
-9.32
-10.07
-10.83
-11.81
-13.20
-15.03
-17.11
-19.08
-20.51
-20.98
-20.27
-18.31
-15.28
-11.49
-7.36
-3.31
0.33
3.35
5.69
7.36
8.38
8.81
8.67
8.09
7.23
6.28
5.41
4.67
4.01
3.33
2.56
1.70
0.88
0.25
-0.09
-0.20
-0.25
-0.51
-1.21
-2.44
-4.11
-5.99
-7.80
-9.33
-10.49
-11.33
-12.02
-12.69
-13.47
-14.40
-15.47
-16.65
-17.86
-18.96
-19.73
-19.91
-19.24
-17.54
-14.87
-11.44
-7.57
-3.61
0.24
3.82
7.04
9.78
11.90
13.24
13.71
13.35
12.32
10.90
9.41
8.10
7.17
6.66
6.49
6.54
6.72
7.00
7.44
8.06
8.78
9.41
9.71
9.50
8.75
7.61
6.25
4.84
3.46
2.07
0.65
-0.76
-2.09
-3.29
-4.38
-5.47
-6.68
-8.06
-9.52
-10.84
-11.72
-11.91
-11.27
-9.82
-7.72
-5.22
-2.57
0.05
2.55
4.90
7.00
8.64
9.56
9.51
8.46
6.64
4.57
2.88
2.03
2.19
3.10
4.28
5.21
5.63
5.67
5.77
6.49
8.23
10.95
14.14
17.01
18.75
18.92
17.59
15.29
12.76
10.77
9.87
10.38
12.13
14.21
14.84
11.64
2.37
-13.88
-35.88
-60.21
-82.18
-97.46
-103.49
-100.14
-89.30
-73.78
-56.26
-38.66
-22.15
-7.57
4.33
12.93
18.03
20.07
20.08
19.31
18.79
18.97
19.65
20.17
19.90
18.52
16.25
13.68
11.56
10.41
10.34
11.04
11.93
12.33
11.80
10.14
7.52
4.35
1.14
-1.66
-3.84
-5.46
-6.79
-8.20
-9.94
-12.01
-14.18
-15.98
-16.95
-16.75
-15.26
-12.61
-9.07
-4.97
-0.60
3.78
7.98
11.76
14.89
17.20
18.60
19.11
18.93
18.32
17.53
16.82
16.30
16.00
15.87
15.81
15.73
15.56
15.31
15.00
14.64
14.18
13.47
12.34
10.63
8.35
5.66
2.87
0.30
-1.91
-3.80
-5.61
-7.63
-10.02
-12.77
-15.71
-18.57
-21.08
-22.99
-24.08
-24.13
-22.97
-20.59
-17.17
-13.10
-8.85
-4.89
-1.56
0.95
2.56
3.24
3.00
1.90
0.06
-2.27
-4.79
-7.20
-9.28
-10.86
-11.89
-12.33
-12.22
-11.66
-10.85
-9.99
-9.27
-8.82
-8.62
-8.63
-8.83
-9.25
-9.96
-10.97
-12.18
-13.40
-14.49
-15.45
-16.39
-17.57
-19.13
-21.10
-23.36
-25.70
-27.92
-29.78
-31.05
-31.44
-30.73
-28.85
-25.94
-22.36
-18.53
-14.81
-11.41
-8.38
-5.63
-3.00
-0.36
2.46
5.58
9.07
12.93
17.03
21.12
24.87
27.88
29.81
30.47
29.89
28.30
26.09
23.71
21.51
19.68
18.25
17.11
16.07
15.01
13.86
12.71
11.70
11.05
10.88
11.18
11.77
12.31
12.45
11.92
10.66
8.87
6.90
5.22
4.23
4.20
5.18
6.99
9.33
11.87
14.27
16.26
17.63
18.16
17.73
16.32
14.11
11.48
8.91
6.85
5.55
4.99
4.99
5.26
5.57
5.83
6.00
6.10
6.13
6.06
5.85
5.51
5.10
4.70
4.35
3.99
3.51
2.82
1.91
0.95
0.09
-0.65
-1.64
-3.63
-7.53
-13.93
-22.74
-32.98
-43.07
-51.37
-56.64
-58.32
-56.57
-51.97
-45.35
-37.66
-29.90
-23.01
-17.65
-14.02
-11.77
-10.18
-8.43
-6.03
-2.89
0.73
4.41
7.82
10.84
13.42
15.59
17.32
18.50
18.98
18.57
17.18
14.94
12.20
9.53
7.55
6.66
6.90
7.87
8.87
9.19
8.35
6.31
3.42
0.21
-2.77
-5.17
-6.81
-7.62
-7.46
-6.15
-3.45
0.80
6.53
13.51
21.22
28.96
35.73
40.24
41.22
37.75
29.80
18.41
5.55
-6.49
-15.78
-21.25
-22.75
-20.79
-16.16
-9.67
-2.16
5.44
12.10
16.97
19.58
20.12
19.29
18.01
16.96
16.37
16.02
15.39
13.99
11.56
8.19
4.24
0.22
-3.31
-5.82
-6.89
-6.22
-3.73
0.23
4.77
8.60
10.29
8.90
4.33
-2.42
-9.57
-15.21
-17.95
-17.41
-14.13
-9.24
-3.81
1.49
6.50
11.33
16.01
20.38
24.08
26.76
28.37
29.18
29.68
30.37
31.47
32.81
33.92
34.19
33.16
30.66
26.87
22.23
17.28
12.49
8.16
4.35
0.93
-2.36
-5.74
-9.32
-12.97
-16.35
-19.02
-20.53
-20.64
-19.32
-16.80
-13.47
-9.79
-6.25
-3.22
-1.00
0.30
0.73
0.55
0.22
0.26
1.08
2.89
5.57
8.67
11.57
13.60
14.32
13.59
11.63
8.99
6.28
4.01
2.47
1.67
1.38
1.33
1.30
1.23
1.14
1.14
1.30
1.58
1.89
2.07
1.94
1.36
0.20
-1.57
-3.90
-6.58
-9.23
-11.39
-12.59
-12.55
-11.22
-8.82
-5.76
-2.56
0.37
2.76
4.49
5.56
6.06
6.08
5.75
5.21
4.60
4.04
3.63
3.43
3.45
3.69
4.10
4.64
5.25
5.82
6.22
6.30
5.97
5.22
4.13
2.82
1.44
0.09
-1.22
-2.48
-3.71
-4.88
-5.99
-7.05
-8.16
-9.42
-10.92
-12.67
-14.58
-16.51
-18.30
-19.78
-20.76
-21.01
-20.31
-18.57
-15.84
-12.45
-8.87
-5.56
-2.84
-0.81
0.61
1.56
2.16
2.43
2.38
2.02
1.46
0.84
0.33
0.09
0.25
0.85
1.87
3.14
4.45
5.52
6.20
6.49
6.51
6.45
6.41
6.32
6.06
5.51
4.65
3.61
2.59
1.73
1.01
0.29
-0.61
-1.77
-3.17
-4.64
-5.98
-7.08
-8.01
-9.01
-10.38
-12.27
-14.58
-16.88
-18.55
-19.03
-18.04
-15.67
-12.37
-8.74
-5.31
-2.42
-0.22
1.30
2.21
2.56
2.46
2.05
1.48
0.93
0.51
0.29
0.30
0.55
1.10
2.00
3.22
4.63
6.02
7.15
7.90
8.27
8.40
8.43
8.41
8.26
7.83
7.02
5.83
4.42
2.99
1.69
0.56
-0.46
-1.46
-2.57
-3.87
-5.49
-7.48
-9.78
-12.15
-14.23
-15.52
-15.63
-14.41
-11.97
-8.70
-5.05
-1.46
1.80
4.57
6.77
8.29
9.05
8.99
8.16
6.81
5.29
3.98
3.10
2.69
2.60
2.59
2.50
2.26
1.91
1.53
1.20
0.88
0.52
0.01
-0.73
-1.77
-3.15
-4.89
-6.94
-9.15
-11.30
-13.19
-14.76
-16.08
-17.38
-18.93
-20.87
-23.20
-25.79
-28.45
-30.96
-33.06
-34.47
-34.80
-33.71
-30.97
-26.69
-21.29
-15.44
-9.81
-4.92
-0.98
2.00
4.16
5.64
6.59
7.16
7.57
8.09
8.97
10.26
11.83
13.40
14.66
15.46
15.86
16.08
16.43
17.09
18.13
19.50
21.10
22.83
24.58
26.19
27.47
28.21
28.25
27.58
26.33
24.81
23.38
22.33
21.76
21.47
20.91
19.39
16.22
11.18
4.58
-2.65
-9.27
-14.21
-16.87
-17.34
-16.15
-14.02
-11.48
-8.76
-5.84
-2.71
0.46
3.24
5.14
5.84
5.32
3.96
2.30
0.89
0.03
-0.27
-0.23
-0.12
-0.12
-0.23
-0.30
-0.17
0.26
0.90
1.52
1.80
1.45
0.33
-1.46
-3.60
-5.56
-6.85
-7.14
-6.39
-4.89
-3.19
-1.96
-1.76
-2.93
-5.44
-8.89
-12.66
-16.12
-18.77
-20.32
-20.69
-19.95
-18.19
-15.55
-12.21
-8.53
-4.89
-1.73
0.69
2.30
3.25
3.75
4.01
4.19
4.34
4.48
4.62
4.75
4.88
4.99
5.10
5.21
5.33
5.41
5.40
5.25
4.97
4.59
4.15
3.66
3.04
2.20
1.10
-0.18
-1.45
-2.49
-3.17
-3.54
-3.84
-4.39
-5.45
-7.13
-9.30
-11.64
-13.71
-15.12
-15.59
-15.00
-13.42
-11.07
-8.21
-5.11
-2.03
0.78
3.13
4.83
5.77
5.94
5.42
4.40
3.13
1.84
0.72
-0.14
-0.73
-1.07
-1.20
-1.14
-0.89
-0.46
0.11
0.67
1.02
0.96
0.36
-0.75
-2.22
-3.80
-5.27
-6.51
-7.50
-8.34
-9.14
-9.98
-10.97
-12.13
-13.45
-14.82
-15.96
-16.51
-16.09
-14.44
-11.55
-7.68
-3.25
1.26
5.45
9.04
11.83
13.73
14.68
14.67
13.79
12.23
10.24
8.13
6.17
4.60
3.53
2.98
2.87
3.06
3.41
3.81
4.19
4.49
4.66
4.62
4.30
3.61
2.54
1.16
-0.43
-2.06
-3.59
-4.99
-6.31
-7.71
-9.40
-11.57
-14.28
-17.35
-20.37
-22.78
-24.00
-23.66
-21.69
-18.33
-14.06
-9.44
-4.97
-0.96
2.44
5.15
7.12
8.31
8.70
8.36
7.53
6.49
5.57
5.02
4.94
5.27
5.86
6.55
7.20
7.77
8.30
8.80
9.26
9.63
9.78
9.54
8.81
7.54
5.84
3.88
1.89
0.04
-1.59
-3.05
-4.51
-6.16
-8.16
-10.50
-13.01
-15.36
-17.11
-17.84
-17.27
-15.37
-12.33
-8.57
-4.58
-0.77
2.57
5.35
7.64
9.50
10.97
11.98
12.44
12.32
11.73
10.94
10.24
9.79
9.58
9.38
8.90
8.00
6.76
5.44
4.39
3.88
3.93
4.36
4.91
5.32
5.45
5.26
4.72
3.83
2.60
1.08
-0.55
-2.10
-3.39
-4.40
-5.29
-6.40
-8.03
-10.33
-13.09
-15.87
-18.05
-19.09
-18.72
-16.94
-14.04
-10.46
-6.63
-2.95
0.33
3.02
5.01
6.26
6.81
6.78
6.40
5.94
5.66
5.72
6.12
6.70
7.19
7.35
7.06
6.48
5.88
5.60
5.79
6.33
6.88
7.04
6.59
5.57
4.25
2.98
1.91
1.02
0.07
-1.14
-2.68
-4.46
-6.36
-8.31
-10.36
-12.56
-14.77
-16.62
-17.59
-17.20
-15.30
-12.11
-8.19
-4.12
-0.30
3.12
6.17
8.85
11.06
12.62
13.39
13.44
12.98
12.36
11.90
11.77
11.98
12.45
13.06
13.73
14.41
15.03
15.49
15.67
15.43
14.71
13.49
11.86
9.98
8.04
6.16
4.42
2.74
1.00
-0.98
-3.31
-6.01
-9.03
-12.27
-15.63
-19.01
-22.32
-25.37
-27.96
-29.85
-30.84
-30.79
-29.67
-27.55
-24.58
-21.02
-17.14
-13.30
-9.80
-6.85
-4.53
-2.76
-1.42
-0.34
0.56
1.34
2.08
2.86
3.79
4.92
6.21
7.52
8.63
9.40
9.77
9.81
9.70
9.58
9.56
9.65
9.83
10.05
10.28
10.46
10.54
10.41
9.97
9.13
7.91
6.41
4.75
2.99
1.18
-0.71
-2.68
-4.66
-6.54
-8.27
-9.86
-11.46
-13.21
-15.14
-17.08
-18.63
-19.30
-18.73
-16.80
-13.67
-9.75
-5.52
-1.37
2.42
5.72
8.51
10.74
12.36
13.32
13.62
13.44
13.01
12.64
12.56
12.81
13.27
13.70
13.95
14.01
14.03
14.25
14.73
15.38
15.87
15.90
15.29
14.10
12.57
10.95
9.38
7.86
6.32
4.75
3.19
1.65
0.07
-1.75
-4.08
-6.98
-10.29
-13.55
-16.17
-17.62
-17.59
-16.08
-13.32
-9.76
-5.88
-2.13
1.14
3.73
5.60
6.80
7.41
7.51
7.14
6.38
5.41
4.46
3.78
3.54
3.73
4.22
4.81
5.35
5.76
6.06
6.32
6.56
6.77
6.84
6.68
6.21
5.39
4.28
2.93
1.43
-0.16
-1.83
-3.58
-5.49
-7.65
-10.13
-12.94
-15.94
-18.86
-21.31
-22.87
-23.24
-22.37
-20.47
-17.89
-15.00
-12.07
-9.25
-6.62
-4.28
-2.42
-1.23
-0.77
-0.95
-1.49
-2.02
-2.21
-1.83
-0.86
0.58
2.26
3.90
5.31
6.39
7.21
7.87
8.46
8.92
9.08
8.72
7.73
6.22
4.44
2.67
1.12
-0.18
-1.28
-2.25
-3.04
-3.61
-3.95
-4.18
-4.53
-5.22
-6.27
-7.41
-8.21
-8.14
-6.82
-4.17
-0.38
4.17
8.98
13.65
17.90
21.58
24.67
27.15
29.00
30.13
30.53
30.21
29.31
28.01
26.51
24.97
23.42
21.86
20.30
18.82
17.59
16.77
16.45
16.53
16.76
16.78
16.27
15.04
13.07
10.52
7.64
4.70
1.94
-0.51
-2.63
-4.55
-6.56
-9.06
-12.36
-16.52
-21.29
-26.08
-30.17
-32.88
-33.87
-33.14
-31.01
-28.02
-24.69
-21.40
-18.34
-15.52
-12.88
-10.36
-7.91
-5.55
-3.34
-1.33
0.45
2.02
3.34
4.36
5.00
5.18
4.93
4.37
3.72
3.23
3.10
3.36
3.86
4.36
4.58
4.36
3.66
2.59
1.31
-0.01
-1.28
-2.50
-3.72
-4.98
-6.23
-7.32
-8.11
-8.51
-8.60
-8.65
-9.02
-9.99
-11.58
-13.52
-15.32
-16.50
-16.72
-15.93
-14.29
-12.10
-9.67
-7.27
-5.10
-3.34
-2.16
-1.64
-1.78
-2.42
-3.26
-3.97
-4.29
-4.11
-3.53
-2.75
-1.99
-1.35
-0.76
0.01
1.21
3.01
5.39
8.16
10.95
13.40
15.17
16.10
16.22
15.79
15.15
14.67
14.52
14.64
14.71
14.28
12.95
10.55
7.20
3.36
-0.36
-3.37
-5.27
-5.91
-5.41
-4.05
-2.17
-0.08
1.98
3.81
5.22
6.02
6.09
5.36
3.94
2.03
-0.09
-2.14
-3.96
-5.45
-6.61
-7.49
-8.16
-8.66
-8.99
-9.13
-9.05
-8.81
-8.49
-8.30
-8.40
-8.84
-9.53
-10.25
-10.75
-10.89
-10.73
-10.45
-10.34
-10.63
-11.49
-12.98
-15.06
-17.57
-20.19
-22.51
-24.05
-24.43
-23.47
-21.24
-18.02
-14.17
-10.03
-5.87
-1.87
1.81
4.98
7.45
9.04
9.70
9.55
8.89
8.08
7.46
7.18
7.23
7.49
7.84
8.23
8.72
9.36
10.16
11.04
11.79
12.20
12.10
11.34
9.88
7.70
4.89
1.62
-1.84
-5.18
-8.13
-10.58
-12.59
-14.45
-16.46
-18.81
-21.46
-24.01
-25.84
-26.31
-24.99
-21.77
-16.92
-10.92
-4.28
2.56
9.21
15.30
20.41
24.09
26.03
26.20
24.98
23.06
21.23
20.11
19.93
20.53
21.53
22.51
23.23
23.63
23.77
23.72
23.59
23.48
23.58
24.02
24.67
24.91
23.77
20.18
13.50
3.91
-7.47
-18.91
-28.60
-35.18
-37.96
-37.01
-32.90
-26.59
-19.24
-12.22
-6.89
-4.26
-4.70
-7.65
-11.79
-15.51
-17.47
-17.10
-14.59
-10.68
-6.13
-1.39
3.42
8.33
13.23
17.73
21.30
23.55
24.40
24.18
23.39
22.50
21.70
21.01
20.30
19.52
18.75
18.11
17.70
17.42
17.08
16.38
15.10
13.14
10.59
7.70
4.79
2.25
0.39
-0.56
-0.62
-0.03
0.77
1.28
1.10
0.05
-1.83
-4.32
-7.12
-9.93
-12.49
-14.54
-15.88
-16.38
-16.02
-14.93
-13.34
-11.48
-9.53
-7.56
-5.62
-3.79
-2.20
-1.03
-0.41
-0.27
-0.40
-0.51
-0.37
0.14
0.99
2.12
3.48
5.05
6.77
8.51
10.09
11.31
12.04
12.24
11.91
11.07
9.76
8.05
6.11
4.17
2.46
1.09
-0.06
-1.26
-2.85
-5.02
-7.75
-10.66
-13.23
-14.84
-15.06
-13.71
-10.93
-7.07
-2.65
1.85
6.00
9.45
11.94
13.35
13.67
13.02
11.68
9.99
8.30
6.87
5.87
5.32
5.11
5.09
5.08
4.90
4.38
3.47
2.21
0.74
-0.73
-2.06
-3.21
-4.29
-5.45
-6.78
-8.25
-9.66
-10.80
-11.54
-11.91
-12.16
-12.66
-13.74
-15.54
-17.92
-20.46
-22.55
-23.59
-23.19
-21.28
-18.12
-14.16
-9.86
-5.56
-1.49
2.18
5.26
7.58
8.98
9.46
9.20
8.53
7.79
7.29
7.18
7.40
7.83
8.26
8.51
8.53
8.34
8.10
7.95
7.98
8.15
8.29
8.15
7.55
6.39
4.75
2.83
0.92
-0.77
-2.19
-3.41
-4.67
-6.21
-8.19
-10.65
-13.40
-16.12
-18.39
-19.80
-20.03
-18.89
-16.43
-12.87
-8.64
-4.25
-0.16
3.29
5.95
7.84
9.02
9.56
9.54
9.05
8.27
7.41
6.74
6.43
6.56
7.03
7.67
8.30
8.78
9.08
9.19
9.17
9.05
8.83
8.44
7.74
6.65
5.16
3.38
1.54
-0.12
-1.51
-2.68
-3.82
-5.19
-6.96
-9.20
-11.82
-14.60
-17.24
-19.36
-20.60
-20.64
-19.31
-16.71
-13.18
-9.17
-5.15
-1.42
1.85
4.63
6.90
8.59
9.62
9.96
9.68
8.97
8.04
7.14
6.49
6.22
6.35
6.85
7.59
8.42
9.21
9.91
10.51
11.01
11.33
11.36
10.97
10.14
8.98
7.66
6.36
5.13
3.91
2.61
1.12
-0.61
-2.57
-4.80
-7.29
-10.00
-12.77
-15.26
-17.04
-17.70
-17.04
-15.15
-12.38
-9.21
-6.06
-3.23
-0.84
1.10
2.57
3.50
3.84
3.62
2.96
2.08
1.16
0.28
-0.57
-1.41
-2.21
-2.83
-3.08
-2.84
-2.11
-1.03
0.17
1.23
1.95
2.24
2.09
1.60
0.97
0.39
-0.00
-0.22
-0.42
-0.88
-1.87
-3.60
-6.10
-9.27
-12.78
-16.14
-18.79
-20.17
-19.91
-17.93
-14.48
-10.03
-5.20
-0.56
3.45
6.58
8.75
10.05
10.65
10.72
10.43
9.87
9.12
8.29
7.51
6.93
6.69
6.81
7.22
7.76
8.24
8.51
8.50
8.18
7.59
6.73
5.63
4.32
2.88
1.42
0.07
-1.12
-2.15
-3.12
-4.18
-5.50
-7.20
-9.32
-11.76
-14.24
-16.32
-17.50
-17.38
-15.83
-13.03
-9.38
-5.40
-1.53
1.97
4.98
7.43
9.26
10.39
10.73
10.33
9.39
8.20
7.10
6.31
5.96
5.98
6.24
6.55
6.78
6.88
6.87
6.81
6.74
6.68
6.57
6.29
5.72
4.77
3.39
1.68
-0.23
-2.15
-3.98
-5.68
-7.31
-9.00
-10.90
-13.08
-15.53
-18.08
-20.42
-22.17
-22.93
-22.41
-20.51
-17.35
-13.27
-8.73
-4.21
-0.09
3.35
5.96
7.70
8.60
8.73
8.27
7.43
6.48
5.71
5.32
5.35
5.74
6.27
6.73
7.03
7.20
7.33
7.54
7.82
8.04
8.02
7.65
6.91
5.90
4.70
3.37
1.89
0.24
-1.53
-3.30
-4.93
-6.37
-7.71
-9.21
-11.14
-13.62
-16.53
-19.46
-21.78
-22.89
-22.41
-20.29
-16.81
-12.50
-7.94
-3.60
0.22
3.39
5.90
7.78
9.03
9.67
9.71
9.23
8.37
7.37
6.49
5.97
5.97
6.47
7.29
8.16
8.84
9.21
9.32
9.29
9.23
9.13
8.86
8.31
7.40
6.21
4.88
3.54
2.23
0.92
-0.45
-1.91
-3.41
-4.88
-6.29
-7.72
-9.30
-11.22
-13.53
-16.11
-18.65
-20.62
-21.50
-20.89
-18.68
-15.06
-10.52
-5.63
-0.92
3.24
6.62
9.17
10.84
11.62
11.52
10.68
9.38
7.99
6.90
6.36
6.47
7.06
7.88
8.69
9.35
9.83
10.18
10.49
10.74
10.87
10.80
10.45
9.80
8.83
7.56
6.01
4.20
2.24
0.29
-1.51
-3.03
-4.26
-5.33
-6.45
-7.83
-9.67
-12.01
-14.75
-17.58
-20.05
-21.61
-21.76
-20.20
-16.99
-12.52
-7.46
-2.56
1.59
4.66
6.65
7.75
8.22
8.25
7.94
7.30
6.34
5.08
3.66
2.30
1.24
0.67
0.68
1.16
1.93
2.73
3.32
3.54
3.27
2.48
1.19
-0.45
-2.21
-3.79
-4.91
-5.44
-5.47
-5.27
-5.18
-5.47
-6.27
-7.58
-9.33
-11.40
-13.66
-15.88
-17.73
-18.80
-18.70
-17.22
-14.41
-10.62
-6.41
-2.38
1.00
3.45
4.94
5.61
5.72
5.56
5.38
5.31
5.39
5.59
5.81
5.97
6.03
5.99
5.90
5.83
5.81
5.89
6.02
6.15
6.12
5.73
4.76
3.09
0.79
-1.78
-4.01
-5.20
-4.89
-3.14
-0.63
1.39
1.55
-1.16
-6.96
-15.17
-24.47
-33.28
-40.25
-44.49
-45.63
-43.68
-38.88
-31.69
-22.75
-12.92
-3.18
5.57
12.70
18.02
21.70
24.19
25.96
27.40
28.70
29.94
31.10
32.15
33.08
33.94
34.78
35.70
36.76
37.91
38.97
39.64
39.55
38.47
36.33
33.44
30.28
27.51
25.62
24.86
25.06
25.78
26.37
26.21
24.87
22.17
18.23
13.47
8.48
3.96
0.58
-1.21
-1.23
0.32
3.00
6.19
9.28
11.74
13.24
13.64
12.97
11.37
9.06
6.32
3.43
0.69
-1.70
-3.63
-5.09
-6.18
-7.03
-7.72
-8.28
-8.66
-8.77
-8.58
-8.10
-7.43
-6.71
-6.07
-5.64
-5.47
-5.58
-5.92
-6.37
-6.87
-7.32
-7.75
-8.23
-8.94
-10.04
-11.65
-13.75
-16.11
-18.33
-19.92
-20.49
-19.86
-18.15
-15.72
-13.09
-10.71
-8.91
-7.80
-7.34
-7.41
-7.90
-8.77
-10.02
-11.59
-13.25
-14.68
-15.49
-15.46
-14.61
-13.22
-11.75
-10.58
-9.90
-9.60
-9.46
-9.22
-8.81
-8.35
-8.11
-8.32
-9.13
-10.48
-12.23
-14.13
-15.98
-17.61
-18.96
-20.06
-20.98
-21.88
-22.87
-24.00
-25.15
-26.09
-26.47
-25.94
-24.25
-21.32
-17.27
-12.36
-6.98
-1.54
3.51
7.79
11.08
13.33
14.66
15.29
15.38
14.94
13.81
11.75
8.63
4.54
-0.17
-4.94
-9.13
-12.23
-14.01
-14.46
-13.82
-12.45
-10.73
-9.04
-7.68
-6.91
-6.84
-7.39
-8.30
-9.14
-9.43
-8.91
-7.60
-5.89
-4.35
-3.51
-3.64
-4.54
-5.71
-6.47
-6.20
-4.63
-1.77
1.96
6.03
9.87
13.10
15.61
17.49
18.91
20.01
20.87
21.53
22.12
22.84
23.90
25.31
26.81
27.90
28.12
27.31
25.78
24.16
23.06
22.71
22.83
22.76
21.81
19.64
16.36
12.43
8.38
4.57
1.10
-2.09
-5.04
-7.71
-9.98
-11.78
-13.18
-14.33
-15.41
-16.42
-17.19
-17.42
-16.83
-15.28
-12.88
-9.95
-6.91
-4.08
-1.58
0.71
2.99
5.45
8.14
10.86
13.30
15.19
16.40
17.05
17.42
17.81
18.42
19.23
20.06
20.65
20.70
20.03
18.56
16.42
13.83
11.13
8.63
6.52
4.84
3.49
2.31
1.17
-0.05
-1.38
-2.92
-4.79
-7.14
-10.04
-13.36
-16.77
-19.69
-21.52
-21.82
-20.46
-17.72
-14.09
-10.15
-6.33
-2.85
0.23
2.88
5.01
6.47
7.09
6.82
5.81
4.34
2.76
1.41
0.50
0.16
0.33
0.85
1.47
1.94
2.11
2.00
1.81
1.74
1.95
2.41
2.92
3.23
3.13
2.55
1.56
0.29
-1.18
-2.78
-4.48
-6.26
-8.10
-10.01
-11.97
-13.97
-15.83
-17.28
-17.92
-17.42
-15.60
-12.58
-8.75
-4.62
-0.63
2.91
5.90
8.32
10.16
11.35
11.79
11.43
10.34
8.76
7.07
5.66
4.81
4.60
4.90
5.41
5.84
6.05
6.06
6.06
6.23
6.59
6.96
7.05
6.50
5.17
3.19
0.93
-1.11
-2.53
-3.24
-3.47
-3.72
-4.52
-6.25
-8.97
-12.45
-16.25
-19.84
-22.72
-24.41
-24.55
-22.97
-19.81
-15.58
-11.02
-6.83
-3.43
-0.82
1.36
3.47
5.66
7.72
9.29
10.03
9.94
9.30
8.59
8.16
8.15
8.44
8.77
8.95
8.95
8.87
8.91
9.19
9.73
10.38
10.89
11.00
10.50
9.38
7.76
5.91
4.10
2.52
1.19
-0.01
-1.29
-2.82
-4.67
-6.84
-9.20
-11.60
-13.85
-15.70
-16.83
-16.96
-15.88
-13.58
-10.30
-6.49
-2.65
0.74
3.37
5.09
5.91
5.89
5.17
3.92
2.40
0.89
-0.37
-1.19
-1.52
-1.42
-1.01
-0.47
0.11
0.69
1.26
1.80
2.29
2.71
2.99
3.07
2.87
2.35
1.50
0.41
-0.78
-1.94
-2.99
-4.00
-5.14
-6.64
-8.63
-11.06
-13.61
-15.78
-17.05
-17.04
-15.63
-12.93
-9.29
-5.07
-0.68
3.60
7.54
10.93
13.60
15.40
16.27
16.27
15.60
14.54
13.39
12.37
11.60
11.09
10.77
10.58
10.49
10.52
10.70
11.00
11.32
11.44
11.12
10.14
8.39
5.98
3.16
0.29
-2.27
-4.29
-5.74
-6.78
-7.68
-8.77
-10.30
-12.38
-14.92
-17.58
-19.91
-21.45
-21.85
-20.97
-18.89
-15.86
-12.19
-8.23
-4.30
-0.70
2.29
4.53
5.92
6.50
6.39
5.77
4.82
3.74
2.76
2.06
1.76
1.94
2.53
3.45
4.59
5.83
7.11
8.32
9.34
10.01
10.19
9.82
8.97
7.76
6.36
4.91
3.45
1.98
0.46
-1.09
-2.71
-4.44
-6.37
-8.60
-11.12
-13.75
-16.06
-17.54
-17.71
-16.32
-13.48
-9.55
-5.11
-0.73
3.14
6.27
8.56
10.07
10.85
10.98
10.53
9.61
8.34
6.90
5.49
4.25
3.32
2.75
2.57
2.73
3.14
3.66
4.18
4.65
5.01
5.23
5.24
4.91
4.16
2.98
1.52
0.01
-1.35
-2.48
-3.48
-4.62
-6.18
-8.35
-11.11
-14.27
-17.52
-20.51
-22.90
-24.40
-24.78
-23.94
-21.88
-18.79
-15.00
-10.93
-7.04
-3.70
-1.14
0.55
1.45
1.70
1.49
0.97
0.28
-0.47
-1.22
-1.92
-2.57
-3.14
-3.61
-3.93
-4.04
-3.92
-3.57
-3.07
-2.52
-2.00
-1.58
-1.25
-0.97
-0.65
-0.17
0.62
1.87
3.64
5.88
8.38
10.78
12.65
13.62
13.45
12.15
10.05
7.64
5.54
4.28
4.22
5.39
7.59
10.34
13.14
15.48
16.97
17.43
16.82
15.22
12.84
9.94
6.87
3.95
1.45
-0.45
-1.69
-2.31
-2.42
-2.11
-1.49
-0.61
0.45
1.54
2.41
2.73
2.19
0.61
-1.94
-5.22
-8.84
-12.39
-15.59
-18.33
-20.64
-22.72
-24.73
-26.84
-29.06
-31.31
-33.39
-35.05
-36.08
-36.38
-35.83
-34.36
-31.77
-27.91
-22.69
-16.29
-9.18
-2.00
4.61
10.13
14.29
17.03
18.47
18.85
18.48
17.77
17.08
16.67
16.55
16.54
16.35
15.76
14.73
13.45
12.16
11.02
9.95
8.69
6.89
4.33
1.02
-2.72
-6.36
-9.30
-11.02
-11.24
-10.01
-7.73
-5.01
-2.48
-0.56
0.70
1.69
3.04
5.39
9.19
14.62
21.55
29.65
38.45
47.32
55.53
62.32
66.99
69.15
68.84
66.54
63.04
59.18
55.63
52.62
49.95
47.08
43.38
38.45
32.29
25.38
18.53
12.53
7.88
4.60
2.30
0.42
-1.50
-3.64
-5.86
-7.92
-9.66
-11.11
-12.46
-13.98
-15.77
-17.78
-19.76
-21.41
-22.49
-22.84
-22.40
-21.14
-19.13
-16.48
-13.45
-10.36
-7.56
-5.32
-3.78
-2.92
-2.69
-3.04
-3.96
-5.48
-7.51
-9.86
-12.21
-14.25
-15.70
-16.45
-16.46
-15.80
-14.56
-12.87
-10.95
-9.10
-7.61
-6.67
-6.33
-6.45
-6.85
-7.43
-8.20
-9.32
-11.00
-13.38
-16.47
-20.15
-24.16
-28.17
-31.73
-34.37
-35.62
-35.15
-32.88
-29.05
-24.20
-18.98
-13.98
-9.57
-5.85
-2.68
0.17
2.85
5.28
7.21
8.28
8.26
7.18
5.40
3.47
1.89
0.91
0.38
-0.08
-0.80
-1.86
-3.00
-3.78
-3.96
-3.61
-3.14
-3.06
-3.62
-4.69
-5.83
-6.61
-6.86
-6.80
-6.92
-7.74
-9.58
-12.35
-15.67
-18.93
-21.44
-22.63
-22.15
-20.04
-16.71
-12.82
-9.02
-5.75
-3.11
-0.98
0.82
2.28
3.21
3.33
2.44
0.64
-1.70
-4.07
-6.03
-7.44
-8.36
-9.05
-9.68
-10.22
-10.44
-10.05
-8.80
-6.66
-3.79
-0.52
2.86
6.19
9.42
12.64
15.89
19.09
22.05
24.49
26.18
26.92
26.45
24.40
20.30
13.80
5.00
-5.29
-15.61
-24.21
-29.66
-31.28
-29.24
-24.39
-17.75
-10.19
-2.33
5.39
12.53
18.61
23.13
25.85
26.77
26.17
24.46
22.05
19.26
16.32
13.45
10.82
8.67
7.21
6.62
6.92
7.95
9.28
10.43
11.00
10.90
10.43
10.17
10.64
12.06
14.20
16.49
18.23
18.94
18.41
16.75
14.21
11.06
7.58
4.08
0.95
-1.43
-2.73
-2.85
-1.97
-0.47
1.18
2.56
3.44
3.80
3.74
3.42
2.86
2.02
0.76
-1.02
-3.27
-5.73
-8.08
-9.96
-11.21
-11.82
-11.95
-11.82
-11.61
-11.42
-11.26
-11.14
-11.05
-11.05
-11.16
-11.37
-11.55
-11.57
-11.31
-10.79
-10.24
-10.02
-10.46
-11.74
-13.75
-16.12
-18.30
-19.73
-20.01
-18.94
-16.53
-12.93
-8.45
-3.48
1.55
6.16
10.00
12.86
14.77
15.87
16.38
16.46
16.19
15.59
14.67
13.58
12.54
11.78
11.47
11.60
12.03
12.50
12.77
12.67
12.13
11.16
9.83
8.23
6.44
4.54
2.59
0.64
-1.29
-3.21
-5.17
-7.23
-9.40
-11.59
-13.62
-15.19
-16.00
-15.72
-14.20
-11.41
-7.60
-3.19
1.25
5.16
8.14
10.00
10.81
10.81
10.27
9.45
8.58
7.83
7.26
6.76
6.01
4.58
2.18
-1.14
-4.89
-8.28
-10.60
-11.47
-10.97
-9.53
-7.67
-5.78
-4.04
-2.54
-1.36
-0.66
-0.58
-1.15
-2.28
-3.79
-5.46
-7.12
-8.61
-9.71
-10.12
-9.53
-7.72
-4.72
-0.85
3.37
7.35
10.63
12.96
14.32
14.85
14.76
14.30
13.72
13.20
12.86
12.75
12.79
12.92
13.04
13.14
13.27
13.48
13.77
14.06
14.13
13.70
12.55
10.58
7.88
4.66
1.21
-2.18
-5.32
-8.16
-10.77
-13.33
-16.09
-19.27
-22.97
-27.00
-30.90
-33.94
-35.38
-34.69
-31.80
-27.11
-21.40
-15.53
-10.21
-5.82
-2.45
-0.02
1.63
2.66
3.23
3.56
3.92
4.56
5.62
7.02
8.52
9.77
10.45
10.45
9.87
8.95
7.94
6.94
5.87
4.57
2.86
0.66
-1.91
-4.59
-7.02
-8.85
-9.85
-10.00
-9.53
-8.88
-8.49
-8.64
-9.24
-9.77
-9.41
-7.39
-3.17
3.17
11.04
19.39
27.04
33.00
36.64
37.82
36.76
33.94
29.93
25.26
20.40
15.72
11.58
8.26
5.99
4.82
4.59
4.96
5.45
5.63
5.24
4.34
3.15
1.93
0.81
-0.28
-1.60
-3.36
-5.65
-8.36
-11.26
-14.13
-16.84
-19.35
-21.62
-23.50
-24.72
-24.88
-23.67
-20.92
-16.69
-11.29
-5.18
1.16
7.26
12.78
17.47
21.19
23.91
25.66
26.55
26.70
26.23
25.18
23.58
21.43
18.76
15.72
12.55
9.50
6.82
4.64
3.00
1.80
0.96
0.35
-0.16
-0.62
-1.10
-1.60
-2.18
-2.86
-3.74
-4.92
-6.49
-8.35
-10.27
-11.85
-12.64
-12.35
-10.90
-8.52
-5.61
-2.62
0.12
2.39
4.12
5.30
5.92
5.99
5.50
4.50
3.08
1.45
-0.14
-1.43
-2.24
-2.53
-2.37
-1.93
-1.36
-0.70
0.11
1.19
2.58
4.15
5.66
6.82
7.45
7.50
7.10
6.38
5.40
4.03
2.11
-0.49
-3.67
-7.04
-10.09
-12.31
-13.46
-13.56
-12.86
-11.67
-10.19
-8.55
-6.82
-5.15
-3.82
-3.09
-3.14
-3.91
-5.11
-6.38
-7.43
-8.09
-8.38
-8.33
-8.02
-7.48
-6.75
-5.92
-5.13
-4.57
-4.34
-4.47
-4.90
-5.50
-6.15
-6.79
-7.43
-8.14
-9.02
-10.17
-11.68
-13.53
-15.62
-17.73
-19.57
-20.75
-20.91
-19.78
-17.27
-13.57
-9.07
-4.31
0.15
3.88
6.64
8.38
9.21
9.28
8.74
7.74
6.42
4.94
3.45
2.12
1.11
0.52
0.43
0.79
1.47
2.25
2.86
3.07
2.76
1.90
0.57
-1.11
-2.99
-4.92
-6.74
-8.32
-9.58
-10.53
-11.28
-11.96
-12.65
-13.27
-13.59
-13.24
-11.85
-9.20
-5.35
-0.68
4.18
8.56
11.90
13.96
14.76
14.61
13.84
12.75
11.47
10.08
8.62
7.20
6.00
5.16
4.72
4.60
4.58
4.47
4.14
3.59
2.87
2.05
1.09
-0.09
-1.58
-3.35
-5.25
-7.09
-8.69
-10.03
-11.24
-12.52
-14.06
-15.89
-17.77
-19.33
-20.05
-19.53
-17.59
-14.33
-10.15
-5.61
-1.28
2.41
5.23
7.15
8.23
8.57
8.29
7.52
6.41
5.17
4.03
3.15
2.60
2.35
2.33
2.48
2.77
3.19
3.71
4.23
4.60
4.63
4.20
3.27
1.97
0.43
-1.17
-2.71
-4.18
-5.61
-7.04
-8.49
-9.90
-11.13
-11.93
-12.03
-11.14
-9.17
-6.25
-2.72
0.89
4.13
6.70
8.52
9.74
10.55
11.11
11.50
11.69
11.70
11.55
11.31
11.12
11.16
11.54
12.33
13.51
14.92
16.30
17.37
17.93
17.88
17.27
16.27
15.09
13.96
13.02
12.21
11.22
9.55
6.61
1.99
-4.34
-11.93
-19.93
-27.29
-33.04
-36.55
-37.60
-36.35
-33.19
-28.55
-22.88
-16.65
-10.34
-4.50
0.32
3.74
5.68
6.38
6.33
5.95
5.52
5.08
4.51
3.75
2.89
2.13
1.62
1.33
1.01
0.38
-0.74
-2.29
-4.00
-5.53
-6.70
-7.54
-8.33
-9.35
-10.76
-12.46
-14.23
-15.81
-17.15
-18.39
-19.75
-21.35
-23.02
-24.28
-24.53
-23.33
-20.68
-16.97
-12.85
-8.93
-5.60
-2.90
-0.73
1.18
3.07
5.29
8.21
12.20
17.50
24.04
31.40
38.85
45.60
50.97
54.54
56.22
56.16
54.67
52.11
48.80
45.00
40.85
36.39
31.62
26.55
21.30
16.06
11.10
6.60
2.66
-0.85
-4.17
-7.60
-11.29
-15.22
-19.07
-22.43
-24.86
-26.08
-26.01
-24.76
-22.54
-19.63
-16.34
-12.96
-9.77
-7.00
-4.86
-3.48
-2.89
-3.04
-3.75
-4.72
-5.65
-6.25
-6.38
-6.03
-5.32
-4.49
-3.79
-3.49
-3.79
-4.81
-6.53
-8.78
-11.23
-13.57
-15.48
-16.85
-17.69
-18.12
-18.27
-18.22
-17.98
-17.51
-16.82
-15.97
-15.12
-14.46
-14.19
-14.37
-14.85
-15.35
-15.40
-14.57
-12.61
-9.53
-5.66
-1.54
2.25
5.29
7.37
8.55
9.06
9.14
8.96
8.57
7.95
7.13
6.21
5.40
4.91
4.80
4.97
5.15
5.06
4.56
3.70
2.69
1.76
1.02
0.38
-0.42
-1.59
-3.24
-5.24
-7.35
-9.28
-10.91
-12.24
-13.40
-14.59
-15.91
-17.32
-18.71
-19.97
-21.04
-21.99
-22.89
-23.67
-24.08
-23.69
-22.10
-19.10
-14.76
-9.52
-3.90
1.58
6.58
10.95
14.64
17.66
19.99
21.69
22.85
23.72
24.57
25.64
27.03
28.65
30.28
31.65
32.64
33.23
33.57
33.81
33.99
34.04
33.71
32.80
31.11
28.66
25.54
21.93
18.05
14.05
9.99
5.82
1.45
-3.14
-7.84
-12.38
-16.36
-19.44
-21.43
-22.32
-22.24
-21.29
-19.50
-16.85
-13.39
-9.41
-5.35
-1.79
0.81
2.23
2.54
2.02
1.07
0.02
-0.95
-1.78
-2.53
-3.30
-4.16
-5.12
-6.12
-7.04
-7.70
-7.97
-7.69
-6.73
-5.04
-2.64
0.24
3.26
5.98
8.02
9.25
9.84
10.16
10.63
11.44
12.43
13.12
12.96
11.54
8.79
4.96
0.53
-3.95
-7.95
-11.04
-12.85
-13.14
-11.85
-9.18
-5.51
-1.43
2.52
5.91
8.53
10.40
11.73
12.77
13.71
14.57
15.24
15.51
15.25
14.51
13.56
12.83
12.72
13.49
15.15
17.53
20.37
23.34
26.07
28.16
29.19
28.86
27.04
23.85
19.64
14.89
10.07
5.56
1.57
-1.82
-4.70
-7.26
-9.75
-12.37
-15.20
-18.14
-20.90
-23.12
-24.46
-24.63
-23.50
-21.09
-17.57
-13.27
-8.64
-4.11
-0.06
3.26
5.73
7.31
8.05
8.07
7.54
6.71
5.86
5.24
4.93
4.92
5.11
5.37
5.63
5.89
6.19
6.53
6.89
7.16
7.26
7.11
6.67
5.95
4.98
3.74
2.23
0.51
-1.31
-3.02
-4.43
-5.50
-6.38
-7.40
-8.96
-11.26
-14.18
-17.30
-20.01
-21.73
-22.10
-21.03
-18.63
-15.18
-11.04
-6.64
-2.45
1.10
3.73
5.34
6.06
6.14
5.79
5.16
4.30
3.27
2.23
1.39
0.94
0.95
1.37
2.05
2.87
3.85
5.05
6.52
8.16
9.65
10.61
10.75
10.01
8.59
6.85
5.14
3.67
2.46
1.40
0.32
-0.92
-2.41
-4.19
-6.24
-8.51
-10.83
-12.94
-14.51
-15.19
-14.70
-12.93
-10.05
-6.44
-2.61
0.92
3.80
5.90
7.25
7.91
7.93
7.30
6.07
4.41
2.65
1.22
0.43
0.41
0.98
1.84
2.65
3.21
3.53
3.72
3.94
4.27
4.68
5.00
5.02
4.58
3.61
2.20
0.56
-1.10
-2.61
-3.95
-5.23
-6.61
-8.24
-10.21
-12.51
-15.06
-17.63
-19.92
-21.55
-22.13
-21.38
-19.26
-15.93
-11.82
-7.46
-3.40
-0.06
2.33
3.78
4.41
4.41
3.95
3.16
2.15
1.05
0.10
-0.46
-0.41
0.25
1.35
2.57
3.65
4.48
5.12
5.68
6.18
6.47
6.32
5.54
4.15
2.36
0.50
-1.17
-2.57
-3.83
-5.20
-6.86
-8.92
-11.29
-13.73
-15.90
-17.41
-17.89
-17.10
-14.95
-11.63
-7.50
-3.03
1.30
5.10
8.13
10.22
11.28
11.32
10.44
8.85
6.87
4.84
3.03
1.61
0.59
-0.08
-0.52
-0.78
-0.85
-0.73
-0.45
-0.08
0.24
0.35
0.10
-0.55
-1.59
-2.94
-4.47
-6.13
-7.87
-9.67
-11.54
-13.47
-15.49
-17.60
-19.82
-22.10
-24.26
-25.99
-26.84
-26.34
-24.05
-19.75
-13.51
-5.73
2.91
11.58
19.42
25.71
29.98
32.10
32.15
30.47
27.50
23.74
19.70
15.85
12.54
10.02
8.34
7.39
6.96
6.78
6.58
6.19
5.51
4.56
3.40
2.11
0.71
-0.79
-2.40
-4.08
-5.76
-7.32
-8.72
-10.01
-11.38
-13.12
-15.44
-18.38
-21.68
-24.81
-27.09
-27.94
-26.98
-24.22
-20.05
-15.07
-10.02
-5.48
-1.86
0.67
2.08
2.38
1.51
-0.65
-4.23
-9.24
-15.42
-22.25
-28.98
-34.83
-39.17
-41.65
-42.19
-40.93
-38.18
-34.30
-29.69
-24.74
-19.80
-15.17
-10.99
-7.29
-3.96
-0.91
1.92
4.42
6.47
7.96
8.89
9.38
9.53
9.31
8.54
7.04
4.75
1.97
-0.67
-2.40
-2.59
-1.04
2.00
5.89
9.92
13.57
16.58
18.90
20.64
21.84
22.49
22.51
21.94
20.92
19.78
18.93
18.69
19.14
20.05
21.00
21.55
21.41
20.55
19.18
17.57
15.93
14.34
12.71
10.96
9.06
7.07
5.07
3.08
1.00
-1.38
-4.28
-7.80
-11.86
-16.17
-20.35
-24.00
-26.81
-28.63
-29.38
-28.99
-27.38
-24.49
-20.29
-14.90
-8.57
-1.72
5.20
11.78
17.65
22.54
26.32
28.97
30.57
31.30
31.40
31.07
30.48
29.70
28.82
27.89
27.00
26.22
25.59
25.07
24.54
23.87
22.94
21.69
20.15
18.36
16.39
14.29
12.08
9.79
7.44
5.06
2.66
0.19
-2.37
-5.06
-7.80
-10.36
-12.36
-13.36
-13.00
-11.13
-7.93
-3.87
0.47
4.60
8.23
11.30
13.84
15.87
17.27
17.93
17.84
17.17
16.23
15.36
14.79
14.54
14.53
14.63
14.78
14.96
15.19
15.39
15.46
15.23
14.63
13.65
12.30
10.61
8.58
6.25
3.71
1.16
-1.24
-3.36
-5.21
-6.90
-8.57
-10.39
-12.46
-14.88
-17.67
-20.75
-23.84
-26.51
-28.22
-28.51
-27.18
-24.38
-20.58
-16.37
-12.34
-8.85
-6.09
-4.06
-2.68
-1.91
-1.70
-2.04
-2.85
-3.96
-5.15
-6.15
-6.76
-6.94
-6.78
-6.43
-6.06
-5.78
-5.63
-5.65
-5.86
-6.32
-7.00
-7.79
-8.46
-8.74
-8.39
-7.35
-5.76
-3.93
-2.23
-0.96
-0.25
-0.08
-0.25
-0.57
-0.97
-1.48
-2.23
-3.26
-4.47
-5.45
-5.69
-4.70
-2.26
1.45
5.96
10.67
15.08
18.94
22.18
24.84
26.91
28.28
28.82
28.46
27.30
25.63
23.81
22.23
21.10
20.48
20.27
20.26
20.24
20.01
19.42
18.43
17.01
15.20
13.08
10.76
8.35
5.98
3.71
1.55
-0.54
-2.62
-4.70
-6.76
-8.67
-10.27
-11.45
-12.20
-12.65
-13.05
-13.62
-14.45
-15.46
-16.36
-16.83
-16.56
-15.44
-13.47
-10.74
-7.41
-3.64
0.34
4.16
7.39
9.59
10.46
9.96
8.31
5.96
3.47
1.33
-0.10
-0.71
-0.60
-0.08
0.54
0.96
1.08
1.00
0.92
1.06
1.49
2.06
2.48
2.43
1.75
0.51
-0.98
-2.30
-3.14
-3.44
-3.34
-3.14
-3.11
-3.37
-3.84
-4.31
-4.53
-4.31
-3.57
-2.37
-0.81
0.96
2.69
4.08
4.76
4.41
2.91
0.47
-2.43
-5.23
-7.47
-8.95
-9.64
-9.57
-8.71
-6.95
-4.21
-0.67
3.26
6.99
10.05
12.21
13.60
14.51
15.25
15.96
16.67
17.30
17.76
17.92
17.65
16.75
14.97
12.19
8.47
4.12
-0.38
-4.48
-7.84
-10.37
-12.25
-13.84
-15.50
-17.45
-19.77
-22.31
-24.82
-26.94
-28.30
-28.56
-27.51
-25.15
-21.72
-17.64
-13.44
-9.54
-6.23
-3.58
-1.57
-0.12
0.85
1.38
1.58
1.64
1.84
2.44
3.66
5.55
8.04
10.95
14.04
17.08
19.84
22.14
23.88
25.05
25.74
26.12
26.35
26.49
26.54
26.38
25.84
24.84
23.37
21.53
19.44
17.21
14.80
12.08
8.91
5.22
1.13
-3.06
-6.91
-10.00
-11.95
-12.55
-11.78
-9.80
-6.96
-3.71
-0.54
2.07
3.80
4.45
4.03
2.67
0.61
-1.84
-4.34
-6.65
-8.59
-10.11
-11.28
-12.19
-12.90
-13.40
-13.62
-13.52
-13.10
-12.45
-11.72
-11.05
-10.58
-10.36
-10.38
-10.59
-10.92
-11.34
-11.81
-12.29
-12.76
-13.21
-13.65
-14.12
-14.73
-15.53
-16.59
-17.81
-19.02
-19.92
-20.24
-19.77
-18.41
-16.23
-13.42
-10.23
-6.92
-3.73
-0.83
1.65
3.60
4.92
5.56
5.53
4.96
4.09
3.22
2.62
2.42
2.65
3.21
4.01
4.92
5.83
6.62
7.13
7.23
6.82
5.93
4.62
3.02
1.27
-0.51
-2.20
-3.71
-4.98
-6.05
-7.03
-8.08
-9.36
-11.00
-13.03
-15.35
-17.76
-19.98
-21.64
-22.40
-21.95
-20.20
-17.29
-13.60
-9.62
-5.84
-2.65
-0.23
1.38
2.25
2.45
2.10
1.32
0.28
-0.77
-1.61
-2.11
-2.24
-2.06
-1.67
-1.14
-0.41
0.62
1.99
3.66
5.38
6.80
7.56
7.47
6.53
4.98
3.16
1.39
-0.16
-1.46
-2.65
-3.83
-5.15
-6.68
-8.51
-10.64
-13.01
-15.36
-17.31
-18.37
-18.14
-16.43
-13.39
-9.47
-5.23
-1.22
2.22
4.93
6.88
8.08
8.50
8.12
6.96
5.19
3.14
1.21
-0.28
-1.13
-1.35
-1.10
-0.57
0.10
0.83
1.63
2.45
3.16
3.59
3.59
3.10
2.16
0.94
-0.38
-1.69
-3.00
-4.38
-6.00
-7.96
-10.35
-13.16
-16.27
-19.51
-22.58
-25.15
-26.91
-27.64
-27.29
-25.95
-23.81
-21.13
-18.21
-15.32
-12.68
-10.47
-8.81
-7.65
-6.86
-6.18
-5.36
-4.23
-2.73
-0.90
1.24
3.70
6.63
10.17
14.31
18.75
22.87
25.81
26.75
25.15
20.94
14.41
6.19
-3.00
-12.45
-21.53
-29.70
-36.58
-42.02
-46.14
-49.24
-51.68
-53.65
-55.01
-55.38
-54.27
-51.34
-46.55
-40.17
-32.64
-24.48
-16.13
-7.99
-0.40
6.38
12.17
16.94
20.78
23.86
26.27
28.02
29.06
29.33
28.91
27.96
26.76
25.56
24.56
23.84
23.45
23.32
23.31
23.20
22.72
21.63
19.78
17.21
14.13
10.87
7.76
5.01
2.65
0.47
-1.88
-4.71
-8.19
-12.23
-16.46
-20.30
-23.13
-24.46
-24.03
-21.85
-18.16
-13.32
-7.78
-1.97
3.67
8.77
13.03
16.25
18.35
19.39
19.52
18.93
17.86
16.54
15.23
14.16
13.49
13.29
13.49
13.89
14.28
14.51
14.52
14.29
13.85
13.13
12.00
10.35
8.13
5.44
2.44
-0.63
-3.61
-6.48
-9.31
-12.32
-15.69
-19.50
-23.62
-27.65
-31.00
-33.03
-33.23
-31.39
-27.65
-22.47
-16.44
-10.09
-3.85
2.01
7.30
11.84
15.44
18.01
19.57
20.31
20.50
20.44
20.38
20.49
20.83
21.41
22.15
22.96
23.73
24.41
25.01
25.55
26.04
26.38
26.41
25.91
24.76
23.03
20.92
18.68
16.48
14.32
12.08
9.65
6.93
3.92
0.65
-2.88
-6.66
-10.58
-14.36
-17.45
-19.20
-19.02
-16.69
-12.45
-6.93
-0.95
4.77
9.74
13.78
16.90
19.14
20.57
21.17
21.00
20.20
19.00
17.68
16.52
15.74
15.45
15.66
16.29
17.17
18.17
19.14
19.98
20.56
20.79
20.54
19.72
18.33
16.39
14.06
11.52
8.96
6.53
4.25
2.06
-0.19
-2.64
-5.40
-8.42
-11.62
-14.85
-17.97
-20.80
-23.13
-24.69
-25.15
-24.25
-21.90
-18.28
-13.76
-8.86
-4.06
0.26
3.87
6.63
8.48
9.43
9.54
8.98
8.03
7.00
6.21
5.88
6.03
6.53
7.12
7.55
7.69
7.58
7.40
7.38
7.64
8.12
8.53
8.55
7.91
6.61
4.82
2.89
1.08
-0.45
-1.75
-3.03
-4.54
-6.50
-8.98
-11.84
-14.70
-17.00
-18.16
-17.78
-15.74
-12.33
-8.10
-3.68
0.46
3.99
6.76
8.67
9.57
9.37
8.13
6.13
3.79
1.61
-0.09
-1.27
-2.05
-2.68
-3.28
-3.88
-4.37
-4.70
-4.91
-5.14
-5.58
-6.35
-7.48
-8.94
-10.65
-12.53
-14.49
-16.46
-18.31
-19.94
-21.32
-22.49
-23.61
-24.87
-26.44
-28.32
-30.37
-32.22
-33.40
-33.45
-32.10
-29.32
-25.30
-20.38
-14.96
-9.41
-4.10
0.57
4.25
6.68
7.81
7.90
7.43
6.97
6.98
7.76
9.34
11.59
14.29
17.20
20.16
23.00
25.60
27.85
29.71
31.19
32.46
33.80
35.53
37.82
40.56
43.26
45.19
45.62
44.14
40.88
36.44
31.68
27.37
23.96
21.53
19.82
18.53
17.42
16.47
15.76
15.39
15.34
15.47
15.59
15.56
15.29
14.74
13.86
12.56
10.70
8.18
5.05
1.53
-1.96
-4.94
-7.05
-8.15
-8.30
-7.75
-6.79
-5.64
-4.47
-3.37
-2.42
-1.66
-1.11
-0.71
-0.33
0.19
0.98
2.02
3.17
4.19
4.87
5.12
5.06
4.92
4.91
5.14
5.55
6.02
6.48
6.97
7.61
8.48
9.51
10.51
11.22
11.48
11.33
10.90
10.37
9.82
9.20
8.43
7.43
6.20
4.80
3.38
2.08
1.03
0.32
-0.09
-0.33
-0.59
-1.03
-1.71
-2.57
-3.49
-4.41
-5.39
-6.56
-7.97
-9.58
-11.20
-12.62
-13.71
-14.48
-15.02
-15.48
-15.98
-16.63
-17.54
-18.83
-20.57
-22.61
-24.60
-26.02
-26.37
-25.39
-23.13
-19.95
-16.33
-12.73
-9.43
-6.53
-4.00
-1.79
0.05
1.43
2.22
2.38
1.97
1.23
0.43
-0.16
-0.41
-0.34
-0.04
0.30
0.56
0.70
0.71
0.63
0.48
0.22
-0.21
-0.88
-1.82
-3.05
-4.49
-5.99
-7.41
-8.65
-9.67
-10.53
-11.32
-12.14
-13.09
-14.25
-15.62
-17.13
-18.53
-19.51
-19.74
-19.03
-17.33
-14.86
-11.96
-9.02
-6.35
-4.16
-2.53
-1.47
-0.94
-0.84
-1.06
-1.47
-1.93
-2.31
-2.57
-2.66
-2.62
-2.52
-2.38
-2.23
-2.03
-1.72
-1.32
-0.87
-0.53
-0.44
-0.68
-1.22
-1.98
-2.86
-3.79
-4.77
-5.75
-6.70
-7.55
-8.36
-9.28
-10.52
-12.18
-14.15
-16.03
-17.29
-17.44
-16.25
-13.86
-10.65
-7.08
-3.54
-0.29
2.51
4.78
6.41
7.36
7.63
7.34
6.66
5.85
5.12
4.61
4.38
4.38
4.52
4.71
4.90
5.12
5.44
5.94
6.60
7.23
7.58
7.36
6.48
5.06
3.46
2.07
1.13
0.58
0.07
-0.92
-2.77
-5.61
-9.23
-13.18
-16.96
-20.12
-22.36
-23.53
-23.60
-22.67
-20.96
-18.76
-16.44
-14.36
-12.72
-11.59
-10.89
-10.52
-10.37
-10.44
-10.71
-11.13
-11.57
-11.88
-11.91
-11.61
-11.08
-10.48
-10.00
-9.76
-9.80
-10.10
-10.63
-11.35
-12.26
-13.43
-15.01
-17.21
-20.20
-24.00
-28.43
-33.06
-37.37
-40.91
-43.48
-45.19
-46.42
-47.58
-48.99
-50.70
-52.43
-53.67
-53.85
-52.50
-49.41
-44.72
-38.85
-32.37
-25.87
-19.75
-14.20
-9.18
-4.48
0.14
4.89
9.86
14.99
20.14
25.03
29.41
33.07
35.92
38.04
39.63
40.96
42.23
43.45
44.49
45.10
45.04
44.21
42.65
40.52
38.00
35.22
32.26
29.14
25.84
22.38
18.82
15.14
11.31
7.24
2.88
-1.74
-6.42
-10.72
-14.10
-16.00
-16.09
-14.36
-11.19
-7.19
-3.01
0.86
4.18
6.95
9.31
11.35
13.09
14.45
15.33
15.71
15.67
15.39
15.04
14.73
14.45
14.12
13.70
13.30
13.17
13.55
14.61
16.22
18.04
19.55
20.33
20.16
19.12
17.49
15.59
13.64
11.76
9.93
8.07
6.12
4.01
1.71
-0.82
-3.57
-6.44
-9.11
-11.15
-12.08
-11.49
-9.29
-5.68
-1.13
3.77
8.52
12.75
16.28
19.00
20.85
21.79
21.87
21.28
20.30
19.25
18.42
17.93
17.79
17.92
18.18
18.41
18.50
18.29
17.75
16.90
15.84
14.66
13.41
11.98
10.22
7.95
5.19
2.07
-1.10
-4.07
-6.67
-8.92
-10.98
-13.06
-15.34
-17.91
-20.72
-23.62
-26.29
-28.35
-29.36
-28.97
-27.02
-23.55
-18.81
-13.17
-7.10
-1.07
4.44
9.05
12.43
14.39
14.94
14.28
12.75
10.80
8.88
7.34
6.35
5.92
5.93
6.18
6.48
6.71
6.84
6.87
6.80
6.64
6.35
5.88
5.17
4.21
3.03
1.69
0.26
-1.16
-2.58
-3.99
-5.49
-7.17
-9.11
-11.29
-13.58
-15.70
-17.28
-17.92
-17.36
-15.48
-12.44
-8.58
-4.36
-0.20
3.60
6.84
9.45
11.37
12.49
12.70
11.91
10.24
8.01
5.72
3.91
2.96
2.99
3.81
5.07
6.39
7.51
8.31
8.81
9.07
9.14
9.11
9.02
8.88
8.64
8.19
7.38
6.15
4.55
2.74
0.91
-0.86
-2.62
-4.46
-6.42
-8.29
-9.69
-10.18
-9.42
-7.37
-4.27
-0.52
3.40
7.12
10.33
12.81
14.33
14.77
14.13
12.56
10.38
7.91
5.42
3.08
0.94
-0.99
-2.67
-4.01
-4.94
-5.40
-5.47
-5.37
-5.39
-5.80
-6.71
-8.00
-9.36
-10.43
-11.06
-11.29
-11.36
-11.52
-11.88
-12.38
-12.94
-13.64
-14.67
-16.34
-18.75
-21.59
-24.19
-25.76
-25.66
-23.69
-20.09
-15.36
-9.99
-4.38
1.24
6.66
11.60
15.74
18.80
20.63
21.33
21.21
20.68
20.10
19.72
19.58
19.61
19.64
19.53
19.27
18.94
18.73
18.84
19.30
19.98
20.63
20.93
20.65
19.68
18.08
16.00
13.64
11.28
9.13
7.36
5.98
4.84
3.62
2.03
-0.04
-2.46
-4.84
-6.72
-7.77
-7.91
-7.25
-6.02
-4.41
-2.51
-0.29
2.27
5.18
8.39
11.78
15.09
17.89
19.63
19.73
17.85
14.07
8.97
3.47
-1.42
-4.88
-6.44
-5.94
-3.48
0.71
6.27
12.67
19.17
24.80
28.58
29.80
28.24
24.37
19.20
13.92
9.52
6.42
4.39
2.80
0.94
-1.65
-5.02
-8.96
-13.15
-17.31
-21.23
-24.68
-27.35
-28.87
-28.96
-27.53
-24.77
-21.08
-17.04
-13.20
-9.99
-7.61
-6.04
-5.10
-4.55
-4.20
-4.01
-4.00
-4.22
-4.59
-4.93
-5.00
-4.67
-4.01
-3.24
-2.60
-2.21
-1.97
-1.63
-0.85
0.53
2.48
4.80
7.21
9.47
11.51
13.39
15.24
17.23
19.45
21.84
24.25
26.29
27.40
26.83
23.81
17.84
9.00
-1.92
-13.45
-23.85
-31.58
-35.71
-36.09
-33.27
-28.15
-21.72
-14.82
-8.11
-2.05
3.01
6.94
9.74
11.54
12.56
13.00
13.02
12.73
12.25
11.63
10.94
10.23
9.50
8.76
8.04
7.36
6.72
6.10
5.38
4.49
3.37
2.03
0.55
-0.95
-2.35
-3.59
-4.60
-5.39
-6.00
-6.48
-6.95
-7.48
-8.15
-8.95
-9.82
-10.72
-11.60
-12.48
-13.36
-14.16
-14.65
-14.53
-13.61
-11.89
-9.61
-7.22
-5.11
-3.54
-2.53
-1.97
-1.75
-1.82
-2.24
-3.06
-4.22
-5.54
-6.73
-7.55
-7.82
-7.54
-6.86
-5.98
-5.10
-4.33
-3.71
-3.19
-2.75
-2.40
-2.21
-2.27
-2.61
-3.22
-4.01
-4.91
-5.86
-6.80
-7.74
-8.68
-9.63
-10.60
-11.62
-12.72
-13.88
-14.98
-15.79
-16.00
-15.31
-13.58
-10.87
-7.54
-4.08
-1.01
1.29
2.73
3.39
3.47
3.12
2.41
1.38
0.06
-1.37
-2.68
-3.65
-4.13
-4.12
-3.77
-3.25
-2.68
-2.12
-1.59
-1.08
-0.59
-0.19
0.04
0.01
-0.31
-0.90
-1.69
-2.59
-3.49
-4.31
-4.99
-5.47
-5.75
-5.84
-5.83
-5.86
-6.10
-6.72
-7.72
-8.97
-10.12
-10.73
-10.42
-8.98
-6.46
-3.14
0.54
4.10
7.17
9.46
10.89
11.51
11.47
10.93
10.04
8.90
7.57
6.13
4.72
3.49
2.53
1.83
1.27
0.68
-0.02
-0.80
-1.49
-1.93
-2.05
-1.99
-2.00
-2.38
-3.30
-4.72
-6.43
-8.16
-9.63
-10.74
-11.52
-12.08
-12.65
-13.38
-14.41
-15.80
-17.47
-19.23
-20.73
-21.54
-21.25
-19.65
-16.79
-13.05
-8.91
-4.90
-1.42
1.36
3.37
4.66
5.24
5.14
4.40
3.13
1.52
-0.23
-1.91
-3.39
-4.61
-5.55
-6.23
-6.64
-6.79
-6.70
-6.44
-6.05
-5.59
-5.06
-4.39
-3.47
-2.21
-0.61
1.07
2.36
2.69
1.68
-0.67
-3.85
-7.07
-9.58
-10.98
-11.41
-11.39
-11.46
-11.92
-12.62
-13.08
-12.79
-11.45
-9.07
-5.94
-2.41
1.26
4.87
8.34
11.54
14.24
16.17
17.10
16.98
15.97
14.46
12.91
11.72
11.06
10.92
11.15
11.53
11.88
12.07
12.04
11.75
11.28
10.70
10.10
9.49
8.75
7.70
6.19
4.23
1.99
-0.22
-2.17
-3.78
-5.14
-6.51
-8.09
-9.99
-12.20
-14.66
-17.35
-20.20
-23.12
-25.82
-27.89
-28.81
-28.18
-25.85
-22.02
-17.16
-11.93
-6.91
-2.54
0.95
3.55
5.35
6.52
7.25
7.73
8.20
8.91
10.08
11.82
14.08
16.63
19.18
21.41
23.14
24.30
25.01
25.38
25.46
25.25
24.62
23.48
21.79
19.64
17.14
14.41
11.52
8.53
5.53
2.61
-0.07
-2.42
-4.50
-6.54
-8.83
-11.61
-14.92
-18.48
-21.78
-24.25
-25.44
-25.16
-23.52
-20.84
-17.53
-13.89
-10.19
-6.59
-3.29
-0.53
1.43
2.39
2.37
1.53
0.22
-1.16
-2.25
-2.82
-2.77
-2.18
-1.22
-0.10
0.94
1.79
2.38
2.74
2.92
2.95
2.79
2.37
1.60
0.46
-1.01
-2.67
-4.35
-5.90
-7.27
-8.54
-9.89
-11.53
-13.53
-15.80
-17.99
-19.63
-20.28
-19.64
-17.63
-14.36
-10.09
-5.16
0.06
5.15
9.70
13.30
15.66
16.72
16.61
15.67
14.32
12.94
11.81
11.07
10.70
10.63
10.71
10.82
10.84
10.70
10.37
9.82
8.99
7.82
6.24
4.20
1.77
-0.96
-3.85
-6.77
-9.60
-12.35
-15.04
-17.74
-20.50
-23.39
-26.40
-29.44
-32.31
-34.55
-35.54
-34.60
-31.25
-25.38
-17.39
-8.00
1.89
11.55
20.51
28.58
35.68
41.68
46.41
49.71
51.53
52.05
51.59
50.50
49.07
47.42
45.54
43.40
40.97
38.29
35.46
32.61
29.86
27.25
24.78
22.33
19.74
16.88
13.68
10.12
6.28
2.22
-1.97
-6.22
-10.42
-14.48
-18.29
-21.85
-25.27
-28.63
-31.97
-35.05
-37.40
-38.50
-37.91
-35.54
-31.68
-26.89
-21.81
-16.98
-12.76
-9.30
-6.68
-4.86
-3.79
-3.26
-3.00
-2.69
-2.05
-0.98
0.48
2.15
3.82
5.38
6.78
8.06
9.25
10.33
11.18
11.69
11.76
11.35
10.46
9.09
7.30
5.19
2.92
0.78
-0.99
-2.24
-3.01
-3.56
-4.29
-5.56
-7.53
-10.11
-12.89
-15.27
-16.63
-16.49
-14.67
-11.33
-6.88
-1.95
2.77
6.69
9.42
10.85
11.17
10.83
10.32
10.04
10.19
10.78
11.74
13.06
14.87
17.35
20.57
24.35
28.19
31.44
33.62
34.62
34.77
34.71
35.04
36.02
37.45
38.70
39.08
38.15
35.93
32.97
30.07
27.97
26.99
26.94
27.22
27.11
26.12
24.15
21.52
18.71
16.26
14.61
14.10
14.88
16.59
18.09
17.42
12.22
0.73
-17.16
-39.48
-62.63
-82.61
-96.53
-103.49
-104.39
-101.04
-95.08
-87.34
-77.99
-67.04
-54.93
-42.53
-30.78
-20.29
-11.06
-2.65
5.43
13.34
20.81
27.20
31.88
34.44
34.83
33.41
30.79
27.65
24.58
21.87
19.52
17.25
14.72
11.72
8.24
4.51
0.85
-2.53
-5.58
-8.40
-11.03
-13.33
-14.93
-15.39
-14.44
-12.08
-8.66
-4.75
-0.94
2.34
4.93
6.82
8.11
8.88
9.10
8.72
7.70
6.15
4.37
2.73
1.61
1.21
1.48
2.19
3.02
3.72
4.21
4.54
4.78
4.96
5.00
4.79
4.28
3.49
2.53
1.56
0.71
0.00
-0.61
-1.24
-2.04
-3.15
-4.66
-6.59
-8.84
-11.17
-13.21
-14.57
-14.94
-14.15
-12.27
-9.54
-6.29
-2.92
0.26
3.02
5.27
6.99
8.23
9.02
9.34
9.22
8.69
7.88
7.03
6.38
6.08
6.15
6.48
6.81
6.94
6.68
5.99
4.93
3.65
2.27
0.90
-0.47
-1.89
-3.41
-5.00
-6.55
-7.91
-9.00
-9.86
-10.64
-11.49
-12.52
-13.69
-14.95
-16.25
-17.64
-19.16
-20.75
-22.16
-23.02
-22.96
-21.83
-19.75
-17.13
-14.45
-12.18
-10.60
-9.82
-9.83
-10.58
-11.97
-13.90
-16.23
-18.75
-21.23
-23.45
-25.24
-26.49
-27.12
-27.10
-26.39
-24.95
-22.80
-19.94
-16.47
-12.54
-8.38
-4.22
-0.32
3.15
6.11
8.64
10.90
13.05
15.24
17.49
19.68
21.57
22.90
23.43
23.09
21.92
20.15
18.01
15.73
13.47
11.34
9.49
8.08
7.28
7.19
7.78
8.96
10.54
12.34
14.18
15.85
17.05
17.51
16.99
15.50
13.30
10.86
8.75
7.38
6.91
7.26
8.24
9.67
11.51
13.81
16.63
19.93
23.50
26.97
29.91
32.01
33.04
32.86
31.29
28.07
23.03
16.30
8.42
0.39
-6.65
-11.81
-14.68
-15.44
-14.75
-13.41
-12.07
-11.18
-10.86
-11.04
-11.47
-11.79
-11.65
-10.77
-9.09
-6.79
-4.17
-1.58
0.74
2.61
3.93
4.64
4.69
4.03
2.72
0.91
-1.21
-3.36
-5.28
-6.65
-7.23
-6.87
-5.61
-3.65
-1.34
1.06
3.53
6.29
9.66
13.85
18.68
23.57
27.70
30.33
31.00
29.69
26.70
22.47
17.38
11.71
5.64
-0.62
-6.78
-12.50
-17.52
-21.72
-25.14
-27.88
-30.01
-31.46
-32.00
-31.34
-29.32
-25.96
-21.56
-16.63
-11.79
-7.58
-4.39
-2.33
-1.33
-1.19
-1.67
-2.58
-3.76
-5.02
-6.17
-6.98
-7.26
-6.94
-6.11
-4.99
-3.82
-2.83
-2.11
-1.63
-1.31
-1.08
-0.96
-1.04
-1.43
-2.19
-3.28
-4.52
-5.72
-6.74
-7.55
-8.27
-9.12
-10.27
-11.86
-13.86
-16.13
-18.42
-20.44
-21.89
-22.47
-21.98
-20.38
-17.80
-14.63
-11.36
-8.48
-6.32
-4.97
-4.33
-4.13
-4.15
-4.25
-4.37
-4.51
-4.61
-4.59
-4.36
-3.86
-3.12
-2.23
-1.27
-0.32
0.60
1.53
2.44
3.34
4.12
4.68
4.91
4.74
4.19
3.35
2.41
1.50
0.72
-0.03
-0.95
-2.27
-4.16
-6.59
-9.33
-11.95
-13.96
-14.93
-14.53
-12.64
-9.37
-4.98
0.10
5.38
10.39
14.77
18.32
20.96
22.74
23.67
23.79
23.18
21.98
20.44
18.89
17.63
16.77
16.26
15.88
15.39
14.63
13.60
12.40
11.09
9.61
7.84
5.58
2.77
-0.49
-3.98
-7.41
-10.59
-13.40
-15.84
-18.02
-20.07
-22.13
-24.38
-26.95
-29.87
-32.97
-35.86
-37.97
-38.70
-37.62
-34.60
-29.85
-23.92
-17.47
-11.15
-5.50
-0.83
2.73
5.21
6.73
7.44
7.54
7.24
6.84
6.61
6.77
7.47
8.66
10.17
11.82
13.44
15.05
16.83
19.05
21.97
25.64
29.87
34.16
37.88
40.37
41.18
40.12
37.31
33.06
27.70
21.59
14.97
8.01
0.81
-6.49
-13.72
-20.64
-26.87
-31.95
-35.36
-36.69
-35.76
-32.69
-27.88
-21.98
-15.70
-9.66
-4.37
-0.10
3.00
4.91
5.77
5.77
5.24
4.51
3.89
3.63
3.89
4.73
6.09
7.81
9.63
11.31
12.65
13.58
14.17
14.51
14.65
14.53
13.98
12.89
11.23
9.14
6.85
4.56
2.37
0.26
-1.80
-3.88
-6.02
-8.32
-10.92
-13.92
-17.23
-20.54
-23.26
-24.73
-24.43
-22.21
-18.30
-13.26
-7.75
-2.37
2.48
6.51
9.64
11.82
13.13
13.71
13.76
13.50
13.14
12.82
12.68
12.78
13.13
13.73
14.51
15.38
16.27
17.07
17.68
17.99
17.91
17.37
16.38
14.96
13.19
11.19
9.02
6.76
4.49
2.31
0.23
-1.73
-3.69
-5.84
-8.39
-11.46
-14.96
-18.50
-21.52
-23.38
-23.58
-22.02
-18.89
-14.65
-9.85
-4.92
-0.16
4.21
8.00
10.99
12.93
13.66
13.18
11.75
9.80
7.85
6.35
5.61
5.68
6.39
7.48
8.67
9.75
10.64
11.30
11.75
11.98
11.94
11.56
10.80
9.65
8.18
6.54
4.85
3.23
1.70
0.18
-1.48
-3.45
-5.86
-8.70
-11.76
-14.65
-16.83
-17.82
-17.31
-15.22
-11.76
-7.33
-2.43
2.47
6.93
10.58
13.15
14.52
14.76
14.09
12.84
11.36
9.93
8.72
7.81
7.21
6.93
6.99
7.37
8.05
8.96
9.95
10.85
11.49
11.73
11.54
10.97
10.05
8.87
7.46
5.87
4.14
2.36
0.61
-1.04
-2.62
-4.18
-5.82
-7.60
-9.60
-11.83
-14.27
-16.76
-18.99
-20.45
-20.64
-19.17
-16.07
-11.71
-6.81
-2.06
1.98
5.10
7.32
8.81
9.67
9.93
9.54
8.49
6.92
5.09
3.37
2.05
1.30
1.04
1.06
1.10
0.99
0.68
0.24
-0.27
-0.81
-1.46
-2.28
-3.26
-4.32
-5.37
-6.32
-7.14
-7.87
-8.49
-8.98
-9.22
-9.22
-9.04
-8.89
-9.01
-9.62
-10.71
-12.13
-13.51
-14.41
-14.45
-13.39
-11.19
-8.02
-4.14
0.13
4.46
8.53
12.08
14.89
16.81
17.79
17.86
17.13
15.71
13.77
11.49
9.09
6.83
4.95
3.63
2.94
2.79
2.97
3.20
3.28
3.13
2.79
2.41
2.13
1.99
1.89
1.60
0.90
-0.28
-1.83
-3.47
-4.87
-5.81
-6.31
-6.61
-7.14
-8.28
-10.24
-12.99
-16.16
-19.26
-21.64
-22.74
-22.08
-19.35
-14.56
-8.08
-0.68
6.55
12.48
16.25
17.57
16.82
14.83
12.50
10.45
8.79
7.30
5.71
3.93
2.19
0.87
0.28
0.52
1.39
2.53
3.64
4.52
5.11
5.37
5.25
4.70
3.71
2.33
0.73
-0.95
-2.56
-4.06
-5.41
-6.60
-7.61
-8.42
-9.04
-9.49
-9.82
-10.08
-10.33
-10.66
-11.26
-12.34
-14.04
-16.29
-18.74
-20.76
-21.64
-20.88
-18.32
-14.28
-9.39
-4.40
0.14
3.94
7.00
9.52
11.69
13.59
15.23
16.54
17.43
17.94
18.18
18.39
18.88
19.94
21.80
24.47
27.71
31.09
33.99
35.86
36.28
35.06
32.24
27.99
22.58
16.38
9.83
3.38
-2.56
-7.74
-12.11
-15.80
-18.99
-21.85
-24.43
-26.74
-28.73
-30.40
-31.80
-32.95
-33.82
-34.23
-33.91
-32.55
-29.95
-26.13
-21.43
-16.34
-11.47
-7.26
-3.95
-1.52
0.11
0.98
1.03
0.11
-1.79
-4.50
-7.67
-10.93
-13.99
-16.72
-19.07
-20.95
-22.17
-22.50
-21.82
-20.24
-18.15
-16.06
-14.44
-13.55
-13.40
-13.84
-14.63
-15.54
-16.40
-17.12
-17.66
-18.06
-18.37
-18.68
-19.02
-19.40
-19.80
-20.17
-20.43
-20.37
-19.76
-18.23
-15.50
-11.45
-6.25
-0.33
5.76
11.50
16.49
20.42
23.05
24.18
23.72
21.74
18.56
14.70
10.74
7.24
4.65
3.27
3.18
4.19
5.77
7.21
7.85
7.40
6.11
4.68
3.84
4.06
5.31
7.23
9.41
11.66
14.04
16.64
19.40
21.99
23.94
24.84
24.57
23.27
21.28
18.91
16.48
14.23
12.46
11.46
11.46
12.58
14.70
17.60
20.93
24.40
27.79
31.01
34.06
36.92
39.47
41.44
42.51
42.49
41.50
40.03
38.82
38.56
39.58
41.76
44.62
47.56
50.11
52.05
53.32
53.82
53.35
51.61
48.42
43.83
38.24
32.25
26.45
21.19
16.47
12.00
7.36
2.19
-3.70
-10.28
-17.35
-24.58
-31.53
-37.69
-42.59
-45.91
-47.54
-47.68
-46.71
-45.10
-43.29
-41.58
-40.16
-39.13
-38.47
-38.10
-37.89
-37.68
-37.33
-36.82
-36.15
-35.34
-34.32
-32.96
-31.13
-28.72
-25.81
-22.64
-19.49
-16.64
-14.25
-12.36
-10.93
-9.98
-9.52
-9.64
-10.33
-11.49
-12.87
-14.23
-15.40
-16.38
-17.32
-18.44
-19.93
-21.88
-24.17
-26.52
-28.54
-29.73
-29.63
-27.96
-24.66
-19.97
-14.35
-8.34
-2.47
2.86
7.40
11.01
13.66
15.38
16.21
16.24
15.60
14.48
13.13
11.85
10.89
10.38
10.33
10.60
11.06
11.61
12.22
12.91
13.64
14.27
14.59
14.40
13.56
12.14
10.29
8.22
6.08
3.91
1.67
-0.69
-3.16
-5.69
-8.22
-10.77
-13.45
-16.34
-19.36
-22.12
-24.02
-24.44
-23.04
-19.91
-15.54
-10.59
-5.62
-0.95
3.29
7.02
10.06
12.13
13.06
12.82
11.71
10.21
8.78
7.76
7.24
7.16
7.39
7.80
8.33
8.97
9.72
10.51
11.22
11.65
11.62
10.98
9.65
7.70
5.26
2.54
-0.22
-2.86
-5.27
-7.50
-9.71
-12.18
-15.14
-18.71
-22.73
-26.70
-29.94
-31.77
-31.75
-29.81
-26.26
-21.65
-16.60
-11.63
-7.13
-3.33
-0.40
1.52
2.41
2.34
1.53
0.32
-0.87
-1.71
-1.95
-1.59
-0.72
0.47
1.85
3.33
4.90
6.53
8.10
9.44
10.36
10.74
10.54
9.81
8.68
7.27
5.71
4.09
2.46
0.74
-1.22
-3.63
-6.61
-10.06
-13.59
-16.62
-18.53
-18.85
-17.38
-14.32
-10.10
-5.33
-0.63
3.50
6.79
9.16
10.77
11.84
12.58
13.16
13.65
14.16
14.84
15.92
17.63
20.13
23.42
27.36
31.66
35.92
39.76
42.75
44.55
44.91
43.71
41.04
37.14
32.36
27.10
21.73
16.57
11.80
7.47
3.51
-0.26
-4.03
-7.95
-12.07
-16.30
-20.37
-23.91
-26.49
-27.69
-27.30
-25.32
-22.07
-18.04
-13.85
-10.02
-6.91
-4.60
-2.98
-1.82
-0.94
-0.19
0.47
1.06
1.56
2.04
2.55
3.16
3.91
4.77
5.68
6.51
7.17
7.61
7.78
7.68
7.28
6.54
5.41
3.84
1.88
-0.35
-2.59
-4.60
-6.20
-7.37
-8.26
-9.17
-10.42
-12.24
-14.62
-17.32
-19.84
-21.61
-22.12
-21.11
-18.65
-15.04
-10.77
-6.33
-2.10
1.69
4.86
7.29
8.93
9.77
9.94
9.66
9.17
8.67
8.30
8.06
7.96
7.97
8.13
8.42
8.81
9.20
9.49
9.58
9.47
9.22
8.88
8.50
8.08
7.55
6.81
5.75
4.32
2.58
0.66
-1.25
-2.98
-4.46
-5.76
-7.07
-8.67
-10.79
-13.50
-16.65
-19.86
-22.60
-24.37
-24.75
-23.63
-21.11
-17.56
-13.44
-9.29
-5.49
-2.33
0.09
1.82
2.99
3.77
4.35
4.90
5.56
6.48
7.76
9.46
11.57
14.01
16.61
19.23
21.75
24.08
26.14
27.80
28.96
29.49
29.36
28.65
27.51
26.12
24.57
22.82
20.75
18.24
15.30
12.07
8.80
5.73
3.02
0.66
-1.42
-3.39
-5.42
-7.68
-10.29
-13.22
-16.27
-19.03
-21.02
-21.81
-21.23
-19.41
-16.74
-13.73
-10.79
-8.19
-6.02
-4.33
-3.13
-2.47
-2.41
-2.94
-3.93
-5.13
-6.20
-6.80
-6.69
-5.85
-4.49
-2.92
-1.52
-0.50
0.11
0.46
0.71
0.93
1.03
0.81
0.09
-1.18
-2.92
-4.93
-7.01
-9.05
-11.06
-13.10
-15.22
-17.42
-19.66
-21.91
-24.17
-26.43
-28.68
-30.76
-32.40
-33.26
-33.03
-31.58
-29.03
-25.67
-21.87
-17.97
-14.22
-10.79
-7.81
-5.38
-3.54
-2.33
-1.66
-1.39
-1.28
-1.08
-0.64
0.06
0.84
1.41
1.51
1.04
0.12
-0.97
-1.87
-2.39
-2.55
-2.54
-2.70
-3.39
-4.90
-7.39
-10.80
-14.78
-18.71
-21.84
-23.56
-23.58
-22.11
-19.63
-16.75
-13.85
-11.00
-7.95
-4.38
-0.07
5.03
10.74
16.79
22.92
28.95
34.70
40.00
44.57
48.09
50.15
50.42
48.75
45.31
40.56
35.25
30.21
26.20
23.69
22.78
23.18
24.33
25.55
26.24
25.97
24.57
22.05
18.60
14.46
9.94
5.33
0.93
-3.01
-6.28
-8.75
-10.39
-11.31
-11.75
-11.99
-12.30
-12.86
-13.65
-14.51
-15.05
-14.82
-13.36
-10.30
-5.49
0.97
8.66
16.91
24.93
31.92
37.23
40.44
41.42
40.27
37.33
33.03
27.92
22.47
17.16
12.30
8.13
4.80
2.34
0.71
-0.26
-0.71
-0.82
-0.75
-0.57
-0.36
-0.20
-0.22
-0.53
-1.23
-2.37
-3.98
-6.08
-8.70
-11.83
-15.38
-19.21
-23.13
-26.99
-30.76
-34.50
-38.35
-42.41
-46.66
-50.90
-54.77
-57.77
-59.46
-59.48
-57.77
-54.55
-50.28
-45.55
-40.84
-36.51
-32.67
-29.38
-26.65
-24.57
-23.17
-22.40
-22.06
-21.79
-21.19
-19.94
-17.93
-15.25
-12.16
-8.99
-6.01
-3.34
-0.93
1.41
3.84
6.40
8.97
11.26
12.93
13.75
13.67
12.85
11.59
10.21
8.94
7.84
6.78
5.51
3.76
1.39
-1.61
-5.05
-8.59
-11.80
-14.24
-15.49
-15.23
-13.28
-9.66
-4.60
1.43
7.82
13.92
19.12
23.05
25.60
26.91
27.36
27.38
27.34
27.47
27.86
28.49
29.25
30.07
30.92
31.80
32.76
33.81
34.92
35.94
36.68
36.92
36.47
35.23
33.10
30.09
26.24
21.73
16.84
11.95
7.40
3.39
-0.13
-3.45
-6.98
-11.02
-15.65
-20.59
-25.22
-28.81
-30.65
-30.36
-27.94
-23.75
-18.40
-12.59
-6.99
-2.19
1.35
3.35
3.75
2.67
0.46
-2.44
-5.56
-8.49
-10.85
-12.34
-12.79
-12.17
-10.66
-8.60
-6.38
-4.37
-2.79
-1.75
-1.26
-1.34
-2.03
-3.44
-5.58
-8.41
-11.68
-15.01
-17.94
-20.10
-21.26
-21.45
-20.85
-19.73
-18.38
-17.01
-15.71
-14.50
-13.22
-11.65
-9.51
-6.53
-2.64
2.02
7.10
12.14
16.74
20.65
23.87
26.55
28.92
31.16
33.35
35.48
37.53
39.54
41.60
43.78
46.05
48.24
50.08
51.32
51.83
51.66
50.94
49.84
48.46
46.80
44.81
42.42
39.56
36.12
31.96
26.91
20.89
13.99
6.48
-1.23
-8.68
-15.55
-21.66
-27.03
-31.74
-35.86
-39.37
-42.14
-44.01
-44.74
-44.19
-42.30
-39.20
-35.14
-30.48
-25.50
-20.41
-15.26
-10.02
-4.71
0.62
5.84
10.79
15.33
19.34
22.70
25.32
27.16
28.37
29.25
30.18
31.44
33.04
34.70
35.99
36.54
36.23
35.18
33.67
32.04
30.62
29.80
30.02
31.74
35.24
40.48
47.03
54.19
61.29
67.96
74.20
80.30
86.62
93.39
100.65
108.22
115.94
123.65
131.30
138.94
146.60
154.25
161.62
168.22
173.46
176.85
178.19
177.68
175.71
172.51
167.89
161.25
151.80
139.04
122.94
103.93
82.60
59.34
34.25
7.34
-21.06
-49.99
-77.72
-102.05
-120.93
-133.11
-138.67
-139.21
-137.45
-136.59
-139.48
-147.84
-161.88
-180.17
-199.84
-217.13
-228.12
-229.80
-221.09
-203.52
-180.98
-158.71
-141.46
-131.99
-130.23
-133.65
-138.38
-140.71
-138.20
-130.12
-117.38
-102.01
-86.41
-72.80
-62.57
-56.03
-52.52
-50.79
-49.63
-48.35
-46.92
-45.77
-45.40
-45.97
-47.14
-48.19
-48.21
-46.37
-42.21
-35.60
-26.79
-16.26
-4.71
6.87
17.28
25.23
29.75
30.67
29.00
26.70
25.97
28.22
33.21
39.05
42.88
42.17
35.87
24.96
12.05
0.42
-7.14
-9.24
-6.22
0.07
6.83
11.15
10.60
3.70
-9.80
-28.95
-51.76
-75.50
-97.16
-114.09
-124.58
-128.42
-126.88
-122.33
-117.35
-113.94
-112.92
-113.98
-116.20
-118.76
-121.23
-123.66
-126.08
-128.21
-129.29
-128.40
-124.83
-118.44
-109.66
-99.18
-87.63
-75.16
-61.54
-46.34
-29.27
-10.50
9.32
29.17
48.02
65.07
79.97
92.79
103.75
113.01
120.39
125.39
127.40
126.09
121.67
115.03
107.47
100.34
94.58
90.52
87.88
86.01
84.25
82.15
79.55
76.59
73.46
70.28
67.06
63.64
59.82
55.45
50.44
44.80
38.66
32.19
25.62
19.16
13.00
7.30
2.18
-2.23
-5.80
-8.31
-9.58
-9.51
-8.15
-5.78
-2.86
0.05
2.46
4.04
4.78
4.99
5.24
6.21
8.43
12.12
17.01
22.51
27.87
32.50
36.16
38.92
41.02
42.65
43.80
44.32
43.99
42.74
40.69
38.10
35.31
32.60
30.10
27.81
25.59
23.31
20.95
18.69
16.88
15.95
16.14
17.42
19.40
21.43
22.90
23.33
22.52
20.46
17.32
13.37
9.08
5.11
2.21
1.05
1.93
4.63
8.43
12.46
15.95
18.46
19.92
20.44
20.13
19.04
17.22
14.82
12.19
9.69
7.57
5.76
3.99
1.98
-0.32
-2.60
-4.40
-5.37
-5.56
-5.40
-5.50
-6.31
-7.95
-10.15
-12.53
-14.87
-17.21
-19.77
-22.71
-25.94
-29.02
-31.35
-32.39
-31.92
-30.11
-27.51
-24.78
-22.52
-21.12
-20.73
-21.28
-22.44
-23.50
-23.41
-21.00
-15.48
-6.99
3.30
13.60
22.26
28.59
33.08
36.93
41.12
45.62
49.26
50.20
46.91
38.91
27.01
13.01
-1.00
-13.27
-22.74
-29.14
-32.78
-34.18
-33.75
-31.62
-27.75
-22.23
-15.52
-8.52
-2.35
2.15
4.73
5.80
6.12
6.35
6.76
7.21
7.45
7.45
7.46
7.95
9.16
10.94
12.69
13.66
13.35
11.80
9.55
7.45
6.20
6.05
6.70
7.43
7.35
5.72
2.14
-3.37
-10.43
-18.42
-26.58
-34.07
-40.11
-44.01
-45.34
-44.03
-40.37
-35.03
-28.84
-22.58
-16.85
-11.93
-7.85
-4.54
-1.93
-0.06
1.04
1.37
1.12
0.58
0.07
-0.22
-0.27
-0.27
-0.43
-0.94
-1.85
-3.06
-4.43
-5.80
-7.02
-8.00
-8.66
-9.00
-9.17
-9.53
-10.49
-12.36
-15.11
-18.24
-20.91
-22.27
-21.78
-19.51
-16.06
-12.31
-9.15
-7.13
-6.37
-6.53
-6.92
-6.73
-5.21
-2.02
2.69
8.16
13.30
17.06
18.85
18.70
17.21
15.13
13.08
11.33
9.87
8.56
7.28
5.95
4.47
2.60
-0.00
-3.64
-8.43
-14.11
-20.02
-25.21
-28.69
-29.68
-27.83
-23.28
-16.65
-8.85
-0.82
6.58
12.75
17.41
20.54
22.39
23.34
23.69
23.57
22.86
21.32
18.84
15.62
12.19
9.30
7.51
7.02
7.58
8.63
9.52
9.62
8.45
5.76
1.56
-3.74
-9.42
-14.57
-18.43
-20.74
-21.75
-22.05
-22.18
-22.27
-21.97
-20.68
-17.90
-13.45
-7.62
-0.98
5.80
12.09
17.35
21.24
23.61
24.54
24.38
23.67
22.97
22.69
23.01
23.77
24.66
25.27
25.32
24.62
23.14
20.97
18.26
15.24
12.17
9.30
6.80
4.68
2.76
0.70
-1.80
-4.89
-8.44
-11.99
-14.96
-16.70
-16.76
-14.96
-11.47
-6.76
-1.49
3.61
8.02
11.47
14.02
15.92
17.39
18.46
18.90
18.32
16.43
13.26
9.20
4.96
1.27
-1.37
-2.84
-3.43
-3.62
-3.90
-4.63
-5.95
-7.89
-10.35
-13.22
-16.35
-19.59
-22.78
-25.72
-28.24
-30.08
-30.96
-30.61
-28.83
-25.60
-21.09
-15.64
-9.67
-3.61
2.17
7.39
11.85
15.41
17.99
19.54
20.00
19.31
17.50
14.72
11.31
7.81
4.75
2.53
1.30
0.89
1.00
1.25
1.40
1.32
0.95
0.23
-0.93
-2.62
-4.86
-7.59
-10.73
-14.21
-18.01
-22.03
-26.01
-29.41
-31.51
-31.58
-29.27
-24.79
-18.87
-12.57
-6.88
-2.43
0.58
2.30
2.97
2.81
1.91
0.39
-1.58
-3.68
-5.55
-6.89
-7.62
-7.91
-8.07
-8.34
-8.77
-9.17
-9.16
-8.37
-6.61
-3.91
-0.58
2.96
6.25
8.87
10.46
10.80
9.89
8.05
5.96
4.55
4.73
7.10
11.66
17.85
24.79
31.56
37.55
42.49
46.33
49.04
50.54
50.65
49.23
46.31
42.12
37.05
31.60
26.32
21.75
18.40
16.53
16.05
16.33
16.30
14.75
10.74
3.99
-5.04
-15.24
-25.32
-34.17
-41.15
-46.07
-49.09
-50.51
-50.58
-49.49
-47.35
-44.20
-40.03
-34.80
-28.51
-21.26
-13.31
-5.05
3.03
10.41
16.66
21.43
24.52
25.86
25.68
24.46
22.96
22.04
22.41
24.32
27.36
30.53
32.54
32.35
29.50
24.30
17.72
10.94
5.03
0.66
-2.00
-3.15
-3.26
-2.94
-2.81
-3.37
-4.89
-7.24
-9.99
-12.51
-14.17
-14.53
-13.49
-11.26
-8.38
-5.49
-3.13
-1.61
-0.84
-0.50
-0.23
0.20
0.68
0.90
0.54
-0.54
-2.17
-4.04
-5.84
-7.41
-8.81
-10.13
-11.42
-12.56
-13.31
-13.41
-12.69
-11.17
-9.16
-7.15
-5.75
-5.50
-6.70
-9.28
-12.87
-16.80
-20.30
-22.60
-23.14
-21.69
-18.49
-14.24
-9.80
-6.00
-3.20
-1.26
0.42
2.51
5.38
8.91
12.44
15.11
16.11
15.05
11.99
7.39
1.99
-3.40
-8.05
-11.39
-12.96
-12.42
-9.53
-4.29
2.76
10.41
16.92
20.43
19.74
14.79
6.81
-2.11
-9.84
-14.92
-16.96
-16.44
-14.32
-11.44
-8.32
-5.16
-1.97
1.24
4.37
7.34
10.02
12.32
14.12
15.39
16.14
16.54
16.74
16.84
16.64
15.76
13.74
10.36
5.86
1.01
-3.10
-5.32
-4.78
-1.08
5.58
14.35
23.78
32.03
37.31
38.44
35.31
29.01
21.42
14.54
9.79
7.67
7.89
9.78
12.72
16.27
20.12
23.84
26.83
28.49
28.49
26.97
24.53
21.95
19.88
18.58
17.86
17.18
15.90
13.52
9.96
5.54
0.88
-3.34
-6.58
-8.69
-9.79
-10.21
-10.27
-10.19
-10.06
-9.96
-9.99
-10.29
-10.99
-12.15
-13.73
-15.58
-17.59
-19.62
-21.65
-23.68
-25.64
-27.38
-28.61
-28.92
-27.97
-25.54
-21.72
-16.85
-11.48
-6.19
-1.42
2.59
5.81
8.24
9.88
10.63
10.40
9.17
7.05
4.34
1.41
-1.36
-3.73
-5.56
-6.88
-7.82
-8.51
-9.11
-9.74
-10.46
-11.31
-12.28
-13.33
-14.40
-15.49
-16.61
-17.82
-19.22
-20.92
-23.00
-25.47
-28.14
-30.64
-32.41
-32.89
-31.66
-28.67
-24.21
-18.88
-13.31
-8.03
-3.35
0.65
3.93
6.45
8.17
9.02
9.07
8.50
7.58
6.58
5.67
4.92
4.29
3.78
3.42
3.30
3.51
3.99
4.51
4.76
4.43
3.40
1.81
-0.07
-1.96
-3.67
-5.24
-6.81
-8.60
-10.77
-13.38
-16.36
-19.51
-22.47
-24.72
-25.75
-25.13
-22.70
-18.67
-13.53
-7.91
-2.43
2.47
6.51
9.58
11.65
12.74
12.95
12.41
11.36
10.08
8.81
7.69
6.77
6.03
5.45
5.04
4.86
4.99
5.42
6.03
6.63
7.02
7.12
6.99
6.79
6.65
6.56
6.36
5.82
4.73
2.99
0.64
-2.20
-5.34
-8.53
-11.46
-13.69
-14.78
-14.39
-12.42
-9.04
-4.71
-0.07
4.23
7.63
9.81
10.72
10.58
9.84
9.04
8.64
8.90
9.81
11.14
12.60
13.91
14.95
15.84
16.86
18.34
20.54
23.44
26.74
29.83
32.05
32.80
31.81
29.17
25.23
20.48
15.36
10.15
5.03
0.01
-4.88
